1503610324179,-2, -1, 0, -1, 0, 0, 0, -2
1503610324195,-1, 1, -1, -1, -1, -2, 0, 1
1503610324217,0, 0, 0, -1, -2, 0, -1, 1
1503610324239,-4, -1, -2, -3, 0, 0, -2, -4
1503610324255,2, -1, -2, 0, -1, -1, 1, 2
1503610324277,-1, 1, 0, -2, -2, -1, 1, -1
1503610324299,-7, -5, 1, -1, 0, 0, -1, -3
1503610324315,-1, -1, -1, -1, -1, -1, -2, 2
1503610324337,3, 0, 0, 0, -1, -2, 2, 1
1503610324360,1, -3, -1, 0, 0, -1, -2, -2
1503610324375,3, 0, -1, -2, 0, -1, -1, 0
1503610324398,1, 0, 0, 2, 1, -1, 0, 1
1503610324419,-2, -4, -2, -1, -3, 0, -2, -2
1503610324435,2, -2, -3, -2, -1, -1, -4, -4
1503610324457,4, 1, 0, 1, 0, 1, 1, 2
1503610324479,-6, 0, -2, -2, -1, 0, 1, 1
1503610324494,7, 3, 0, 0, -1, -1, 0, 1
1503610324518,-1, 2, -1, 1, 2, 1, 0, -2
1503610324540,-7, -2, 0, 0, -2, -2, -1, -3
1503610324555,-3, 0, -2, -2, -1, 0, -1, -2
1503610324578,6, 4, -3, -4, -1, -1, -1, 3
1503610324600,-4, 0, 4, -3, -1, -2, -2, -4
1503610324615,-4, -3, -3, -1, -3, 0, -1, -4
1503610324637,-3, -6, -3, 0, -1, -1, 1, -2
1503610324660,3, -1, 1, 0, 1, 3, 0, 2
1503610324675,-4, -4, 0, -1, 0, -1, -1, 0
1503610324698,3, 1, 0, 0, -1, -1, 0, 0
1503610324722,-1, 1, -1, -1, 0, -2, 0, 2
1503610324735,-3, -2, -2, -2, -1, -2, -2, -2
1503610324757,-3, -2, -1, 0, 0, -1, 0, -1
1503610324780,-4, 0, -1, -1, -1, 0, -2, -2
1503610324795,0, 1, -2, -1, 0, 0, -1, -1
1503610324810,-2, -2, -1, 0, 1, -2, 0, -1
1503610324825,-2, -3, 1, 1, -1, -1, -2, -7
1503610324850,2, -1, -3, -2, -2, 0, 0, 3
1503610324869,0, 0, -1, -2, -2, -1, -1, -1
1503610324886,0, -1, -1, -2, -2, -1, 0, 1
1503610324908,-3, -1, 1, -1, 1, -2, -1, 1
1503610324930,1, -1, -2, -1, 0, 0, -1, 1
1503610324948,-2, -1, 0, 0, 0, 0, 0, -2
1503610324967,3, 0, -1, -2, -2, 1, 0, 3
1503610324989,-1, -2, -1, -2, -1, 0, 0, 0
1503610324997,-1, -1, -1, 1, 0, 0, 0, 0
1503610325020,-1, -1, -1, -3, -1, 0, 0, -1
1503610325028,2, -1, -1, -2, 0, -2, 0, 0
1503610325050,-2, 0, -2, 0, -1, 0, 0, -1
1503610325072,-1, -1, 1, -2, -2, -1, 0, -3
1503610325095,-1, -1, -1, -2, 0, 1, 0, 1
1503610325109,-1, -2, -2, -1, -2, 0, -2, 2
1503610325118,0, -1, -1, -1, 0, -2, -1, 1
1503610325140,-1, -2, -1, -1, 0, 0, -2, -4
1503610325161,0, -1, -1, -1, -1, -1, 1, 3
1503610325177,1, 0, 0, -2, -2, -1, 0, 1
1503610325199,-1, 0, 0, -2, 0, -1, -2, 0
1503610325221,-1, 0, -2, 1, 1, 0, -1, 2
1503610325230,1, 0, -2, -1, -1, -1, -1, 0
1503610325259,-1, -3, 0, 1, -1, -2, 0, -5
1503610325267,1, 0, 0, -1, -1, 0, -1, 4
1503610325290,-2, -1, -1, -1, 0, 0, 0, -2
1503610325312,-1, -1, 1, -1, -2, 1, -2, -2
1503610325328,0, -2, -1, -3, -3, 0, -1, -4
1503610325350,-1, 0, 1, 0, 0, -2, 0, 2
1503610325372,-1, 1, 1, -1, -1, -2, 0, 0
1503610325387,1, -3, -3, -3, 0, 0, 0, 3
1503610325409,0, 0, 0, 0, 0, 0, -3, -8
1503610325432,1, 1, -1, -1, -2, -2, 0, 0
1503610325448,-1, -1, -2, -4, -2, -1, -1, -1
1503610325461,-2, 1, -1, -3, -2, -1, 0, 0
1503610325469,0, -3, 0, -1, 1, 2, 0, 2
1503610325492,-1, 2, 2, 0, 0, -2, -3, -5
1503610325508,-1, -3, -2, -1, -3, -2, -1, 1
1503610325529,0, -1, -2, -3, 1, -3, 0, 0
1503610325552,-1, -1, -2, 0, -1, 0, 0, 1
1503610325567,-1, 1, 3, 1, 0, 0, -1, 1
1503610325590,-1, -1, -3, -3, -2, -2, -2, -1
1503610325612,0, 2, -3, 1, 0, 0, 0, 2
1503610325629,-1, -1, 0, -2, 0, 0, -2, -1
1503610325653,-1, -1, -1, -1, -1, -1, 0, 0
1503610325672,-3, -3, -3, -2, -1, -2, -2, -3
1503610325690,-3, -1, -1, 1, -1, 0, 0, -3
1503610325710,-1, 0, -2, -3, -2, -1, 0, -3
1503610325732,0, -1, 1, -1, 0, 0, 1, -2
1503610325748,1, -1, -1, -1, -2, 0, 0, 1
1503610325770,-1, 0, 1, 1, 0, -1, -1, -1
1503610325792,-2, -2, -3, 0, 0, -2, 0, 1
1503610325807,-1, -2, -2, -1, 0, 0, 1, -1
1503610325830,-2, 0, 2, -2, -1, -1, -1, -1
1503610325854,0, -2, -3, -3, -2, -1, -2, 1
1503610325868,2, 0, 0, -1, 1, -1, -1, 1
1503610325890,-1, -1, -2, 0, -1, 0, -1, 0
1503610325912,-1, -2, 0, 0, -1, 0, -2, -1
1503610325934,1, 1, -2, 0, 0, -2, 0, 0
1503610325950,-1, 1, 1, 0, 0, -1, -1, 1
1503610325972,-3, -3, -2, 0, -3, -1, 0, -3
1503610325995,-1, -2, 0, 0, -1, -1, -1, 0
1503610326010,1, -1, 0, 0, 0, 1, -2, 1
1503610326032,2, 2, 0, 1, -1, 0, 2, 0
1503610326055,-5, -3, 0, -1, -2, -2, -1, -4
1503610326070,-8, -6, -4, -2, -3, -2, -3, -3
1503610326092,-17, -11, -4, -4, -1, -2, -1, -5
1503610326114,10, 3, 2, 1, 0, 2, -1, -1
1503610326123,2, -3, -1, 0, -2, -2, -1, -1
1503610326144,-7, 1, 4, 0, -2, -1, -3, -10
1503610326161,-20, -11, -2, 0, 0, 1, 0, -4
1503610326183,15, 11, 3, 1, 0, -1, -1, 0
1503610326204,7, -1, -4, -3, -5, -3, 1, 1
1503610326229,-4, -1, -6, -3, 0, -2, -3, -2
1503610326241,12, -2, -4, -1, -8, -4, 1, 8
1503610326264,-6, 6, 2, -1, 7, 4, 0, -1
1503610326279,-4, 2, 5, 0, -1, 0, 0, -1
1503610326305,-5, -10, -18, 1, 9, 8, 1, 3
1503610326324,-21, -7, 2, -1, -6, -4, -2, 3
1503610326340,22, 7, 1, 2, 3, 1, -8, -8
1503610326363,8, 5, 4, 0, -2, -2, -8, -9
1503610326384,0, -1, 2, -1, 0, -3, 1, 1
1503610326400,-2, -10, 0, -2, -4, -4, 1, 0
1503610326415,5, 3, -7, -1, 0, -2, 0, -4
1503610326430,-1, -4, -4, 0, 2, 3, -1, -3
1503610326452,-2, 1, 1, 1, 2, 0, -1, -3
1503610326475,-14, -5, 6, 1, 1, -2, -5, -3
1503610326495,7, 10, 10, 3, 1, 1, 0, 0
1503610326512,5, -4, -15, -3, -2, -1, 0, -1
1503610326541,-4, -20, -12, -4, 2, 3, 2, 3
1503610326559,1, 13, 8, 3, 3, 2, -2, -2
1503610326572,-2, -4, 2, -1, -3, -2, 0, -2
1503610326596,-4, 1, 0, -1, 0, -1, -2, -11
1503610326610,-10, 1, 4, 10, 11, 0, -1, 0
1503610326633,-1, 0, -4, -7, -5, -2, 1, 5
1503610326655,2, 1, 2, 1, -1, -3, -5, -5
1503610326670,-1, -13, -2, -3, -5, -3, -3, -2
1503610326693,2, -7, -12, -3, -2, -4, -1, -3
1503610326715,-4, 1, 2, 0, 0, 1, 0, 0
1503610326730,-12, -17, -9, -3, -3, 1, 1, -4
1503610326752,16, 4, -3, -2, -2, 0, 1, 5
1503610326775,3, 6, 10, -4, -8, -4, -1, 3
1503610326782,7, -4, -2, 1, -1, -1, -5, -6
1503610326804,5, 4, -4, -3, -1, -3, 0, -1
1503610326828,2, -1, -5, -2, -1, -2, -2, 4
1503610326841,0, 2, 3, 0, 1, 1, 1, 0
1503610326864,-5, -8, -3, -2, 1, 0, -1, 1
1503610326888,0, 9, 7, 1, -3, -1, 1, 0
1503610326903,-1, -5, -2, 0, -1, -2, 0, 1
1503610326924,-1, 6, 3, 2, -2, -1, -1, 1
1503610326946,2, 7, 1, 1, 0, 0, -1, -2
1503610326961,-1, -4, -4, -5, -3, -4, -1, 0
1503610326984,-4, 0, 2, 2, 0, 6, -2, -4
1503610327006,0, -4, -2, -2, 0, -1, 0, -2
1503610327022,1, 0, -7, -3, -2, -3, -3, 2
1503610327044,-1, -1, -1, 0, 0, -2, 3, -1
1503610327066,0, -10, 8, 4, -2, -2, -2, -2
1503610327075,-3, 3, -2, -3, 0, 4, 1, -3
1503610327097,-3, -11, -6, -1, -1, 0, 0, -2
1503610327112,0, 2, -1, -1, -1, 0, -2, 0
1503610327135,1, 2, 2, -1, -1, -1, 6, 1
1503610327158,4, 1, -3, -1, -1, 1, 2, -1
1503610327172,5, -14, 1, 1, 1, -1, 1, 1
1503610327195,-25, -8, -3, -4, -2, -2, -4, -4
1503610327217,-8, -18, -8, -2, -2, 0, -1, -1
1503610327232,2, 4, -1, 0, 0, -3, -1, -1
1503610327255,6, 5, 0, -2, -1, -2, -1, 0
1503610327277,5, 2, 0, -1, -1, -1, 0, -1
1503610327292,10, 10, 3, 0, 3, 0, 0, 1
1503610327315,29, 0, -3, 0, -1, -1, 0, 5
1503610327338,0, 11, 3, 0, -1, 0, -2, 0
1503610327352,-10, -2, 0, 0, -3, -1, -1, -2
1503610327375,-1, 2, -7, 0, 0, 0, -2, -4
1503610327406,-4, 3, -7, -3, -6, -9, -2, 2
1503610327427,4, -19, -18, -5, 3, 4, -1, -3
1503610327450,-15, -9, 10, 3, 3, -2, 0, -6
1503610327466,6, -5, -7, -3, -4, 1, 3, 2
1503610327488,10, 19, -1, 2, 2, 3, -1, 0
1503610327511,-3, -6, 1, -1, 1, 0, 2, 1
1503610327526,-20, -15, -6, -3, -3, 0, -4, -9
1503610327548,6, -2, -1, -1, -1, -3, -1, 1
1503610327571,6, 5, 2, 0, 1, -1, -3, 1
1503610327585,-3, -10, 6, 1, 3, 0, -2, -6
1503610327609,-2, 4, 5, 1, 3, 2, 2, 4
1503610327615,1, -7, -4, 2, 1, 1, -1, 0
1503610327638,-5, -12, -8, -2, 2, 3, -1, -5
1503610327652,1, 1, 3, -2, -3, -4, -1, 4
1503610327675,-1, 7, 4, 1, 1, -1, 1, -3
1503610327699,-10, -12, 2, 0, 2, 2, -1, -2
1503610327712,-7, -4, 5, 2, 2, -5, -3, -6
1503610327735,5, 8, 4, -1, -2, 0, 1, 6
1503610327758,-1, -7, -11, -3, -3, 0, -1, -1
1503610327779,-1, -5, 0, 2, 1, 3, 1, 2
1503610327787,-8, -20, -4, -1, -1, -1, 1, 2
1503610327810,0, 30, 23, 3, -2, 1, -2, -1
1503610327835,10, 3, -10, -6, -6, -9, -7, -4
1503610327854,10, -8, -6, 2, 10, 14, 10, 7
1503610327870,-13, -15, 19, 6, 3, 6, -1, -5
1503610327885,2, 10, 8, 5, 6, 1, -1, -2
1503610327908,-52, -42, -23, -7, -6, -8, -4, -11
1503610327915,-21, -4, 1, 2, 5, 2, -1, -1
1503610327937,12, 14, 6, 1, 0, 3, 3, 2
1503610327959,9, 17, 2, -2, -2, 0, 2, 4
1503610327975,-9, 3, 6, 7, 7, 3, 0, 1
1503610327997,-5, -2, 1, 2, 3, 4, 1, -2
1503610328020,-8, -14, -1, 3, 3, 2, 0, -2
1503610328035,4, -10, -4, 0, -1, -1, 2, 6
1503610328057,3, -4, -2, -4, -4, -1, -2, -3
1503610328079,4, 12, -3, -4, -2, -1, 0, 1
1503610328094,-1, -4, 0, 0, -1, -1, -2, -3
1503610328117,-3, -4, 10, -1, -3, 0, -4, -2
1503610328140,2, 3, -4, -1, -1, -1, -1, 0
1503610328154,-1, -2, -2, -1, 0, -3, -2, -3
1503610328177,0, -4, -2, 0, -1, -1, 1, -1
1503610328199,-2, -1, -1, -2, 0, -1, 0, -1
1503610328214,0, 2, -3, -1, -1, -2, -2, 0
1503610328237,3, 13, 3, 0, 1, -1, -1, -1
1503610328259,-3, -3, -2, -1, 1, 0, -1, 1
1503610328275,-2, 2, 3, -2, -1, -1, -1, -3
1503610328297,1, -2, 0, -2, -2, 0, 0, 1
1503610328320,-2, -3, -3, 0, 1, 0, -1, -1
1503610328337,-7, -4, -1, 0, 0, -1, -1, 0
1503610328357,0, -4, -2, -1, -3, 1, 1, -3
1503610328379,3, -1, -3, -2, -2, -1, -1, 0
1503610328394,0, -7, -4, 1, 0, 0, 1, -1
1503610328417,4, 9, 0, 0, -1, -2, -1, 1
1503610328439,-2, 0, -1, -1, 0, 0, -1, -1
1503610328449,0, 2, -1, 0, -2, 0, -1, -2
1503610328472,-2, 5, 1, 0, 1, 1, 0, 0
1503610328485,1, -1, -1, 0, -2, -1, 0, -2
1503610328509,-4, -8, -2, 0, -1, 0, -2, -9
1503610328530,1, 1, 1, -2, -1, -2, 1, 3
1503610328545,1, 2, 1, 0, -1, -2, 0, 1
1503610328568,-2, -5, 0, -1, -2, -2, -1, -2
1503610328590,1, 4, 0, -2, -2, -1, -1, 2
1503610328606,-2, -1, -1, 1, 1, 0, -1, 0
1503610328628,-1, -3, -2, 1, 0, 0, -1, 1
1503610328650,0, 7, 2, -2, 1, -4, -2, 0
1503610328665,0, 3, -1, -2, -2, 0, 0, 2
1503610328687,-2, -2, 2, 0, 0, 1, -1, -4
1503610328711,-1, -3, -3, -1, -1, 0, 0, 1
1503610328732,-2, -3, 3, 1, 0, -1, -1, 0
1503610328747,2, 3, -4, -2, 2, 0, -1, 1
1503610328770,-3, -6, 3, 1, -1, 0, -2, -3
1503610328792,3, -7, -10, -3, 0, -1, -2, -2
1503610328807,-3, -4, -1, -2, -1, -1, -1, -1
1503610328830,0, 7, -2, -1, -1, -1, 2, 1
1503610328852,2, 2, 1, 0, -2, 0, -2, 1
1503610328867,-1, -2, 2, -4, -5, -2, -1, -2
1503610328890,1, 0, -1, -1, 1, 0, 0, 2
1503610328912,-2, 0, 0, -1, -2, -2, -1, -2
1503610328927,-3, -5, -2, 0, 0, 0, 0, -1
1503610328950,6, 10, -7, -1, -2, -1, 1, 2
1503610328972,-2, 0, 1, 1, 0, 0, -1, -3
1503610328987,-2, -2, -1, -1, -1, -1, -1, -1
1503610329010,-5, -4, 1, -2, 1, -2, -1, -2
1503610329032,-3, -7, 0, -2, -3, 1, -1, 0
1503610329048,-2, -3, 2, 1, 0, -1, -1, 1
1503610329070,0, 3, 1, 0, 0, -1, -1, -1
1503610329099,-4, -7, -2, -2, -2, -2, -1, -5
1503610329111,0, 0, -4, -2, -2, -1, -2, 0
1503610329130,0, 0, 0, 2, 0, 0, 1, 0
1503610329152,1, 2, 0, 0, -1, 0, -1, 0
1503610329167,-2, 1, 1, 0, -1, 0, -2, -3
1503610329190,0, 1, -1, 2, 1, 0, 1, 0
1503610329213,1, 1, 0, -3, -2, 0, -1, -2
1503610329227,-1, -2, -1, -1, -1, -1, -2, 1
1503610329250,-1, 2, 0, -1, -1, -1, -2, -2
1503610329272,-2, -6, -3, -1, 2, -1, -1, 0
1503610329287,-2, -1, -1, 0, 0, -1, 1, 0
1503610329310,5, 4, 1, -2, -2, 0, 1, 2
1503610329332,-4, -3, -2, -3, 0, 0, -2, -5
1503610329348,-1, 0, -1, 0, -1, 0, -1, -2
1503610329370,-1, -2, -3, 0, -2, -4, 4, -1
1503610329392,-2, -3, -2, -1, 1, -1, -3, -6
1503610329407,1, -2, -1, -1, -2, -1, -1, 4
1503610329430,1, 2, 2, 2, -1, 1, -1, 0
1503610329453,-1, -3, -8, -4, -1, -1, -1, 1
1503610329467,-10, -10, -2, 0, 0, 0, -3, -6
1503610329490,4, 2, 4, 1, 1, 0, 1, 4
1503610329512,-3, -1, -2, -1, -3, -1, -1, -3
1503610329527,-2, -5, -2, -2, 0, 1, 1, 5
1503610329550,2, -10, 3, -2, -1, -2, -1, -1
1503610329572,-5, 2, -1, -2, -3, -1, -3, -2
1503610329587,-1, 4, -2, -4, -4, -4, -2, -4
1503610329613,13, 36, 17, 4, -2, -3, 1, 6
1503610329632,7, -4, -1, -2, 0, 0, -2, 2
1503610329655,-19, -13, -13, -2, 3, 11, -5, -21
1503610329671,8, -23, 4, -1, -13, -18, -3, 6
1503610329692,-5, 6, 13, 3, 1, -1, 6, -2
1503610329719,-5, 1, -3, 1, -2, -1, 1, 6
1503610329730,3, -19, -14, -1, 9, 15, -2, -1
1503610329752,9, 24, -4, -3, -6, -9, 1, 7
1503610329775,-10, 11, 35, 11, 3, 11, 3, -3
1503610329790,-5, -19, -16, -5, -3, 1, 2, 4
1503610329815,34, 33, -4, -9, -10, 1, 4, 12
1503610329835,-13, -3, 27, 4, 1, -10, -8, -9
1503610329851,0, 16, -2, -5, -22, -25, -3, 0
1503610329872,-24, -11, -9, 8, 24, 12, -2, -5
1503610329895,11, -5, 50, 23, 9, 2, -2, -3
1503610329910,26, -9, -24, -6, 6, 3, -4, -2
1503610329932,-5, -10, -22, -6, -4, 0, -2, -5
1503610329954,9, -1, 11, -4, -10, -9, 0, 6
1503610329970,5, 15, 14, 17, 3, -25, -19, -9
1503610329992,25, -32, -43, -7, 31, 46, 35, 16
1503610330016,38, 33, 1, -3, 10, 7, -21, -69
1503610330022,-31, -8, 60, 14, -39, -15, 4, 14
1503610330044,33, 35, 12, 34, 56, 24, 29, 54
1503610330052,-35, -19, -10, -43, -109, -103, -18, 8
1503610330074,105, 70, 61, 22, 47, 52, -3, -11
1503610330083,127, 11, -48, 30, 79, 80, 85, 107
1503610330104,-104, 14, 37, 35, 83, 67, 30, 25
1503610330120,-84, -24, -22, -34, -49, 11, -61, -53
1503610330142,38, 44, 23, -21, -73, -18, 11, -16
1503610330164,86, 66, 54, 68, 127, 110, 45, 63
1503610330179,-18, -16, 22, -26, -29, -37, -95, -26
1503610330202,-61, 3, -27, -11, -50, -47, 35, -19
1503610330225,32, 17, -4, 37, 90, 87, 107, 49
1503610330239,-2, -26, -5, -29, -45, -49, -38, -30
1503610330262,-4, 29, 15, -7, -24, -20, 14, 20
1503610330285,31, 20, 7, -13, -27, -39, -15, 4
1503610330299,20, 67, 24, 1, 13, -6, -26, -32
1503610330322,52, -3, 12, 18, 31, 12, -10, 13
1503610330344,39, 8, 5, 6, 13, -5, -9, 6
1503610330359,5, 9, 20, 15, 8, 1, 0, -14
1503610330384,-5, 28, 10, 6, -14, -21, -18, -22
1503610330404,-49, -24, -8, -12, -7, -6, -9, -3
1503610330420,-15, -14, -3, 4, 8, -11, -26, 5
1503610330442,12, -10, -13, -3, -7, -6, 5, 6
1503610330464,41, 7, 5, -1, -6, 3, 13, 22
1503610330479,1, -8, -8, -8, -9, 0, 9, 12
1503610330502,-16, 3, 4, -17, -15, -16, 6, -8
1503610330526,-20, -17, -9, 3, 1, -4, -11, -11
1503610330539,3, -7, -8, -2, 4, 1, -5, 4
1503610330562,2, 0, -4, -2, -2, -3, -21, -8
1503610330587,2, 0, -2, 1, 6, 16, 30, 5
1503610330606,7, 15, 8, -5, -9, -5, -20, -15
1503610330622,-36, -27, -12, -5, -7, -14, 7, -15
1503610330644,-25, -10, 12, 2, 1, -1, -1, -3
1503610330666,7, 0, 6, 4, 3, -3, 0, -1
1503610330682,5, 5, -2, 1, -2, 3, 0, 4
1503610330704,16, -15, -1, 3, 0, -12, -2, 10
1503610330726,-1, -3, -5, -7, 0, 1, -1, 2
1503610330742,4, 5, -5, -1, -1, -1, -2, -1
1503610330764,-2, 4, -1, 0, 1, 3, 2, 13
1503610330788,-6, -1, -5, -6, -9, -4, -6, -3
1503610330802,2, 6, 2, 3, 2, 0, 0, -10
1503610330825,7, -3, 4, 5, 5, 1, -1, 15
1503610330846,4, -4, -5, -1, 0, 2, -1, -14
1503610330863,-3, -3, -1, 2, 3, 1, -2, -3
1503610330884,3, -4, -5, -1, -4, -7, -10, 3
1503610330906,-4, -2, -2, -3, -3, 1, 3, -4
1503610330922,7, 5, -4, -1, -1, -4, -4, -1
1503610330945,-11, -1, 4, -1, 1, 3, 14, -18
1503610330966,1, 0, -4, -6, -1, -6, -6, -1
1503610330982,18, 5, -1, -4, -3, 2, 9, 10
1503610331004,-18, 1, 1, -2, -2, -1, -30, -4
1503610331026,-29, -10, 0, 2, 3, 4, 8, -4
1503610331042,4, -1, 0, 2, 2, 1, 3, 8
1503610331064,-3, -8, -9, -7, 0, -2, 2, -5
1503610331086,15, 8, -4, -4, -7, 0, 2, 7
1503610331102,6, 19, 26, 6, 0, 0, 12, 4
1503610331124,7, -10, -10, 2, -4, -5, -4, 14
1503610331146,-7, -5, -2, 0, -2, -2, -3, -6
1503610331162,-1, 0, -2, -2, -1, 9, 4, 4
1503610331184,0, 6, 2, -3, -4, 1, 0, 9
1503610331206,4, 2, -3, -3, 3, -1, -2, -1
1503610331223,-1, 3, -1, -2, -2, 4, 6, 25
1503610331237,-16, -2, 1, 1, 2, -1, -2, -23
1503610331252,-9, -5, 3, 2, 1, -1, -6, -6
1503610331274,11, -3, -7, -1, -2, -5, -2, 5
1503610331297,19, 24, -9, -7, -2, 3, 3, 24
1503610331312,-7, 3, 4, -1, -3, -1, 3, 12
1503610331334,3, -2, -3, -12, -13, -3, -5, 2
1503610331358,19, -7, -3, -2, -2, 1, 4, 46
1503610331372,0, -18, -2, 0, 2, -2, 1, 1
1503610331394,0, 19, 22, 7, 4, 1, 4, -15
1503610331417,-13, -2, 5, 1, -2, -1, -1, -27
1503610331432,16, 24, 3, -1, -3, -5, -8, 8
1503610331446,1, -2, -1, -2, -1, -1, 2, 8
1503610331462,10, -4, -4, 0, -3, -1, -1, -8
1503610331484,-9, -7, 4, -1, 0, -1, 1, -2
1503610331506,-3, 9, -2, -5, -4, -1, -1, 1
1503610331529,10, 13, -2, 8, 2, 1, -3, -11
1503610331544,-29, -11, -8, -4, -3, -2, 1, -1
1503610331566,20, 10, 6, 0, -2, -2, 4, 11
1503610331589,14, -4, 0, 4, 3, 3, 0, -3
1503610331604,-23, -14, -5, -5, -3, -1, -3, -10
1503610331626,5, 1, 0, -2, -1, -1, 0, 2
1503610331648,-7, -18, 1, -4, 0, -1, 0, 0
1503610331671,15, 9, -4, -4, -4, 0, 3, 9
1503610331694,6, 12, -3, -10, -9, -2, -2, -2
1503610331709,-18, -11, -14, -9, -3, -3, -3, -7
1503610331724,5, 11, 1, 1, 2, 2, 2, 1
1503610331746,-6, -21, -8, 6, 6, 1, 0, 2
1503610331770,-5, -15, -12, -12, -8, -1, 0, 0
1503610331785,-8, -35, -31, -3, -1, -5, -6, -5
1503610331806,0, 35, 18, 1, -3, -3, -5, -7
1503610331829,-1, -37, 10, 2, 2, 0, 1, 7
1503610331844,16, 16, -1, 1, -1, -2, 1, 4
1503610331866,-20, -19, -15, -5, 0, 0, 0, 3
1503610331888,-1, 20, 26, 6, -2, 0, 0, -15
1503610331904,8, 10, 21, 7, 2, 2, -1, -1
1503610331929,-22, 9, -1, 0, -3, 1, 5, -1
1503610331950,3, 7, 4, 15, 22, 2, 2, 9
1503610331964,-15, 3, 6, -4, -10, -4, -2, -6
1503610331986,5, -7, -11, -5, -4, -4, 1, 11
1503610332009,3, 15, 5, 6, 4, -1, -11, -16
1503610332024,10, 2, -15, -5, -1, -2, -2, -2
1503610332046,2, 4, 6, -1, -5, 1, 1, -1
1503610332069,1, 13, 12, 1, 0, 0, -3, -9
1503610332084,8, 0, -5, -4, -1, 1, 0, 1
1503610332106,-9, -10, -4, -4, -3, -1, -4, -6
1503610332130,-14, -7, -3, 0, 4, 3, 6, 3
1503610332144,-15, -11, -6, 0, 0, 0, 1, -1
1503610332166,22, -2, -12, -8, -7, -2, -1, 6
1503610332188,-29, -22, -10, -7, -7, -7, -5, -10
1503610332206,6, 2, 5, 2, 3, 3, -4, 1
1503610332226,4, 6, 3, -6, -19, -1, 4, 4
1503610332249,2, 5, 2, 1, 1, -2, -2, 1
1503610332265,-1, -2, -4, 3, 6, 3, 5, 1
1503610332286,4, 5, 6, 1, 2, 1, 0, 3
1503610332309,1, -2, -1, 1, 1, -2, -8, -5
1503610332324,-2, 1, 1, 1, 4, 0, 2, 3
1503610332346,-3, -1, -3, 0, -4, -1, -2, -3
1503610332369,-2, -3, -2, -1, 1, -2, 4, 4
1503610332384,0, 0, 0, -1, -1, -3, -7, -5
1503610332407,2, 2, 6, 5, 2, 0, -1, -9
1503610332429,-2, -11, -12, -13, -6, -2, 0, 12
1503610332451,3, 4, 4, 3, 1, 1, 0, -1
1503610332467,-1, 2, 7, -1, 2, 0, 2, 1
1503610332489,1, -6, -19, -11, -5, -4, -4, 1
1503610332511,5, -9, -12, -2, -1, -2, -5, 3
1503610332520,0, 20, -2, -6, -2, -2, -2, -7
1503610332542,-6, -20, 1, 5, 0, -1, 1, -2
1503610332557,20, 10, -37, -4, -3, -2, -1, 3
1503610332579,-13, -13, -11, -10, -4, -2, -2, -6
1503610332602,17, 15, -16, -3, -3, -4, -4, -2
1503610332617,-5, -35, -6, -12, -2, -2, 0, 2
1503610332640,1, -7, -3, -10, -6, -4, -3, 4
1503610332662,-14, -5, 6, -14, -21, -5, -8, -11
1503610332677,-2, 4, 1, 4, -5, 0, 3, -1
1503610332701,3, 0, -17, 1, 10, 5, 4, 5
1503610332722,6, 12, 13, 5, -3, -2, 0, 0
1503610332740,-7, 13, 16, 11, 7, 3, 0, -5
1503610332760,21, 22, 15, 9, 9, 5, 7, 16
1503610332782,2, 10, 1, -8, -11, -6, -1, 5
1503610332797,-17, -11, 2, -3, -5, -2, -2, -8
1503610332820,-19, -11, -4, -5, 0, -3, -7, -9
1503610332842,-18, -9, -6, 3, 9, 2, 0, -9
1503610332857,-8, -18, 1, 4, 2, -1, -6, -13
1503610332879,0, -8, -8, 5, 6, -2, 0, 3
1503610332902,11, -14, -11, 15, 24, -1, -4, 0
1503610332917,-3, 5, 1, -18, -19, -8, -2, -1
1503610332940,-2, 12, 12, -3, -2, 3, 6, 0
1503610332961,2, 4, 3, -1, -3, 3, 4, 4
1503610332978,-3, -12, 7, 4, 0, 0, -3, 0
1503610332999,11, 5, -4, -6, 6, 4, 2, 0
1503610333022,3, 17, 6, 7, 3, -10, -8, -8
1503610333037,17, 5, 0, 0, -13, -4, -2, 6
1503610333059,2, 9, 7, 0, -2, -3, 0, 2
1503610333082,-13, -10, -9, -11, -14, 2, -4, -9
1503610333097,2, 7, -1, -4, -2, 1, 2, 1
1503610333119,3, -15, -15, 3, 4, 2, -5, -2
1503610333142,-6, 1, 11, 19, 9, 0, -14, -24
1503610333157,-8, -19, -46, -20, -8, -2, 4, 8
1503610333179,-1, -9, 2, -4, -1, -2, -3, 2
1503610333203,-7, -14, -7, -8, -2, 0, 4, 5
1503610333217,5, 12, -13, -1, -3, -3, -6, -1
1503610333241,10, 18, 21, 10, 4, -1, -3, 5
1503610333262,-2, 2, 0, 7, 0, 0, 12, 3
1503610333277,-23, 0, 12, 0, 2, -1, -5, -12
1503610333299,10, 14, 11, -5, -6, -1, 1, 3
1503610333322,-1, 2, 6, 1, 5, 2, -2, -1
1503610333340,-7, -17, -13, -20, -24, -5, -1, -3
1503610333359,13, 22, 54, 18, 7, 3, 7, 11
1503610333382,-1, -14, -20, -6, 2, -4, -4, -4
1503610333406,1, -16, -10, -1, 1, 0, -4, 0
1503610333420,-8, -5, -9, 0, 6, 3, -2, -7
1503610333442,0, 5, 1, 3, 1, 4, 5, -3
1503610333464,-17, 13, -5, -8, -12, -6, -1, 1
1503610333480,3, -5, -5, 3, 6, 0, 4, 1
1503610333502,10, -11, -11, -6, -5, -1, 4, 4
1503610333524,3, 3, 3, -2, 0, 1, 3, 6
1503610333541,-3, -5, -6, -11, -16, -4, -2, -14
1503610333562,5, 5, 7, 5, 9, 4, 6, 7
1503610333584,-11, -6, -2, 1, 3, -2, -4, -2
1503610333599,7, 6, 1, 0, 2, 5, 8, 5
1503610333622,-21, -4, 6, 8, 7, 2, 1, -6
1503610333644,-5, 0, -4, -1, 2, -3, -8, -6
1503610333660,-8, -4, -2, 8, 3, -4, -7, -17
1503610333683,-10, 5, 2, -6, -5, -6, -3, -2
1503610333704,23, 4, -2, 2, 3, 1, -5, 5
1503610333720,-4, 21, -3, -5, -2, -2, 0, 4
1503610333742,-6, 0, 9, 12, 5, 3, -5, -16
1503610333765,21, -9, -7, -5, -3, -2, -3, 5
1503610333779,19, -8, -4, -1, -2, -1, 1, 26
1503610333802,1, -8, -10, -8, -3, -3, -1, -4
1503610333824,-21, -12, -9, -4, 5, 1, 3, -7
1503610333839,10, 18, 28, 9, 6, 5, 3, -4
1503610333855,14, 2, -20, -5, -3, -2, 1, 9
1503610333870,-10, 2, 18, 27, 17, 2, 2, -6
1503610333892,-15, -19, -23, -19, -11, -3, -4, -1
1503610333915,24, 4, -5, -8, -3, 0, 5, -7
1503610333930,1, -2, -1, -2, -3, -3, 2, 9
1503610333953,10, 8, 1, -11, -5, 2, 3, 15
1503610333977,10, 4, -12, -9, -7, -4, -1, 2
1503610333990,-16, -11, -2, 0, 3, 2, -2, 2
1503610334012,3, -3, 0, 5, 3, 0, 0, 0
1503610334035,-20, -3, -4, -1, 5, -5, -4, -6
1503610334050,9, 9, 16, -1, -5, 0, 2, 5
1503610334072,-2, 10, 20, 4, 1, 1, -3, -5
1503610334095,4, -1, -4, -3, -4, 0, 1, 0
1503610334111,6, 0, 8, 2, 0, -2, 0, -1
1503610334132,-9, -8, -2, -3, -4, 0, -1, -3
1503610334155,16, -6, -17, -7, -4, -1, -2, 0
1503610334170,-5, -24, -12, -6, -6, -1, 0, 1
1503610334192,-16, -5, -6, -2, -3, -1, 0, -2
1503610334215,16, -13, -14, -3, -7, -5, -1, 2
1503610334230,-3, 2, 8, 5, 4, 0, 2, -2
1503610334253,-23, -5, 11, 9, 7, 4, 1, -13
1503610334275,11, 18, 0, -5, -4, -2, -3, 4
1503610334297,12, 5, -11, -7, -4, -4, -6, 2
1503610334313,1, 6, -3, 0, 0, -2, 0, -3
1503610334335,-22, -12, -6, -1, 0, -1, -4, -8
1503610334357,-9, -7, -6, -6, -7, -1, -6, -3
1503610334372,-3, 2, 0, -6, -2, 4, 8, 5
1503610334395,4, 32, 31, 18, 12, 1, 1, 0
1503610334417,-35, -19, -2, 7, 9, -1, -1, -15
1503610334432,-8, -3, -13, -8, -3, -6, -6, 0
1503610334456,18, -9, -11, -5, -9, -1, -1, 5
1503610334477,30, 14, 9, 2, 2, 2, 4, 10
1503610334499,13, 22, -1, -2, -4, 0, -4, 1
1503610334515,-17, 0, 0, 5, 12, -2, -4, -4
1503610334537,9, -9, -1, 1, 3, 1, -1, 2
1503610334552,13, -2, -3, -8, -14, -8, -20, -3
1503610334575,14, 14, 7, -3, 0, 2, -1, -2
1503610334603,-18, -16, -5, -14, -19, 0, 6, -1
1503610334618,-9, -5, -1, -5, -4, 0, -1, -3
1503610334635,-3, -2, -1, 13, 16, 0, 7, 1
1503610334657,-11, -1, 3, 7, 3, 2, -11, -16
1503610334672,4, 2, 1, 1, 1, 1, 2, 10
1503610334695,15, 1, -8, -5, -3, 1, 6, 16
1503610334702,32, 22, 3, 3, 0, 2, -1, 13
1503610334724,-12, -1, -3, -5, -3, -1, -14, -28
1503610334751,27, -11, -6, 0, 0, 5, 0, 10
1503610334763,-8, 0, -1, -1, 0, -1, -4, -10
1503610334784,-29, -18, 1, 3, 0, -1, -8, -27
1503610334807,12, 4, -8, -12, -11, -4, 7, 35
1503610334822,5, 0, -6, -1, 0, 1, 5, 10
1503610334837,-18, -5, -4, -2, 2, -2, 0, 2
1503610334852,-33, -21, -3, 2, 0, -4, -10, -28
1503610334875,3, -11, -18, -13, -11, -4, -5, -1
1503610334897,10, 9, -2, -4, -5, -4, -4, -9
1503610334912,9, 9, -4, 5, 3, 1, 2, -17
1503610334935,32, 23, 15, 3, 1, 0, 0, 15
1503610334957,-1, -2, 2, -9, -13, -1, 6, 9
1503610334972,5, 7, 16, 13, 7, 3, 0, 7
1503610334995,-8, -10, 2, 9, 6, 2, -1, -7
1503610335017,16, 2, 4, 1, 2, -3, 0, 6
1503610335032,-15, -9, -10, -4, -5, -3, -1, 6
1503610335055,-7, -3, -6, 2, 15, 3, -1, 9
1503610335077,-4, -33, -23, -8, -4, 1, -2, -19
1503610335092,-11, 7, -4, -6, -2, 3, 0, -3
1503610335107,0, -4, -4, 3, 2, -1, -2, -18
1503610335122,2, 12, 12, 6, 2, 4, 3, 3
1503610335145,2, -8, -8, -9, -9, -2, -2, -4
1503610335167,-13, -12, -11, 3, 8, 2, 3, 3
1503610335185,-8, 0, -5, -7, -3, -1, -3, 0
1503610335204,-9, 5, 2, -2, -5, -3, 4, 3
1503610335227,10, 11, 4, 2, 3, 4, 10, 18
1503610335248,64, 27, 1, -7, -9, -5, -3, 8
1503610335257,-13, 2, 0, 4, 5, 5, 1, -1
1503610335279,-5, -7, -6, -2, 3, 2, 7, 8
1503610335295,-2, 19, 7, -1, -1, 0, 0, 4
1503610335321,3, 1, -12, -13, -9, -5, 0, -7
1503610335339,-3, -8, -4, -2, 1, 0, 1, -1
1503610335356,-4, 1, 4, -4, 2, 3, -22, -12
1503610335369,10, 3, 18, -2, -7, 1, 5, 7
1503610335389,10, 8, -3, -4, -3, -3, -8, -15
1503610335407,-20, 1, 7, 2, 1, -2, 2, -7
1503610335430,-10, -15, -24, -9, -7, -4, -5, 5
1503610335444,7, -1, 0, 4, 6, 6, 2, 7
1503610335466,-10, 10, 15, 9, 6, -2, 2, 1
1503610335489,-14, -30, -16, -10, -9, -6, -5, 4
1503610335511,7, -1, 5, 7, 5, 4, 1, 2
1503610335521,1, -19, -8, -1, 1, -1, -5, -12
1503610335535,8, 15, 12, 6, 5, -1, 0, 8
1503610335557,-2, -3, -7, -6, -6, -7, -2, -5
1503610335579,-23, -4, -3, -1, 0, -2, -20, -14
1503610335596,-20, -25, 0, -3, -6, -2, -1, -9
1503610335617,15, 26, -3, 3, 5, 0, 0, 0
1503610335639,13, 9, 15, 5, 2, 4, 5, 32
1503610335647,-6, 4, 0, -5, -4, 1, 1, -7
1503610335668,11, -3, -5, 10, 4, 1, 1, -12
1503610335684,-11, -11, -15, -13, -11, -7, -5, 6
1503610335706,-26, 0, 3, 0, 1, 1, -1, -15
1503610335736,-1, -7, -9, 1, 0, 1, -1, 12
1503610335744,-4, -1, -3, -8, -2, -3, 0, 4
1503610335763,-2, 3, 4, 6, 2, -3, 5, -9
1503610335775,-24, 5, -15, -14, -11, -1, 0, 5
1503610335797,24, -15, -16, -10, -8, 3, 5, 3
1503610335819,-19, -11, 17, 12, 5, -3, -4, -1
1503610335835,17, 2, -6, 1, 4, -1, -4, 9
1503610335858,4, -6, -1, 0, 2, 0, 0, -10
1503610335879,1, 24, 20, 0, 0, -6, -2, -20
1503610335895,-12, -5, -9, -5, -7, -6, -6, 9
1503610335917,14, 1, -8, -6, 2, 4, 6, -6
1503610335939,-14, 2, -7, 4, 3, 1, -3, 6
1503610335960,-16, 1, 0, -3, -2, 0, 0, -1
1503610335976,-3, -17, -10, -2, -2, 2, 1, -4
1503610335999,1, -21, -9, -5, -5, -6, 2, 3
1503610336015,2, 16, 10, 4, 1, 2, 1, -4
1503610336037,14, -18, -12, -4, -4, 1, -1, 4
1503610336059,-16, -7, -4, 0, -2, 1, 1, -12
1503610336075,27, 7, 3, 2, 3, 0, -4, 0
1503610336098,-8, 4, 0, 2, 3, 5, 6, 2
1503610336119,-13, 3, 18, 7, 5, -2, -1, -7
1503610336135,2, -7, -8, -7, -5, -3, -2, -4
1503610336158,-1, 2, -3, -4, -3, 2, 0, -4
1503610336180,-9, -1, -4, -8, -5, 0, 12, -3
1503610336202,-9, -13, -8, -5, -6, -4, -6, 1
1503610336217,2, 18, 3, -1, 1, -2, -5, 1
1503610336239,-5, -5, -1, 0, -2, -2, -5, 3
1503610336262,2, 5, 5, -3, -6, 1, 1, -2
1503610336277,5, -4, -7, 1, 0, -4, -6, -1
1503610336299,4, 5, 6, 5, 1, -1, 0, 6
1503610336307,0, 6, 6, 2, 1, 0, -1, -5
1503610336330,-13, -4, 3, -1, 0, 1, -3, -1
1503610336351,4, 0, 1, -2, -1, 0, 0, 0
1503610336368,6, -4, -6, -7, -5, -4, 0, 8
1503610336389,-1, 2, -3, -4, -5, -3, 1, 5
1503610336411,4, 3, 2, 1, 1, 1, 0, -5
1503610336427,-7, -5, 1, 1, 1, 0, -2, -10
1503610336442,-2, 3, 7, 7, 3, -1, -3, 0
1503610336457,-2, -5, -5, -5, -4, -1, 15, 2
1503610336479,1, -2, -12, -9, 0, 0, -1, -5
1503610336503,6, -2, -6, -6, -6, -4, -6, 4
1503610336517,-2, -1, 3, 1, -2, -2, -3, -4
1503610336539,-2, -5, -5, -5, -4, -2, -1, -3
1503610336562,-28, -5, -1, 4, 5, -4, -30, -7
1503610336577,5, 0, 1, 0, -1, 2, 4, 0
1503610336600,-10, -7, -12, -24, -22, -10, -1, 6
1503610336622,7, -4, -2, -3, -6, -3, 6, 0
1503610336638,10, 4, 9, -2, -4, -1, -1, 0
1503610336661,6, 1, -3, -1, 3, 1, 0, 38
1503610336682,1, 4, 1, -2, 4, 4, 4, 109
1503610336697,-7, 16, 22, 20, 12, 7, 5, 8
1503610336719,3, -3, 15, 7, 3, 0, 0, -56
1503610336742,-6, 2, -4, 2, 7, 1, 0, -104
1503610336757,-1, -22, -11, 5, 0, -1, -6, -67
1503610336779,-2, -6, -9, -4, -6, -3, 0, -45
1503610336802,3, -7, -14, -6, -5, 1, -2, 42
1503610336818,9, 9, 3, 2, 1, -2, 0, 18
1503610336840,5, 12, 4, -3, -1, 0, 0, -7
1503610336864,-8, -10, 6, 3, 3, -1, -1, -8
1503610336877,-1, 12, 5, 0, -1, 0, -2, 3
1503610336900,2, -31, -20, -2, 1, 0, 1, 20
1503610336922,-10, -1, -1, 0, 2, -1, -8, -2
1503610336938,0, 2, -1, 0, -1, -2, 1, 0
1503610336959,-2, 7, 4, -2, -1, -1, 0, 2
1503610336982,6, -7, -4, 2, -1, -2, -2, -7
1503610336998,15, 30, 13, -1, -1, 0, -1, 6
1503610337019,-19, -17, -11, -9, 1, -1, 0, -2
1503610337042,4, 6, -3, -1, -5, -2, -2, -1
1503610337057,2, -16, -10, -3, 1, -2, 2, 4
1503610337079,-15, 9, -2, 5, 4, 0, -2, -4
1503610337102,6, -1, 1, -2, -3, -1, 0, 0
1503610337124,-21, -4, 7, -1, -3, -2, 1, -2
1503610337140,6, -1, 5, 6, 1, -1, -1, 3
1503610337162,0, -14, 1, 2, 0, -1, 0, 5
1503610337184,3, 3, -5, -6, -3, -1, 2, -3
1503610337200,11, 51, 22, 3, 4, 2, 1, -1
1503610337223,4, -12, -11, 0, -1, -2, -2, -2
1503610337244,8, -11, 1, 2, 0, 1, 1, 4
1503610337259,-17, -2, -4, -4, -3, -1, 0, -5
1503610337282,-7, -10, -6, -4, -6, 0, -1, 2
1503610337305,-1, -9, -6, -5, -6, -4, -7, -5
1503610337319,7, 3, 1, 3, 5, 1, 1, 1
1503610337342,-6, -8, -8, -3, -1, -4, -4, -6
1503610337367,-4, -6, 13, 5, 5, 1, 1, 1
1503610337379,7, 4, -5, -3, -1, -2, -2, 2
1503610337402,5, 8, 2, -1, 0, 1, 2, 2
1503610337424,2, -7, -7, -3, 1, -2, -2, 0
1503610337443,-10, -10, -6, -2, -5, -1, 0, 0
1503610337461,6, -3, -3, 0, 1, 1, 0, 1
1503610337471,0, -16, -1, 0, 2, -1, 1, 4
1503610337491,0, 3, 1, -1, -3, -2, -2, 0
1503610337514,-7, -4, -2, 0, 2, -1, -3, -4
1503610337530,12, 2, 2, 0, -2, 0, 0, 4
1503610337551,5, -2, -6, -1, -1, 0, 1, 0
1503610337574,5, 28, 5, 0, -4, -2, 1, 8
1503610337589,-7, -13, -10, -7, -3, -3, 0, 1
1503610337605,7, 22, 4, -4, -3, 0, 2, 7
1503610337620,-2, -3, -7, 0, -1, 0, -1, -1
1503610337643,18, 4, -4, -4, -3, -3, -1, 1
1503610337664,4, 14, 9, 3, 2, -1, -1, 4
1503610337679,8, 4, -9, -2, 1, 2, 1, -1
1503610337703,-12, -14, -2, -4, -6, -6, -3, -5
1503610337724,-21, -16, -4, 2, 0, -4, -8, -21
1503610337740,-12, 1, -8, -4, -5, 0, 1, 7
1503610337764,13, 16, 5, -3, 0, -2, -1, 0
1503610337784,-8, -6, -7, -4, -4, -1, -5, -6
1503610337799,-3, -11, 2, -1, 0, -1, 1, 0
1503610337822,-3, -1, 5, 6, 2, 1, 0, -2
1503610337845,-7, -7, 14, 5, 1, -1, -4, -2
1503610337866,1, 15, 11, 4, 2, 1, 3, 9
1503610337882,7, -9, -13, -10, -3, -1, 1, 1
1503610337906,-4, -5, -11, -7, 2, 0, 2, -5
1503610337927,1, -12, -3, 2, 1, 0, -3, -4
1503610337942,9, 3, -1, -3, -3, 0, 2, 12
1503610337964,4, 4, 6, 4, -1, 0, -6, -19
1503610337979,0, 6, 2, 0, -1, -1, 1, 8
1503610338005,-3, 7, 3, 7, 1, -1, -2, 2
1503610338024,7, 6, 6, -1, 2, 1, -2, 1
1503610338047,-9, -1, 15, 6, 3, 2, -1, -7
1503610338063,-9, -4, -15, -2, 0, 1, 2, 2
1503610338084,-7, -3, 1, 0, -3, -3, -4, -9
1503610338107,-5, -4, -6, -5, 0, 0, 3, 12
1503610338122,-4, -9, -7, -4, 1, -3, -4, -2
1503610338145,0, -10, -12, -10, -7, -5, -3, -4
1503610338167,-23, -4, 15, 6, 2, 2, -1, 2
1503610338178,6, 2, -7, -4, -3, -3, -3, -7
1503610338197,-3, -2, 10, 2, 0, 0, 2, 5
1503610338212,-14, -1, -4, -1, -1, -2, -1, -13
1503610338235,0, -5, -10, -5, -4, 2, 3, 0
1503610338257,-4, 8, 7, 3, 0, -1, 0, -1
1503610338279,-4, -20, -8, -1, -1, -3, 2, 17
1503610338295,9, 13, 5, -3, 1, 0, 1, 4
1503610338317,-7, -10, -12, -6, -4, -2, -4, -5
1503610338341,8, 7, -1, 0, -1, -2, -5, -8
1503610338355,-30, -3, 2, 2, 1, -3, -8, -18
1503610338380,1, -1, -4, 1, -2, -1, 0, 0
1503610338392,-4, 3, -12, -6, -3, -2, -1, 2
1503610338416,6, 1, 7, 2, 2, -1, 2, 2
1503610338440,3, 1, 10, 1, 0, -2, -1, -2
1503610338452,-1, -3, 4, 6, 2, 1, -2, -5
1503610338476,11, 12, -1, -1, 1, 1, -1, 5
1503610338497,-12, -7, -2, -4, -3, -1, -1, -4
1503610338516,2, -2, 6, 5, 1, 0, 2, 5
1503610338535,2, -20, -9, -6, -3, -3, 0, -1
1503610338543,14, 9, 3, 2, 0, 1, -1, 2
1503610338564,-12, -20, -16, -8, -3, -1, -5, -11
1503610338587,5, -11, 4, -3, -1, -2, 1, 6
1503610338602,5, -1, -12, -1, -1, -1, -1, 0
1503610338624,-11, -5, -5, -1, -3, 0, -1, -1
1503610338647,-11, -5, 10, 1, -1, -2, -4, -3
1503610338661,-2, 22, 21, 11, 6, 0, -1, -3
1503610338677,11, 7, 2, 2, 0, -1, 1, 10
1503610338685,2, 9, 4, 2, 0, -2, -7, -15
1503610338707,-3, 0, 0, 0, -3, -1, 1, 9
1503610338722,25, 18, 3, -1, 1, 0, 1, 7
1503610338745,-27, -32, -24, -7, -3, -2, 0, -3
1503610338767,-1, -13, -7, -2, 0, -2, 0, -2
1503610338782,-6, 4, 4, 1, -1, -1, 2, 2
1503610338806,15, 10, 13, 1, 2, 1, 0, 12
1503610338821,-11, -21, -19, -14, -8, -2, 2, 0
1503610338835,-3, 40, 15, 5, 0, 0, 0, 0
1503610338857,-11, -17, -9, -1, -1, 1, 4, 5
1503610338880,0, 10, 13, 3, 0, 0, 0, -4
1503610338895,2, -4, -1, -3, -1, -2, -2, -5
1503610338917,-11, -16, -7, -7, -4, -1, -2, -1
1503610338941,3, -4, -6, -1, 1, -2, -2, 4
1503610338961,-12, -3, 0, 0, 0, 0, -3, -13
1503610338969,17, 27, 9, 3, 2, 1, 0, -3
1503610338985,-8, -10, -9, -4, -5, -3, -2, -8
1503610339007,-10, -4, 2, 0, -2, 0, 0, -1
1503610339029,-11, 0, 6, 5, 0, 0, -1, -6
1503610339045,2, 3, 11, 4, 2, 0, -1, 2
1503610339066,0, -7, -12, -7, -4, -1, -1, 0
1503610339089,0, -17, -15, -6, -3, -2, 0, 0
1503610339104,-4, -4, -12, -7, -1, -1, -2, 0
1503610339127,-3, -7, -4, 0, 0, -2, -5, -6
1503610339149,0, -3, 5, 2, 0, -1, 2, 6
1503610339164,4, -7, -11, 2, 2, 0, -1, 4
1503610339188,6, 22, -15, -6, -6, -4, -4, -4
1503610339196,-7, 5, -2, 0, 1, -1, 2, -2
1503610339218,-5, 2, 24, 7, 1, 2, 0, 1
1503610339240,-17, -39, -24, -3, -2, 0, -1, -5
1503610339256,2, -16, -13, -3, -2, -2, 0, -4
1503610339280,-11, 4, 5, 1, 1, 0, 0, 3
1503610339300,9, 13, 6, 11, 13, 3, 1, 1
1503610339316,-6, -9, -11, -7, -4, -2, -2, -2
1503610339344,-9, -8, -2, -8, -7, -3, -3, -1
1503610339359,13, -3, -7, 0, -1, 1, -1, 0
1503610339366,3, 26, 11, 5, 2, 0, 1, -1
1503610339389,4, 22, 2, -3, -2, 0, -2, -6
1503610339403,4, 3, -4, -6, -8, -2, -3, -8
1503610339405,4, 12, 10, 6, 3, 2, -3, 0
1503610339427,-2, 3, 7, 1, 0, -1, -2, -5
1503610339449,-10, 1, 1, 3, -2, -8, -11, -9
1503610339464,3, -9, -15, -12, -5, 0, 2, 9
1503610339487,10, 17, 7, 1, 2, 3, 4, -8
1503610339509,2, 44, 33, 3, 3, 0, -6, -20
1503610339524,-18, -31, -16, -4, -3, -1, 3, 7
1503610339550,-2, 12, 3, 2, 5, 0, 0, -7
1503610339569,3, -6, 4, 0, -1, 1, 3, -1
1503610339584,8, 9, 12, 1, 0, -1, 0, 16
1503610339607,-18, -12, -21, -7, -4, 0, -3, -3
1503610339629,7, -5, -2, -4, -6, -5, -1, -1
1503610339644,5, -2, -4, 0, 1, 0, -3, -2
1503610339666,1, -1, 5, 3, 4, 1, 0, -2
1503610339689,7, 12, -4, 5, 3, 1, -2, -2
1503610339704,0, 0, 0, 5, 5, 2, 1, 9
1503610339727,4, -3, -6, -5, -1, 2, -1, 7
1503610339750,-3, -2, -10, -10, -14, -3, 2, -7
1503610339765,-10, -13, 3, 4, 3, 0, 1, 6
1503610339787,-21, -14, -6, -4, -4, -3, 3, -14
1503610339809,19, 9, 4, -2, -2, -3, -5, -10
1503610339824,-18, -26, -6, -1, 0, -3, -4, 2
1503610339847,5, -1, -4, -2, -3, -4, -5, 0
1503610339869,11, 4, -2, -6, 2, 1, 3, 4
1503610339892,-11, -7, -13, -8, -3, -2, 0, 0
1503610339907,-27, -11, -4, 2, -1, -1, -5, -19
1503610339929,6, 4, 5, 4, 3, -1, 1, 7
1503610339952,-13, 1, 13, 1, 1, 1, -1, -12
1503610339967,5, 17, 12, 8, 0, 1, 1, 8
1503610339990,7, 11, 10, 4, 0, 0, 0, 5
1503610340012,-3, 2, 6, 5, 6, 1, 1, 6
1503610340027,20, 1, -13, -7, -2, 2, 0, 2
1503610340042,0, -3, -8, 5, 2, 4, 0, 4
1503610340057,5, 5, -7, -5, -3, -3, -4, 6
1503610340080,4, -36, -3, -2, 2, -1, -1, -18
1503610340101,4, 21, 7, 1, 2, 4, -1, 4
1503610340109,7, 2, -1, -4, -1, -2, 1, -4
1503610340132,-20, -23, 8, 6, 0, -3, -7, -16
1503610340146,-1, -20, -30, -12, -4, -4, -4, -3
1503610340162,1, 13, 19, 11, 5, 1, 1, 0
1503610340177,5, 24, 3, 1, 0, 0, -1, 3
1503610340200,1, -9, -9, -5, 0, -2, -11, -10
1503610340222,-12, -33, -8, -4, -3, 0, 1, 4
1503610340237,-13, 4, -3, -6, -6, -3, 2, -6
1503610340260,1, 5, -5, -4, -9, -1, -1, 1
1503610340282,6, -4, 8, 3, -3, -1, -3, -10
1503610340298,9, 7, -2, -5, 4, 2, 3, 12
1503610340322,0, 14, 7, -2, -6, -4, -7, -15
1503610340327,9, -1, -4, 1, 2, 0, 1, 12
1503610340350,1, 18, -5, -7, -4, -1, 1, 5
1503610340372,2, 2, 2, 1, 3, 2, 0, 2
1503610340388,5, -4, -13, -12, -8, -4, -2, -3
1503610340409,0, 6, 2, 0, 7, -3, -2, -4
1503610340432,15, 26, 43, 15, 0, 4, 4, 6
1503610340447,-6, -11, -30, -13, -7, -5, -6, -16
1503610340469,-5, -10, -10, 4, 3, 1, -2, -5
1503610340492,-7, -8, 2, 1, -2, -2, -2, 0
1503610340507,-1, -4, -11, -11, -6, -1, 0, -2
1503610340531,-27, -22, -6, -4, -10, -8, -8, -13
1503610340552,6, -1, 1, -9, -12, 2, 8, 14
1503610340561,-16, -8, -11, -3, 0, 0, 2, 7
1503610340581,37, 15, 7, 0, -1, 0, 2, 23
1503610340598,-19, 7, 11, 6, 2, 2, -2, -11
1503610340627,-6, -2, 2, -11, -2, -3, -6, -16
1503610340642,-11, -14, -1, 5, -4, -4, 0, -1
1503610340658,-13, -29, -7, -1, -2, -2, -5, -4
1503610340679,-8, 5, 7, -2, 0, 0, -2, -19
1503610340686,-8, -2, 5, -2, 7, 1, -4, -8
1503610340709,-7, 2, -6, -5, -4, -3, 3, 7
1503610340732,-11, -4, 10, 9, 2, 1, 3, 4
1503610340746,-6, 7, -6, -6, -3, -1, -2, -24
1503610340769,0, 11, 6, 3, 1, -3, -3, -18
1503610340792,16, -6, -12, -2, -3, 0, 2, 13
1503610340806,-10, -5, -15, -9, -5, -1, -1, -6
1503610340823,-2, 20, 21, 6, 3, -2, -7, -11
1503610340844,-5, -3, 7, 5, 4, 0, 5, 5
1503610340867,0, -8, -12, -9, -5, -3, 1, 11
1503610340882,2, -3, 1, -2, 4, 1, 3, 8
1503610340890,14, 6, 4, 4, 2, -1, -3, 1
1503610340912,8, 0, 14, 8, 1, 0, 2, 3
1503610340934,-3, -9, -10, -5, -6, -4, -8, -17
1503610340949,-5, -4, 3, 0, 0, 0, 2, 3
1503610340971,4, 3, 11, 3, 1, 0, -2, 0
1503610340993,-3, -17, -20, -10, -5, -4, -2, 2
1503610341009,7, 0, -2, 0, 1, -1, -3, -5
1503610341032,16, 27, 2, -2, -2, -2, -2, -7
1503610341053,-12, -12, -3, 1, -1, -2, -3, -2
1503610341069,4, -6, 4, 3, -1, 0, 1, 20
1503610341093,-7, 2, 8, 3, -2, 1, -2, -6
1503610341114,8, 9, 9, 6, 3, 1, -2, -8
1503610341129,-12, 18, 4, 1, 0, 0, 4, 4
1503610341152,-7, -19, -22, -12, -6, -3, -2, 4
1503610341173,0, 25, 19, 0, -1, -2, 1, -1
1503610341189,0, -11, -15, -5, -2, 0, 1, -5
1503610341211,5, 6, 3, 0, 2, 2, 3, 6
1503610341234,7, -13, -3, -5, -3, 1, 1, 2
1503610341249,-2, 4, -5, 4, 0, -1, -2, -5
1503610341271,5, 4, 6, 1, 0, 0, 3, 4
1503610341282,-2, -3, -18, -3, 4, -2, -1, -1
1503610341296,-2, 4, 4, 4, 1, -1, -2, -3
1503610341309,8, 17, 8, 5, 5, 1, 1, 2
1503610341332,-3, -10, -5, 0, 1, -2, 0, -2
1503610341354,-3, -3, -10, -13, -7, -4, -5, -8
1503610341370,2, 3, 10, 6, 2, -2, -1, 0
1503610341391,3, 6, -2, -3, -2, -3, 1, 8
1503610341400,3, 1, -4, -3, 1, -2, 2, 3
1503610341422,-6, 13, 4, -5, 0, 0, 2, 3
1503610341430,-2, 8, 1, -2, -3, -1, -3, -5
1503610341452,1, -2, 0, 2, 3, -2, -2, 1
1503610341473,-3, -11, -20, -6, 3, -1, 0, -1
1503610341489,0, -2, -1, 0, -2, 1, -4, 1
1503610341511,6, 12, 2, -6, 2, 1, -1, -2
1503610341533,-17, 4, 4, 3, -5, -2, -5, -7
1503610341549,5, -10, -7, -1, -1, -2, 0, -2
1503610341571,1, -4, -3, -2, 3, 1, 2, 1
1503610341593,0, -3, 8, 1, 1, -3, 0, 1
1503610341609,-4, 7, 1, -2, -3, 0, 1, -2
1503610341632,2, -4, 1, -1, -5, 0, -1, 0
1503610341653,0, 2, 2, 0, 2, 0, -1, 1
1503610341669,-1, -4, -9, -3, 4, 0, 3, 1
1503610341691,1, 1, -2, -1, -3, -2, -2, -1
1503610341713,-7, -8, -9, -1, -2, -3, -4, -4
1503610341730,11, -2, -24, -12, -7, -5, -1, -1
1503610341751,-3, 20, 4, 0, 0, 0, 1, 0
1503610341774,-1, -9, 7, 3, 1, -1, -1, 3
1503610341798,33, 8, 14, 8, 1, 3, 4, 10
1503610341812,-10, -1, 4, 0, -1, 1, 1, 0
1503610341834,-8, 27, 23, 6, 1, 0, 0, 0
1503610341856,-4, 10, 4, 1, -2, 0, -3, -5
1503610341873,-1, -6, 19, 7, 3, 0, 0, -1
1503610341894,-1, -14, -26, -13, -3, -4, -5, -7
1503610341916,2, -2, -2, -2, -5, 0, 5, 15
1503610341932,-5, -8, -7, -4, -2, -1, -1, -5
1503610341947,12, 7, 7, 2, -1, -1, -3, -8
1503610341961,0, 4, 2, -4, 2, 0, -1, -4
1503610341984,-2, -14, -35, -19, -13, -5, -2, 3
1503610342007,-6, -2, -1, -3, -2, -1, 3, 3
1503610342022,-19, -4, -1, -4, -4, 0, 0, 3
1503610342044,-10, -8, -5, 2, -4, -1, -1, -6
1503610342071,-12, -8, 7, 5, -1, 0, -2, -2
1503610342081,14, 6, -4, -2, 2, -2, -3, -1
1503610342104,-6, -15, -6, -3, -2, -2, -3, -4
1503610342126,9, 5, 9, 2, 1, 1, 0, 1
1503610342142,11, 3, -4, -10, -2, 0, 0, 6
1503610342167,-5, 4, 3, -3, -4, 1, 2, 3
1503610342186,4, 9, 17, 12, 6, 1, 3, -5
1503610342204,6, 3, -6, -4, 0, -2, -3, -8
1503610342224,-9, 0, 10, 8, 4, 1, -1, 3
1503610342246,1, 12, -3, -2, -1, 0, -2, -1
1503610342262,0, -10, -19, -4, -3, -4, -1, 2
1503610342284,1, 0, 1, 2, -2, 0, 1, 5
1503610342307,-2, -13, -13, -7, -4, -2, -5, 1
1503610342321,0, 2, 2, 3, -1, -2, 2, -1
1503610342345,-9, -15, 1, 1, -1, -1, -1, -1
1503610342370,-3, 6, 3, 1, -1, 0, -2, -4
1503610342381,-2, -2, -3, -3, 1, 0, -1, -6
1503610342404,4, -8, 10, 7, 0, 0, -2, 1
1503610342412,-2, -4, 5, 6, 0, -1, -3, -7
1503610342442,-10, 22, 7, 1, 1, -1, 0, -1
1503610342464,3, 8, 3, 2, 3, 1, 2, 0
1503610342486,-2, -1, 6, -1, 1, 1, 1, 0
1503610342503,1, 3, -8, -3, -4, -2, -1, -5
1503610342524,4, -5, -7, -1, -2, -1, -3, -3
1503610342547,-4, -7, -2, 0, -1, -3, -1, -2
1503610342562,0, 4, 2, -1, 1, 0, 0, 1
1503610342584,1, 2, -3, -3, -3, 0, -1, 1
1503610342607,-3, 2, 1, 1, 2, -1, 0, -3
1503610342622,7, -17, -12, -4, -3, 0, -1, -1
1503610342638,-8, -9, 3, -1, -4, -1, 2, -2
1503610342651,1, -1, -3, 1, -1, 0, -1, -3
1503610342674,-6, -4, -5, -3, -4, -1, -2, 1
1503610342696,-1, -2, -4, -3, -1, -2, 0, -2
1503610342718,7, 12, 15, 12, 3, 3, 2, 0
1503610342734,-3, 2, -9, -3, 3, -2, -2, -2
1503610342756,3, 2, -3, -4, 0, 1, 0, -1
1503610342779,0, -4, -3, -4, -7, 0, -1, -1
1503610342794,-5, -3, 2, 3, -5, -3, -1, -2
1503610342816,1, -5, 0, 1, 1, -2, 0, -3
1503610342839,-2, -6, -10, -5, -2, -2, -2, 3
1503610342854,-2, -2, 1, -1, 0, -1, -2, -2
1503610342876,0, 19, 4, -1, -2, -3, -2, -4
1503610342898,2, -3, -4, -2, -2, 0, -1, -4
1503610342914,6, 13, 15, 4, 1, 0, 0, -7
1503610342936,-4, -7, -8, -4, -1, 1, -2, 2
1503610342958,-7, -6, 1, -2, 0, -2, -2, -3
1503610342975,4, 15, 9, 2, -2, 1, -2, -1
1503610342996,-2, -10, -10, -7, -1, -2, 1, 0
1503610343018,-3, -10, -8, -2, -4, -2, 0, 2
1503610343036,-6, 1, 6, 1, -1, -1, 1, 6
1503610343056,1, -6, -5, -3, -3, 0, 0, -5
1503610343079,3, 3, 5, 10, 1, 2, 0, 2
1503610343094,6, -3, -4, -4, 0, -2, -1, 0
1503610343116,-1, -1, 3, 1, 1, 0, 1, -6
1503610343141,0, 2, 4, 1, 2, 0, 0, 2
1503610343154,-3, -4, -3, -2, -3, -3, -2, 2
1503610343191,-3, -11, -10, -3, -3, -3, -2, -2
1503610343208,2, 5, 3, 3, 6, 1, 1, -6
1503610343229,-6, -8, -8, -6, -4, 1, -4, 21
1503610343244,-4, 3, 9, 3, 2, 3, 0, -18
1503610343266,1, 1, -8, -8, -7, -4, -1, 8
1503610343289,6, 6, 3, 3, 1, 0, 0, -9
1503610343296,0, -2, -5, -5, -2, -1, -1, 10
1503610343318,0, -1, 4, -2, -1, -2, 4, 1
1503610343326,7, 1, -2, -2, 0, 0, 0, -6
1503610343350,2, 0, 1, 2, 3, 0, 0, -7
1503610343364,3, 8, 18, 9, 3, -2, -4, -12
1503610343386,-9, 1, 2, 1, -1, -1, 0, 2
1503610343409,-3, -3, 2, -2, -2, -2, -2, -1
1503610343424,-6, -4, -7, -2, -1, -3, 1, 6
1503610343447,-2, 1, -3, -2, -2, 1, 0, 3
1503610343469,-3, -16, -8, -3, 0, -1, 0, 5
1503610343484,-21, -36, -4, -2, -1, 2, 1, 4
1503610343506,13, 8, -5, -1, 0, -1, 0, -3
1503610343529,-15, -2, -2, -1, 2, 0, -3, -2
1503610343544,-1, 0, -1, -3, -4, -1, -4, -11
1503610343566,11, 4, -2, 0, 1, -1, -3, -2
1503610343589,4, -4, 1, 0, 0, -2, 3, 12
1503610343604,7, 16, 1, 0, -1, 0, 0, -2
1503610343626,-11, -18, -3, 4, -2, 0, 0, -4
1503610343649,-7, -3, -7, -6, -4, -2, -1, -3
1503610343672,15, 19, 9, 6, 1, -1, 0, 0
1503610343687,19, 0, -1, 0, 1, -2, -1, 2
1503610343711,-7, 2, -1, -2, -2, -1, -5, -6
1503610343731,-2, -6, -12, -5, -4, -2, 0, 2
1503610343755,-11, -14, -6, -1, -1, -1, 0, -7
1503610343769,-4, 19, 1, -2, -2, -1, -2, -1
1503610343792,11, 16, 17, 0, -3, -1, 0, 0
1503610343815,-7, 9, -4, -1, 1, -1, 1, 0
1503610343829,8, -2, 6, 6, 5, 3, 7, 6
1503610343851,-15, -5, -9, -9, -5, 0, -3, -1
1503610343866,-11, -21, -9, 1, 2, -1, 0, 2
1503610343882,1, 0, -12, -7, -3, -1, -4, -3
1503610343897,7, 9, -10, -9, -2, 0, 3, 10
1503610343921,-7, 1, 1, -4, -8, -1, 1, 3
1503610343943,5, -1, -6, -1, -1, 0, 1, -1
1503610343950,0, -11, 1, -4, -4, -1, -1, 1
1503610343972,-11, -6, -5, 1, 0, -2, 0, -2
1503610343986,0, -6, -2, 1, 0, 2, 4, 5
1503610344009,5, 4, -4, -7, -3, -1, 1, 2
1503610344031,4, 3, 1, -3, 0, -1, -2, -1
1503610344047,14, -11, 7, 5, 0, 0, -6, -4
1503610344069,-5, 6, -1, -4, -2, 1, -2, -17
1503610344091,-6, 2, 0, 10, 15, 3, 1, 3
1503610344106,-3, -11, -11, -9, -9, -4, -1, 3
1503610344129,-3, 17, 8, 5, 2, -1, -7, -1
1503610344152,-10, -17, -4, 0, 2, -1, 2, -1
1503610344166,7, 4, 2, 6, 4, 0, -4, 4
1503610344189,12, 8, 1, -5, -8, -2, 0, 4
1503610344214,-6, -13, -9, -4, 0, -1, -3, -5
1503610344226,-7, -2, 0, 0, 0, -1, -2, -1
1503610344249,8, -2, -23, -13, -15, -6, -4, -16
1503610344271,-15, 21, -6, -1, 0, -3, -9, -20
1503610344287,17, 13, -9, -4, -2, -1, 2, 9
1503610344309,3, 2, 9, 3, 3, 1, -4, 7
1503610344331,1, 10, 3, 0, -2, 1, -6, -9
1503610344339,-8, -13, -9, -4, -3, -4, -5, -8
1503610344362,-17, -23, -15, -7, -3, 1, 9, 4
1503610344384,-19, -16, -15, -2, -8, -2, -2, 1
1503610344400,6, -8, -10, -4, 0, -2, -3, 1
1503610344422,2, -28, -14, -3, -1, 1, -7, -14
1503610344444,-16, -12, 11, 6, 0, -2, -2, -10
1503610344460,-11, -16, -11, -1, 2, 0, 2, 12
1503610344484,8, -21, -29, -9, -2, 0, 2, 13
1503610344504,9, 22, 8, 3, 2, -1, -5, 2
1503610344520,-1, 2, 6, 4, 3, 4, 4, 9
1503610344542,-2, 3, -1, -2, -1, -1, -3, -10
1503610344564,-5, 5, -1, -2, 1, -2, -1, -6
1503610344579,0, 1, -1, -4, 0, -1, -2, -4
1503610344602,10, 16, 5, 0, 2, 4, 4, 8
1503610344631,9, -7, -8, -3, -5, 1, 8, 15
1503610344639,1, 4, 8, 15, 16, 0, 17, 16
1503610344662,-11, -5, -9, -10, -14, -12, -6, -13
1503610344685,-3, 4, 9, 5, 4, 3, -12, -15
1503610344700,-2, 0, -4, -6, -7, 0, -8, -20
1503610344723,-5, 14, 1, 2, -1, -3, -6, -3
1503610344744,29, -11, -8, -5, -3, -1, -4, 12
1503610344752,6, -6, 5, 7, 6, 5, -1, -8
1503610344774,-15, -19, -9, -5, -9, -4, 15, 16
1503610344789,5, -18, 0, 2, 2, 1, -1, 11
1503610344811,-8, -5, -5, 2, 2, 2, 3, -1
1503610344834,2, 5, -3, -2, -3, -3, -8, -14
1503610344849,-10, 3, 3, -3, -3, 0, 5, 1
1503610344871,-12, 9, 2, 3, 2, -3, 0, 10
1503610344895,18, 3, 1, -1, -3, 2, 7, 32
1503610344909,-21, -1, -2, -1, 1, 3, 5, 9
1503610344931,1, -6, -2, 0, -1, -2, -11, -6
1503610344954,-19, -12, 0, 1, 0, -1, -1, -15
1503610344969,12, -10, 3, 3, 3, 2, -3, -8
1503610344992,22, 57, 42, 8, 1, -1, -5, -10
1503610345015,-9, 11, -10, 0, 2, 2, 4, -12
1503610345030,9, -49, -34, -13, -6, -3, -2, 26
1503610345054,6, 13, 12, 9, 3, 0, -4, -10
1503610345074,-15, -8, -23, -9, -2, 1, 4, 16
1503610345089,16, 18, -1, 0, -1, 1, 9, 28
1503610345111,-13, -5, 2, -2, -2, -2, 0, -19
1503610345134,-16, 17, 5, -2, -4, -4, -7, -13
1503610345149,16, -4, -3, -3, -3, 0, 9, 10
1503610345171,13, 10, 9, 0, -2, -3, -10, -10
1503610345194,-2, -2, 0, -3, -3, -5, -9, -15
1503610345209,10, -25, -10, -1, 3, 1, -3, -1
1503610345231,-14, 8, 2, -1, -3, -3, -6, -4
1503610345257,25, -3, -15, -6, -5, -5, -6, 6
1503610345269,-33, -21, 3, 4, 3, 6, 29, 9
1503610345291,-6, -9, -3, 1, 0, 0, -6, 3
1503610345314,8, 2, -3, -10, -1, -1, 0, 3
1503610345322,-14, -16, -3, 1, 1, 0, -1, 4
1503610345344,-9, -23, -9, 1, 1, -4, -5, 4
1503610345361,4, 28, 14, -1, -4, -1, -3, -6
1503610345382,10, -3, -1, -3, -3, 0, 4, 5
1503610345404,-4, -11, -3, -1, -2, -3, -5, -13
1503610345419,5, 12, -8, -4, -8, -4, -2, 2
1503610345442,4, 10, 16, 10, 6, 5, 1, 7
1503610345464,4, -2, -11, -9, -4, -6, -10, -6
1503610345486,7, -2, 1, -6, -3, 0, -3, -4
1503610345502,-12, -9, 0, 1, -2, 3, 14, 4
1503610345524,11, 17, 4, -1, 3, 1, -4, -2
1503610345532,-17, -19, -6, 0, -3, -3, -10, -12
1503610345554,-12, -26, -23, -7, -1, -5, -6, -3
1503610345576,-1, 9, -1, 1, -3, -5, -2, -14
1503610345592,-9, 6, 10, 3, 1, 2, 5, 5
1503610345614,-7, -18, 10, 14, 4, 4, 0, 0
1503610345636,21, 33, 14, 3, 1, 0, 0, 25
1503610345651,4, -32, -17, -8, -5, -6, 1, 18
1503610345674,-6, -10, -3, -2, -3, -3, -6, -13
1503610345697,14, 21, 0, -2, 4, 6, 6, 2
1503610345711,-8, -8, -2, -3, -2, -1, -7, 3
1503610345742,3, 0, 0, 0, -4, -3, -6, -7
1503610345770,10, 19, 15, 9, 4, 2, -6, 1
1503610345786,-4, -2, 5, 7, 4, 0, 3, 7
1503610345803,6, 5, -6, -2, 1, -6, -8, 10
1503610345826,-42, -12, -5, -1, -1, -3, 0, -14
1503610345846,2, -2, 4, -2, -4, -2, 3, 7
1503610345863,-8, 21, 10, -1, 2, 0, 1, -1
1503610345877,12, 3, -4, 2, 0, -2, 1, 0
1503610345895,0, 4, 4, 6, 3, -1, -2, -13
1503610345914,-8, 13, 14, 5, 1, -4, -4, -8
1503610345937,9, -22, -12, -4, -1, 1, 7, 21
1503610345951,-31, -21, -12, -5, -4, -2, -2, -8
1503610345974,0, 5, 7, 6, 1, 0, -2, -7
1503610345998,-8, 21, 17, 2, 2, -1, -6, 2
1503610346011,18, -1, -7, -4, -2, 1, 2, 4
1503610346034,-2, -3, 1, -6, 2, 10, 17, -4
1503610346056,7, 0, -5, -1, -2, -3, -1, -2
1503610346071,-20, 1, 11, 4, -2, -1, -5, -4
1503610346104,0, 8, 6, 4, 0, 1, 0, -2
1503610346124,1, 0, -5, -6, 1, 0, 1, 6
1503610346146,9, -4, 7, 4, 2, -1, 1, 5
1503610346162,-7, -14, -7, 0, -1, 1, 2, -3
1503610346184,-27, -10, 4, -2, -1, -4, -5, -5
1503610346206,6, 15, 0, -9, -4, -2, -2, -4
1503610346222,-1, 6, -2, -2, -7, -3, -3, -4
1503610346244,3, -5, -6, -5, -4, -1, 0, -1
1503610346266,2, -7, 1, 6, 0, 0, -3, -1
1503610346282,14, 0, -4, -3, 3, 1, -3, -5
1503610346305,-4, -10, 0, 3, -1, -3, -2, 0
1503610346326,1, 5, -6, -3, -2, 1, -1, 5
1503610346342,-3, 1, -1, -2, 3, 5, 13, 0
1503610346364,-11, -13, 3, 6, 3, -4, -1, -3
1503610346386,0, 7, 1, -3, 0, -2, -3, 2
1503610346409,-9, -4, -5, -4, -2, -3, -2, 3
1503610346424,7, 11, 0, 3, 1, 2, -2, 2
1503610346439,0, 3, 2, 0, -1, 0, 4, 1
1503610346454,-10, -20, -1, 6, 0, -6, -16, -11
1503610346476,-3, 15, 1, -2, 1, 4, 10, -3
1503610346498,2, -5, -1, -1, 3, 4, 5, 5
1503610346514,-11, -10, -11, -8, -6, -6, -8, -12
1503610346536,17, 26, 8, 3, 3, -1, -2, 9
1503610346558,15, 15, -6, -9, -1, -3, -5, -2
1503610346574,-14, -10, 3, 5, 4, 1, 0, -1
1503610346599,9, 5, 1, 7, 5, -2, 4, 4
1503610346618,-11, -20, -13, -12, -10, -3, -2, -11
1503610346634,2, -9, 2, 3, 0, -1, -1, -3
1503610346656,-7, -4, -6, -6, -5, 0, 1, 6
1503610346678,-7, -15, -13, -10, -7, -2, 1, -1
1503610346694,-1, -1, 2, 0, -2, 2, 1, -3
1503610346716,12, 25, 21, 11, 10, 3, 0, -2
1503610346738,-4, 0, -1, 1, 2, -5, -8, -2
1503610346754,15, 2, 1, 1, 0, -2, -4, 3
1503610346776,-7, -10, 1, -3, -3, 2, 5, 4
1503610346800,-3, 4, 1, -5, -3, -2, 0, -4
1503610346814,-9, 1, 4, 1, 1, -1, -3, -1
1503610346838,-14, -3, -4, -1, -5, -3, -2, 1
1503610346858,-1, -30, -21, -11, -10, -5, -2, 2
1503610346874,-28, -3, 4, 6, 1, 2, -1, -1
1503610346897,13, 9, 0, 1, 2, 1, 0, -1
1503610346905,-2, -24, -9, -1, -1, -1, 2, 4
1503610346926,1, 13, 7, -2, -1, -1, 2, 3
1503610346949,-4, 1, 0, -3, -2, -2, 1, -1
1503610346969,-6, 3, 4, 1, 1, 2, -2, -3
1503610346986,-3, 8, 3, 1, -1, -2, 0, 1
1503610347016,9, -10, -7, -3, -1, 1, 0, -2
1503610347025,9, 41, 12, 5, -1, -2, 0, -1
1503610347046,3, -16, -11, -7, -6, -2, 1, 2
1503610347070,-8, -12, -7, -4, -2, -1, -1, -1
1503610347084,0, 0, 5, 3, 2, -1, -2, 0
1503610347107,2, 2, 2, 3, 3, -1, -3, -2
1503610347129,-4, 0, 3, -1, -2, 0, 0, -2
1503610347145,0, -22, -1, 1, -3, -3, -1, -3
1503610347169,-3, 3, 3, 0, 2, 1, 0, 1
1503610347189,-3, -1, -2, 0, 0, -3, 0, 3
1503610347204,-5, -7, 0, -2, -1, 0, 0, 6
1503610347226,9, 5, -6, -6, 0, -1, -4, 15
1503610347249,-3, 0, -2, -3, -1, -1, 1, -5
1503610347265,-4, 0, -4, 0, -1, -1, 4, -16
1503610347286,7, 11, 1, 0, -2, -1, 1, -3
1503610347309,3, -11, 4, 3, 1, 0, -1, 2
1503610347324,-7, 6, -2, 0, -1, -3, 2, -4
1503610347346,-3, -6, -2, 1, -1, 0, -2, -2
1503610347371,-4, 5, 4, -1, -3, -1, -4, -13
1503610347391,13, 10, 2, -2, -2, -1, -3, 7
1503610347407,9, 3, 1, 1, -1, 0, -5, -12
1503610347429,-8, -10, -5, -7, -2, -2, -2, -10
1503610347451,7, 14, 0, 0, -3, 0, -1, 0
1503610347466,-3, -17, -14, -4, -3, -4, -3, -7
1503610347489,-12, -31, 0, 1, 1, 0, -3, -27
1503610347512,1, 7, 4, 4, 1, 0, 0, 15
1503610347526,-21, -1, 0, 2, 1, 0, 1, 14
1503610347549,-1, -13, -4, -2, -1, 0, 1, 2
1503610347572,16, 9, 2, 1, 3, 2, 2, -3
1503610347580,10, -5, 1, -2, -3, -1, -2, 4
1503610347601,-1, 7, -1, -4, -2, -1, 1, 5
1503610347616,21, 17, 8, -2, -2, -2, -1, 6
1503610347639,-2, 3, -2, 1, 0, 1, 3, 2
1503610347660,-17, -6, -5, -4, -1, -1, 1, -13
1503610347677,-4, 0, -1, -1, 0, 0, 3, -6
1503610347698,13, 56, 55, 15, 6, 2, -1, 7
1503610347720,-2, 3, -1, 0, -1, 0, 2, 1
1503610347729,-1, -7, 0, 0, -1, -1, 1, 9
1503610347751,3, -1, -5, 0, 0, -1, -1, -2
1503610347767,-7, 0, -1, -1, 0, 1, -2, -6
1503610347788,4, -7, -5, -4, -2, 0, 3, 23
1503610347811,12, 37, 15, 5, 0, -3, -1, 2
1503610347826,-2, -20, -9, -5, -5, -2, -3, -9
1503610347849,-1, -15, -2, 1, 2, -1, -2, -7
1503610347874,1, 9, 2, 0, 1, 2, -2, -5
1503610347886,-10, 1, 3, -1, -1, 1, -1, -7
1503610347909,2, 19, 5, 2, 0, 1, 1, -1
1503610347931,-3, -11, -11, -6, -2, -2, 0, -1
1503610347946,1, 4, -1, 2, -1, -3, 0, -1
1503610347969,-10, -10, 7, -3, -3, 0, -3, -10
1503610347991,12, 2, -5, -1, 0, 0, 1, 3
1503610348007,-8, -18, -5, -2, 0, -2, -5, -4
1503610348028,4, -7, -9, -4, 0, 0, -2, -4
1503610348051,4, 0, 0, 0, -2, 0, 3, 18
1503610348066,-3, 14, 16, 12, 7, 0, 0, -9
1503610348081,-2, -6, -23, -8, -3, -2, -1, -3
1503610348096,-20, -13, 0, -2, 0, 0, -2, -8
1503610348112,2, 12, -11, -1, -1, -1, -4, -3
1503610348126,2, -13, -9, -2, -2, -2, -2, 7
1503610348149,-7, -9, -5, -2, -2, 0, 4, 3
1503610348171,-2, -8, 0, -1, 0, -1, -2, -2
1503610348179,0, 7, 3, -2, -4, -2, 1, 3
1503610348201,4, -5, 7, 2, 3, 1, 1, -1
1503610348217,4, 12, -4, -1, -1, -2, -1, -4
1503610348238,1, -4, 1, 3, 2, -2, 0, -2
1503610348260,-3, 0, 15, 4, 1, 1, 1, 5
1503610348269,4, 16, 5, -4, -2, 0, -4, -1
1503610348291,-10, -6, -6, -1, -1, -1, -2, -11
1503610348314,-3, -35, -28, -13, -7, -5, -3, 0
1503610348330,-7, -5, -4, -2, 0, -1, 1, -5
1503610348352,-4, 22, 8, 2, 1, 0, -1, -2
1503610348376,-16, -19, -7, -3, -4, -3, -4, -18
1503610348389,3, 27, 14, 4, 2, 0, -4, 1
1503610348411,7, 15, 9, 5, 4, 4, 2, 5
1503610348434,11, -13, -11, -6, -3, 0, 1, 7
1503610348449,3, -6, 5, 2, 0, -1, -3, -11
1503610348471,8, 1, 9, 6, 4, 1, -2, -1
1503610348494,7, 43, 21, 2, -2, -2, 0, 1
1503610348510,-6, -12, -2, 4, 0, 0, 0, -1
1503610348531,-3, -1, -2, 1, 2, 2, 3, 6
1503610348555,-7, -15, -12, -7, -9, -3, -1, 1
1503610348569,3, -2, 0, 1, 0, -1, -1, 3
1503610348591,-4, -12, -2, -1, 1, 0, -3, 0
1503610348614,-10, -3, -4, -1, -1, -1, 1, -6
1503610348628,-3, -6, -3, -2, -1, -3, -5, 0
1503610348653,-2, 0, 3, 3, 2, 0, 1, 1
1503610348674,1, -2, -1, -3, -4, -1, 0, 1
1503610348689,-1, -7, -6, -4, -3, -1, 0, 4
1503610348712,5, 3, -2, 1, 3, 1, -1, -8
1503610348734,10, 38, 12, -4, 0, 1, 3, 2
1503610348749,-13, -16, -8, -2, -2, -5, -3, -4
1503610348771,-3, -6, 6, 3, -2, 1, 0, 0
1503610348794,-6, -14, 1, 3, 0, 0, -1, -1
1503610348809,6, -7, -8, -1, -1, -1, 1, 3
1503610348831,-23, -1, 23, 5, -1, -2, -1, -7
1503610348855,6, -5, -11, -5, -2, 0, -1, 5
1503610348869,4, 0, -3, 6, 1, -1, -2, 5
1503610348891,7, -1, -17, -5, -3, -1, 2, 13
1503610348922,-10, -6, 7, 4, 0, 1, 1, -4
1503610348929,6, 10, -6, -2, -3, -2, -2, -6
1503610348952,-7, 4, 17, -2, 0, -2, -4, 7
1503610348975,-3, -12, -9, -8, 0, -1, 0, -2
1503610348989,-2, -10, -11, -3, -4, -2, 0, -4
1503610349019,-8, 3, 8, 3, 0, -2, -3, -6
1503610349034,-3, 28, 10, 3, 1, -1, -3, -9
1503610349049,6, -11, -9, -3, -2, 0, 2, 6
1503610349071,-11, 31, 22, 5, 0, 1, 0, -4
1503610349094,-3, -15, -15, -4, -2, -3, 1, -2
1503610349108,1, -4, 2, 1, 0, -1, 0, -2
1503610349131,18, -1, -7, -2, 1, -1, 0, 5
1503610349154,-18, -13, -8, -4, -1, -2, 1, 7
1503610349162,18, 3, -8, -10, -5, -3, -1, 11
1503610349184,-9, 6, 4, 4, -1, 0, -1, -12
1503610349207,10, -6, -5, 1, 0, -2, -2, 1
1503610349222,-6, -16, -5, -2, -3, -1, 0, -5
1503610349244,-5, 1, 1, -4, -2, -4, -1, -2
1503610349267,-5, 6, 3, 3, 2, 2, 1, -1
1503610349283,-5, -2, -8, -8, -1, -1, -3, -2
1503610349304,5, 7, -5, -4, -2, 0, 1, -1
1503610349327,4, 0, -2, -2, -2, -3, -3, 1
1503610349342,-3, 1, 3, 1, -1, 0, 2, 11
1503610349364,0, -8, -3, 4, -1, -3, -2, -9
1503610349387,-9, -9, 1, 2, 0, 0, 1, -1
1503610349402,3, 2, 2, -1, -1, 0, -2, -4
1503610349428,-18, -8, -8, -4, -2, 2, 2, -1
1503610349447,-6, -6, -5, -9, -4, -5, -2, -5
1503610349464,3, 4, -2, -1, -1, -1, -4, -1
1503610349488,4, 5, 8, 2, 3, -2, 4, 10
1503610349507,4, -6, -2, 4, -2, 0, -3, -20
1503610349523,-4, -9, 11, 8, 3, 1, 1, 3
1503610349544,4, -2, -12, -5, -2, -1, -3, -3
1503610349567,0, 1, 3, -3, 0, -2, -1, 2
1503610349590,0, -9, -8, -4, -4, -1, -3, -12
1503610349611,1, 9, 9, 7, 4, 3, 2, 2
1503610349627,-2, 10, 11, 4, 0, 0, 0, 0
1503610349642,-20, 26, 12, 2, 1, 0, -3, -3
1503610349671,-2, -13, -12, -4, -2, -3, 0, 3
1503610349687,-1, -14, -10, -8, -2, -1, 1, 8
1503610349702,4, -9, -15, -16, -5, -2, -2, -6
1503610349726,7, 12, 21, 8, 1, 2, -1, -3
1503610349747,9, 7, -4, 2, 1, -2, -3, 3
1503610349762,-13, -3, -10, -5, -2, 1, -2, -7
1503610349786,-2, -15, -6, 1, 0, 0, 4, 3
1503610349807,13, 5, -1, 0, -2, -1, -2, 8
1503610349822,-14, -6, -2, -1, -2, -2, -4, -16
1503610349844,-8, 1, -1, -7, -1, 2, 1, 0
1503610349866,9, 1, -8, -2, -3, -1, 2, 8
1503610349882,0, -6, -4, -4, -2, -3, 0, 0
1503610349904,3, -3, 0, 0, 0, -2, -1, 6
1503610349928,-20, -16, -3, 1, 0, 1, -2, -9
1503610349942,25, 12, 0, -1, 0, -2, 1, 4
1503610349964,2, -6, -4, 2, 1, 2, 0, 7
1503610349972,7, 45, 15, 7, 0, -2, 0, 3
1503610349994,-31, -32, -8, -4, -3, -1, 0, 4
1503610350016,5, 12, 1, -1, 3, 1, 8, 11
1503610350032,11, 7, 7, 2, 2, 0, -4, -14
1503610350056,-14, -14, -6, 1, -1, 0, -3, -4
1503610350076,7, -1, -2, -2, -4, -2, 0, 1
1503610350092,-3, 3, 8, 3, 3, 2, -1, -1
1503610350115,3, -6, -12, -3, -4, -1, -3, -4
1503610350140,5, -3, -2, -2, -1, -2, -1, 10
1503610350159,-6, 1, 6, 2, 1, -2, -2, -6
1503610350168,11, -2, -8, -7, -4, -3, -1, -2
1503610350205,1, 1, 9, 7, 3, -1, -2, -3
1503610350208,-1, -1, -3, -6, -6, -3, 0, 4
1503610350228,-2, 11, 1, -6, -2, -1, 0, -3
1503610350249,1, -3, 6, 5, 1, -3, -3, -6
1503610350265,-3, 6, 1, 1, -3, -1, -1, -6
1503610350287,4, -7, 8, 7, 5, 1, -2, 0
1503610350295,-19, -17, -13, -9, -5, -2, -2, -3
1503610350317,19, 22, 24, 11, 3, 0, 1, 1
1503610350339,-3, -8, -19, -15, -5, 0, -2, 1
1503610350358,-11, -15, -3, 2, 1, 1, 3, -3
1503610350376,6, 6, 3, -1, -4, 0, 0, 0
1503610350399,-8, 4, 5, 1, 0, -2, -1, -3
1503610350414,4, 2, 10, 2, 3, 1, -3, -1
1503610350436,8, 24, 5, 6, -1, -1, -1, -2
1503610350459,-5, -4, -10, -3, 1, 0, -2, -5
1503610350474,7, 5, 3, 1, 1, 1, 2, 0
1503610350498,1, -5, -6, -6, -1, -2, -1, 1
1503610350519,2, 0, -3, 2, 0, -1, -1, -5
1503610350549,-1, -9, -21, -12, -6, -3, 1, 5
1503610350572,-1, -3, -1, 0, 3, 1, 2, -3
1503610350588,3, -1, -1, -3, 0, -2, -2, -1
1503610350609,2, 7, 7, 0, -1, 2, 1, -3
1503610350629,4, 4, -4, 1, 2, -3, -4, -9
1503610350647,3, -4, -8, -7, -7, -2, -1, -6
1503610350669,5, 4, 2, -1, 1, 1, 8, 13
1503610350684,-7, -4, -2, 0, 0, 1, -1, -2
1503610350707,-6, -3, -1, 0, -3, -2, -4, 0
1503610350729,0, 5, 10, 2, 1, 0, -2, 1
1503610350751,1, 3, 9, 6, 5, 2, -1, -6
1503610350773,-3, -9, -5, -4, -4, -4, 1, 8
1503610350789,40, 5, -17, -8, -8, -4, 0, 10
1503610350804,-18, -3, 5, 5, 0, 0, 0, -6
1503610350829,-8, -8, 3, 0, -2, -1, -1, -3
1503610350856,-20, -5, -7, -2, -5, 1, -1, -2
1503610350866,7, 1, 7, 3, 1, 0, 2, 9
1503610350879,-5, -18, -10, -5, -5, 0, 0, 2
1503610350895,8, 7, -9, -6, -5, -1, 0, -1
1503610350916,2, 1, -3, -1, -2, 0, 0, -1
1503610350939,-3, -3, -4, -3, 2, 2, 1, 2
1503610350947,-4, -11, -12, -7, -2, -2, 2, 0
1503610350971,8, 16, 1, -1, 0, 1, 1, 6
1503610350984,2, 7, 16, 7, 3, 1, -1, 4
1503610351008,-8, -14, -15, -7, -3, -2, -4, -2
1503610351029,-5, -4, -8, -5, -2, -1, -3, -6
1503610351044,5, -18, -10, 2, 0, -1, -1, -2
1503610351067,1, -1, 2, 1, 3, 0, -3, -2
1503610351089,4, 9, 5, 1, -2, -1, 2, -2
1503610351111,3, 1, -5, -6, -4, -1, -1, 2
1503610351128,-4, 13, 3, 1, -1, 0, -2, -5
1503610351148,-7, 1, 10, 0, 1, 2, 1, -2
1503610351171,-1, 4, -5, 0, -2, -2, -3, -2
1503610351186,2, -4, 1, -3, -1, -2, 1, 4
1503610351201,-7, -13, -9, -8, -6, -2, -2, -1
1503610351216,0, -9, -3, -3, -3, -2, -2, -2
1503610351240,-3, -1, -1, 5, 4, -1, -4, -6
1503610351260,2, 4, 7, 2, 0, 2, 1, -1
1503610351276,3, 6, 3, -8, -7, 3, 2, 0
1503610351299,-1, -5, -14, -8, -1, 0, 1, 0
1503610351329,-9, -14, -9, -4, -1, -3, -3, -7
1503610351331,1, 3, 5, 8, 6, 2, -2, 1
1503610351351,-4, -5, -7, -4, -3, 0, -1, 11
1503610351366,-1, -8, -16, -14, -17, -2, 3, 4
1503610351388,2, 6, 9, 1, -3, 0, -2, -18
1503610351411,-1, 12, 4, -8, -2, -3, -3, -6
1503610351434,0, -4, -5, 4, 1, -1, -4, -8
1503610351449,-1, -3, -13, -12, -4, -1, 8, -10
1503610351472,-7, 5, 12, 2, 0, 0, -1, 17
1503610351486,13, -17, -7, 2, 0, -3, -2, 0
1503610351502,12, -3, -18, -10, -4, -2, 2, -2
1503610351516,-2, -14, 6, 8, 5, 2, 1, 9
1503610351539,-4, 17, -2, -2, -3, -3, 0, -4
1503610351561,-16, -10, -5, -6, -5, -4, -6, -14
1503610351576,-7, -2, -1, -2, -1, -2, -4, -5
1503610351600,4, 5, 0, -1, -3, 0, -2, -4
1503610351621,0, -8, -3, -2, -1, 2, 1, 1
1503610351631,8, 4, 9, -1, -5, -4, 0, 5
1503610351651,-3, -10, -12, -7, -2, -4, -10, -4
1503610351668,2, 19, 19, 6, 2, 3, 5, -1
1503610351690,-3, 2, -11, 1, 1, -2, -3, -4
1503610351711,-2, -4, -1, -2, 2, -1, 0, 4
1503610351727,-3, -4, -5, -1, -3, 0, 2, -4
1503610351749,2, 20, 27, 2, 2, 2, 0, 2
1503610351772,-3, -35, -20, -10, -8, -5, 0, -1
1503610351786,-3, -12, -8, 2, -1, -2, -2, -2
1503610351809,-24, -34, -7, -1, 0, 0, -1, -6
1503610351831,0, -2, -7, -6, 2, 0, 1, 0
1503610351846,2, 15, 7, 0, 1, 1, 0, -2
1503610351869,13, 30, 5, -2, 2, -2, -4, -3
1503610351877,-11, -4, 2, 3, -2, 0, -2, -3
1503610351899,-3, 8, -6, -3, 0, -1, -3, -4
1503610351907,0, 0, 0, 1, -6, -2, -4, -2
1503610351928,1, -3, -6, -4, -2, -1, 1, -4
1503610351936,2, -10, -3, 0, -2, -3, -2, -2
1503610351958,4, -23, -22, -10, -7, -3, -4, -1
1503610351980,-3, -6, 9, 5, -2, -1, -1, -3
1503610351988,3, -12, -17, -9, -5, -2, -4, -1
1503610352011,4, -10, -14, -1, 0, 0, 3, 3
1503610352036,-2, -12, -1, -3, -1, 0, 3, -1
1503610352041,-7, -5, -5, -6, -7, -3, -2, -2
1503610352063,-5, 9, 10, 3, 2, 0, -3, -7
1503610352080,0, -5, -1, 4, 3, -2, -1, -1
1503610352102,0, 1, 5, 4, 3, -1, -1, 0
1503610352110,-10, -12, -8, -3, -3, -1, -1, -4
1503610352131,7, 14, 4, 2, -1, -3, 0, 5
1503610352154,-1, 1, 10, 2, -1, -2, 0, 1
1503610352172,0, -18, -13, -3, -1, 1, 2, 7
1503610352191,-1, -4, 10, 3, 1, 0, -1, 0
1503610352214,-4, -2, 4, 2, 2, -1, 0, -4
1503610352229,-4, 1, 4, 0, -2, 0, -1, -4
1503610352252,-3, 19, 11, -1, 0, -1, -3, -9
1503610352275,2, 11, 9, 4, 3, 0, 0, -1
1503610352289,0, -10, -12, -4, -3, 0, -1, -2
1503610352311,8, 22, 7, 6, 2, 1, 0, 1
1503610352334,-10, 5, 3, -7, -6, -4, -1, -6
1503610352356,0, -12, -6, -3, -1, 1, -3, 1
1503610352371,7, 10, 1, 1, -1, 0, 1, 0
1503610352380,-7, 2, -6, -1, 0, -1, -3, -3
1503610352401,1, 1, 8, 7, 0, 2, 0, 0
1503610352423,-5, -1, -6, -5, -1, -2, -2, -1
1503610352439,1, -2, 3, 3, 0, 3, 5, 1
1503610352461,-1, 1, -13, -14, -8, -3, -6, -6
1503610352483,0, 0, 7, 4, 2, 0, 6, 2
1503610352498,4, 5, 0, -1, -5, -1, 1, 7
1503610352521,10, 20, 14, 3, 1, 0, 2, 5
1503610352543,-2, -12, -12, -2, 1, -1, -7, 0
1503610352558,-8, -21, -4, 2, 1, -1, 2, -2
1503610352581,-4, -2, -1, 1, -1, 1, 4, 3
1503610352603,1, 0, -2, 0, 1, -2, -4, -9
1503610352619,-10, -3, 0, -3, -2, -1, -1, 3
1503610352642,1, 0, -3, -3, -2, -2, 0, -7
1503610352663,0, 3, 8, 6, 2, 0, 0, 2
1503610352682,-3, -4, -5, -5, -1, -1, -4, 0
1503610352701,0, 3, 0, 0, 0, 0, 1, -3
1503610352723,-6, 5, 6, 1, 2, 0, -2, -4
1503610352740,9, -6, -6, -7, -4, 0, 5, 15
1503610352762,2, -3, 2, 2, 0, -2, -10, -2
1503610352783,-6, -4, -8, -8, -5, -1, -1, -4
1503610352798,0, 3, -8, -1, 5, 1, 1, -6
1503610352815,-4, -2, 9, -2, -1, 0, 2, 6
1503610352829,-17, -18, -3, -3, -4, 0, 2, 2
1503610352851,2, 5, 5, 8, 0, -1, 1, -2
1503610352876,2, -6, -20, -17, -5, -5, -3, -7
1503610352889,6, 7, 2, 1, 1, -1, -5, -8
1503610352912,6, 11, 11, 4, 0, -2, -4, -6
1503610352934,-17, 12, 10, 5, 1, -2, -6, -9
1503610352956,2, -10, -10, -1, -2, -2, 4, 9
1503610352963,3, 7, 4, -5, -1, -1, 0, -1
1503610352985,7, 2, -3, -8, -1, -2, -3, 2
1503610353001,-2, 1, -3, -3, -3, -3, -9, 1
1503610353023,0, -21, -11, 1, 1, 0, 3, 0
1503610353046,5, 18, 14, 5, 2, 3, 1, 1
1503610353061,-6, -2, 0, -2, -3, -3, -1, -8
1503610353083,-11, -1, -1, 2, 0, -1, 0, -11
1503610353105,-6, -9, -11, -2, 0, 0, -2, 2
1503610353121,1, 2, 2, -5, -2, -2, 1, 3
1503610353146,0, -14, -7, 1, 0, 0, -5, -5
1503610353165,-7, -1, -9, -4, -5, -2, 0, -6
1503610353181,10, 10, 9, 3, -1, 0, 2, 4
1503610353203,2, 5, 12, 3, 1, -1, -3, -1
1503610353225,7, 1, 1, 5, -1, -1, -5, 0
1503610353241,-4, 0, 2, 0, 1, 0, 5, 11
1503610353263,-5, 19, 6, 1, 3, 1, 1, -11
1503610353286,-2, 1, 4, 4, 2, -1, 0, 1
1503610353301,-3, -21, -16, -12, -6, -2, 3, 8
1503610353323,-2, 1, -1, -1, -2, -1, -6, 4
1503610353345,0, 31, 10, 5, 1, 3, 2, -5
1503610353361,6, 3, -6, -4, 1, -2, -1, -13
1503610353383,3, -10, -10, -4, -4, 0, 1, 14
1503610353405,1, -14, -10, -5, -1, -2, -1, -9
1503610353425,-3, 4, 22, 10, 3, 0, 0, 10
1503610353437,-3, 3, -3, -4, -4, -3, 1, -7
1503610353451,-4, -1, 7, 8, 1, 0, -5, 0
1503610353474,1, -3, 11, 4, 3, 1, 5, 9
1503610353497,-1, -4, -12, -7, -5, -2, 0, 4
1503610353517,1, 7, 11, -1, -2, -3, -1, -16
1503610353534,2, -2, -10, -4, -2, -2, -3, -7
1503610353556,3, 4, -1, 2, 2, 1, 4, 5
1503610353571,-7, -4, -5, -2, -1, -1, -1, 0
1503610353594,-9, -13, -12, -8, -2, -1, 3, 4
1503610353616,-3, -23, -7, 2, 0, -1, -2, 2
1503610353631,0, 13, 16, 1, -2, -1, -3, 3
1503610353655,5, 9, -1, -1, -2, 0, -1, -1
1503610353676,-1, -2, 0, 0, 0, 1, 0, -5
1503610353691,5, 6, -2, -1, 0, -1, 1, -1
1503610353714,7, 16, 18, 10, 3, 1, -1, -2
1503610353722,-3, -12, -2, -4, -5, -4, -3, -2
1503610353743,-4, -2, 0, 1, -1, 0, 2, -1
1503610353765,12, 21, 11, 5, 0, 1, -2, 2
1503610353782,0, -2, -5, 0, 4, -1, -2, 7
1503610353803,0, 2, 6, 4, 1, -2, -3, -2
1503610353825,1, 4, -11, -6, -5, -3, -2, -4
1503610353841,-4, -2, -1, 1, -1, 1, -5, -17
1503610353863,-3, -8, 4, 1, -2, 1, 0, 4
1503610353885,-1, 1, 2, -4, -2, -2, 1, -4
1503610353908,1, 0, -11, -10, -4, 0, 5, 5
1503610353923,-4, -1, 0, 0, -1, -1, 0, 0
1503610354011,-6, -20, -17, -9, -3, -2, -3, -2
1503610354018,-6, -6, 1, 2, -2, -3, -9, -1
1503610354029,2, 5, 2, 1, 1, -1, 3, 2
1503610354045,-1, -7, -10, -3, -2, -2, -2, 0
1503610354059,-1, -11, -10, -1, -1, -1, 1, 2
1503610354074,-7, -6, -4, -2, 0, -2, -1, 1
1503610354096,17, 12, 7, -1, -2, 1, 3, 12
1503610354105,-7, -21, -2, 6, 1, 0, 2, 1
1503610354126,5, -1, -1, 1, -3, -4, -9, 2
1503610354151,0, 0, 7, 10, 4, 2, -2, -8
1503610354164,9, 11, 2, 2, -3, 0, 4, 1
1503610354186,-1, 7, 5, 0, 1, 1, 3, 0
1503610354209,7, 24, -3, -7, -1, -1, -4, -5
1503610354225,-10, -11, -14, -9, -1, -2, -3, -7
1503610354246,-10, -2, 5, -5, -3, -2, 0, -1
1503610354270,-1, -2, -1, -1, -1, -1, 0, 1
1503610354287,-6, -27, -18, -6, -6, -5, -4, -4
1503610354306,-4, 7, 8, 2, 1, 1, -2, -10
1503610354315,-3, -14, -21, -7, -3, -3, -2, 0
1503610354336,-5, 6, 0, 3, 2, 0, -1, -1
1503610354359,1, -3, 4, -4, -1, 2, 4, 12
1503610354367,-1, 9, 10, 0, 4, 3, 4, 5
1503610354390,-2, 2, -4, -6, -6, -1, -2, 5
1503610354412,-2, -1, 5, 3, -2, 0, 0, 3
1503610354427,15, 33, 23, 7, 5, 5, 3, 3
1503610354435,5, 2, -5, -3, -1, 0, 1, 5
1503610354456,4, 12, 16, 9, 2, 1, 2, 6
1503610354478,-5, -5, -6, -3, -2, -2, -2, 2
1503610354486,0, 0, 14, 7, 1, -1, 0, 0
1503610354509,-3, -12, -9, 0, -3, -4, -2, 0
1503610354531,5, 6, 10, 7, 2, -1, -1, -1
1503610354546,-12, -15, 3, 0, -1, 0, -3, 0
1503610354569,12, 11, -14, -3, -1, -1, 4, 12
1503610354591,0, -1, -8, -5, 0, -1, -3, -6
1503610354607,2, 7, 6, -2, 0, 1, 2, -4
1503610354629,-3, -2, -8, -7, 1, 0, -4, -10
1503610354654,0, -1, -14, -5, -6, -2, 0, 0
1503610354666,-3, -7, 14, 9, 0, -1, -1, -9
1503610354673,-3, -7, -2, 3, -1, -2, 2, 7
1503610354696,-8, -5, 9, 4, 0, 0, -2, -4
1503610354719,-9, -4, 1, -3, -7, -3, -1, -8
1503610354733,6, -3, -13, -4, 0, 0, 0, 2
1503610354756,3, -1, -1, 1, 1, 0, 1, 1
1503610354778,-7, 7, -2, -4, -1, -3, -3, 1
1503610354794,4, -9, -8, 0, -2, 0, 3, 4
1503610354816,2, -7, -2, 1, 2, 1, -3, -8
1503610354838,3, -2, 1, 1, -1, -1, 1, 6
1503610354861,2, -1, -4, -9, 1, 2, 1, 8
1503610354876,-10, -14, -1, -9, -3, -1, 1, -1
1503610354898,1, 11, 11, 6, -1, -1, -1, 0
1503610354922,1, 17, 8, 2, -1, -2, 0, 4
1503610354936,-4, -5, 4, 5, -1, -1, 0, 1
1503610354959,-3, -12, -10, -7, -4, 0, -1, 2
1503610354981,6, 7, 2, 0, 0, 1, -1, -3
1503610354997,3, -4, 4, 9, 2, -2, -1, -2
1503610355019,-1, -9, -12, -5, 0, 1, -2, -6
1503610355041,-3, -1, -2, -5, -3, -2, -1, -2
1503610355057,-1, 2, 8, 5, 3, 0, -1, 1
1503610355078,1, 1, 0, -2, -1, -2, 1, -2
1503610355101,-8, 3, -2, 5, -4, -3, -5, -2
1503610355116,1, -4, -4, -2, 0, -1, 0, -2
1503610355139,-7, -9, -4, -2, -1, 0, 0, -3
1503610355163,5, 12, 15, 6, 1, 2, 1, -1
1503610355178,2, 5, 3, -8, 1, 2, 2, 3
1503610355199,-2, -6, -14, -7, -4, -2, -1, -3
1503610355221,-9, -3, 10, 0, 1, 0, 0, -3
1503610355230,12, 11, 20, 14, 5, 2, 1, 4
1503610355239,2, -3, -3, 4, 2, -2, -2, -1
1503610355259,-3, -12, -6, -13, -1, -1, 0, 1
1503610355281,1, 3, -4, 4, -1, -1, -2, 0
1503610355297,2, 3, 0, 2, 0, -1, -2, -1
1503610355319,-1, -12, -10, -4, -3, -1, 0, 0
1503610355341,-9, -9, -15, -8, -6, -2, -2, -6
1503610355356,-9, -14, -8, 0, 1, 0, 1, 1
1503610355379,5, 16, 11, -3, 0, -1, 1, 2
1503610355401,1, 0, 4, 8, 1, 0, 1, -1
1503610355416,-9, -5, -5, -7, -5, -2, -2, 0
1503610355438,-2, -1, 10, 3, -1, -2, -4, -4
1503610355461,-5, -3, 6, 3, -1, 0, 2, -3
1503610355476,3, 6, 3, 5, 0, -1, 4, 2
1503610355493,-1, -9, -16, -7, -6, -1, 0, 1
1503610355506,-1, -6, -1, 6, -2, -3, -1, 4
1503610355529,-4, 1, 3, -3, -4, -2, -1, -3
1503610355552,3, 0, -7, -5, -5, -2, 1, 0
1503610355567,4, 6, 5, 6, 3, 0, 2, 4
1503610355589,-6, 4, 1, -6, 0, 1, 0, 2
1503610355611,-1, 3, 6, 1, 2, 0, 1, -6
1503610355632,-7, -6, -11, -4, 1, -1, 0, -4
1503610355649,-23, -1, 3, -1, 2, 2, 0, 1
1503610355671,7, 1, 0, -1, -2, -3, -2, 1
1503610355686,-3, -9, -14, -3, -8, -3, -3, -4
1503610355709,-2, -8, -3, -3, -2, -2, -2, -4
1503610355732,11, 4, 4, 0, 0, 1, 0, -1
1503610355754,-1, 4, 4, -4, 0, 2, -2, -1
1503610355770,-8, -3, -3, -2, -4, -4, -3, -1
1503610355791,2, 2, 10, 6, 0, 0, 0, 1
1503610355813,3, 1, 7, 5, 0, 0, 2, 3
1503610355829,-12, -10, -18, -9, -3, -2, 0, -1
1503610355851,10, 4, 6, 5, 2, 2, 0, 4
1503610355873,-19, -19, -4, -3, -3, -3, -3, -6
1503610355889,43, 17, 6, 5, 4, 1, -2, 4
1503610355911,12, 5, -3, 0, 1, -1, -1, -1
1503610355933,-14, -6, -17, -13, -4, -3, -2, -5
1503610355949,14, 0, -6, -1, -3, 2, 3, 3
1503610355978,8, 12, 7, 0, -2, 0, 0, 1
1503610355994,-3, -2, -4, 2, 1, 1, -1, 3
1503610356001,13, 1, 2, 4, 0, -5, -4, -2
1503610356023,1, -5, -2, -6, -2, 0, -2, -1
1503610356039,8, 6, 10, 7, 1, 0, -1, 0
1503610356061,-19, -5, -3, -6, -2, -2, 1, -7
1503610356084,2, -2, -5, -4, -5, -4, 4, 5
1503610356098,9, -2, -4, -3, 0, 2, 1, -3
1503610356121,-2, -3, -3, 0, -2, -1, -2, -3
1503610356143,-2, 7, 12, 10, 4, 1, 2, 4
1503610356158,-2, 8, 10, 10, 4, 0, -4, -2
1503610356181,-9, -24, -34, -19, -13, -3, 0, 0
1503610356203,2, -2, -3, -3, 0, -1, -2, -4
1503610356219,-2, 0, -4, -2, -2, 0, -2, -4
1503610356241,2, -9, 3, 4, 0, 0, 1, 4
1503610356265,4, 23, 9, 1, 4, -1, -2, -3
1503610356272,3, 2, -7, -2, 0, -1, -2, -1
1503610356293,-1, -3, -7, -5, -3, -2, -3, -4
1503610356309,-5, -8, 0, 2, 0, -1, 0, 0
1503610356333,2, 13, -2, -3, -1, -1, 0, -2
1503610356353,-5, -14, -4, 2, 2, -1, -2, 0
1503610356370,0, -3, -8, -4, -2, -1, -1, -2
1503610356391,1, 6, 6, 6, 5, -2, -1, -4
1503610356413,-1, -6, 0, -4, -1, -1, -3, -2
1503610356429,3, -2, 1, -3, -4, -1, -4, -1
1503610356452,1, 5, 8, 4, 4, 2, 2, 1
1503610356474,0, -1, -7, -4, 0, -1, 0, 2
1503610356489,1, -2, 5, 3, 0, -3, -4, -4
1503610356511,-2, -3, -2, -2, -3, -2, 0, -3
1503610356534,-2, -6, -16, -11, -5, -4, -3, 1
1503610356549,-1, -1, 0, 2, 2, 0, 0, -2
1503610356571,0, 0, -7, -4, -1, -1, 6, -1
1503610356593,-1, -3, 1, -2, -3, -2, -1, 2
1503610356610,-3, -1, 1, 0, 3, 3, -1, 0
1503610356634,-6, 3, -7, 1, 1, 1, -2, -5
1503610356653,-6, 0, 0, 6, 0, 1, -2, 1
1503610356676,11, 1, 6, 0, -1, 0, 0, 20
1503610356692,1, 5, 1, -2, 1, 3, 4, 20
1503610356713,0, -1, 7, 0, -3, -2, 6, -22
1503610356736,19, 6, 7, 6, 8, 0, -3, -3
1503610356744,-22, -8, 0, 1, 3, 1, -4, -8
1503610356767,7, 2, -2, -2, -4, -2, -2, -14
1503610356774,6, -3, -7, -3, 1, 1, -3, 2
1503610356796,15, 2, -3, 2, 0, -4, -3, -13
1503610356811,-12, -3, 8, 2, -2, -3, -5, -9
1503610356836,0, -16, -6, 1, 3, 1, 2, 11
1503610356856,-5, 0, -5, 0, -4, -2, -1, -9
1503610356871,-1, -5, -3, 0, -1, 0, -1, 3
1503610356893,0, 4, 6, 2, 0, 1, 3, 13
1503610356916,2, -33, -10, -4, -1, -1, -3, -4
1503610356931,-9, 5, -9, -12, -6, -3, -4, -9
1503610356953,3, -2, 5, 5, -1, 0, -1, 0
1503610356961,4, 11, 5, 1, 3, -1, 0, 1
1503610356983,1, 0, 1, -3, -2, 0, 2, -1
1503610357005,6, 14, 11, 4, 3, 1, -1, 3
1503610357021,-10, -13, -11, -4, -2, -2, -4, -11
1503610357044,7, -4, -9, -3, -6, -1, 0, 5
1503610357065,3, 8, 7, -2, 8, 0, -1, 5
1503610357081,-11, -2, 3, 0, -1, -1, -1, 5
1503610357111,5, -12, -11, 3, 3, -1, -3, -6
1503610357125,-11, -7, -10, -11, -4, -2, -1, -2
1503610357141,8, 6, 7, 1, -5, -2, 0, 1
1503610357163,13, 3, 1, 1, -4, -1, 0, 0
1503610357185,-13, -23, -22, -4, -1, -1, 0, -3
1503610357201,-7, 16, 5, 1, -1, -2, -1, -2
1503610357223,-5, 1, 15, 8, 3, 1, -2, -1
1503610357245,-3, -11, -13, -5, 1, -3, -1, -2
1503610357261,-28, -2, -5, -6, -9, -4, -5, -7
1503610357283,4, -12, 0, -3, -4, -4, -7, -9
1503610357306,20, 33, 5, 5, 3, 1, 2, 6
1503610357321,-21, -5, 7, 7, 12, 5, 1, 0
1503610357344,4, -7, -2, -5, -6, -3, 0, 0
1503610357365,10, 14, 10, 4, 4, -1, -2, 0
1503610357381,28, 3, -1, -6, -9, 2, 3, 11
1503610357403,-18, -13, -3, -3, 0, 2, 1, -4
1503610357425,6, 3, -1, -5, -2, 0, 0, 5
1503610357441,-1, -4, -5, -2, -3, -4, -3, -6
1503610357463,-3, -9, -1, 0, 0, 0, 3, 2
1503610357485,5, -10, -11, 3, -3, -2, -4, 7
1503610357501,3, 25, 23, 3, 1, -2, 2, 13
1503610357523,-24, -11, -8, -3, -5, -3, -2, -7
1503610357546,-9, -2, -4, -1, -1, -3, -8, -19
1503610357561,14, 22, 17, 6, 5, 1, 1, 8
1503610357584,0, -17, -9, -4, -2, 0, 3, -8
1503610357608,3, 12, 3, -5, -6, -1, -2, -2
1503610357628,15, -4, 7, 7, 1, 2, 3, 9
1503610357643,-12, -30, -21, -6, -4, -1, 1, 1
1503610357666,-1, -1, -7, -5, -2, -2, -1, -1
1503610357677,7, 2, -14, -1, 0, -2, -4, 0
1503610357696,3, -25, -18, -6, -3, -2, -4, -3
1503610357718,8, 26, 10, -6, -6, -1, 0, 5
1503610357733,-13, -18, 0, 2, 0, -2, 0, -5
1503610357756,5, 9, -4, -4, -2, 1, -1, 2
1503610357779,-11, 10, 6, 2, 5, 10, 20, -4
1503610357793,6, 2, -1, 0, 2, -4, 2, 9
1503610357816,-8, 2, 7, 5, 1, -3, 2, 1
1503610357838,5, -1, 0, 0, -1, 2, -5, 3
1503610357854,-28, 5, -2, 0, 1, 3, 1, -16
1503610357868,33, 13, -3, -3, 5, 8, 18, 20
1503610357884,-1, 12, -5, 2, 4, 3, 5, -9
1503610357906,-11, -6, 3, -2, -6, -1, -2, 4
1503610357928,2, -2, -12, -9, -5, -6, -9, -3
1503610357944,16, 19, 6, 4, -1, 2, -1, 12
1503610357966,5, -2, 5, 3, 2, 1, -3, -10
1503610357988,-14, -3, 7, 2, 1, -1, -2, -5
1503610358003,-7, -22, -4, 3, 5, 2, 7, -4
1503610358026,-10, 0, -3, -3, -4, -2, -4, -7
1503610358048,23, 15, -4, -5, -1, 0, 0, 8
1503610358063,3, 8, 7, 1, 0, -1, -8, -16
1503610358080,20, 15, 10, 5, 7, 3, -2, 2
1503610358094,-18, -19, -6, -4, -3, -7, -5, -19
1503610358116,-5, 7, 17, 6, 3, 1, -6, -6
1503610358138,-6, -12, -6, -2, 2, 1, -1, 1
1503610358155,3, 1, 8, 6, 2, 2, 3, -9
1503610358168,-11, 4, -10, -3, -4, -4, -7, -23
1503610358184,13, -9, -7, -4, -2, -3, -3, 1
1503610358205,-8, -2, -10, -4, -4, -4, -1, 5
1503610358228,3, 3, -15, -1, -3, 0, 0, -3
1503610358248,22, 5, 16, 5, 4, 4, 6, 28
1503610358265,8, -5, -1, -1, -1, -2, -2, 4
1503610358288,-8, 40, 18, 3, 4, 2, 5, 5
1503610358303,6, -13, -12, -8, -6, -3, -2, 0
1503610358325,-2, 54, 40, 9, 1, -1, 1, 7
1503610358348,2, -14, -22, -4, 0, -2, -1, -4
1503610358363,-11, -8, -9, -3, -2, -2, -1, -6
1503610358380,8, -1, 0, -1, 0, 1, 2, 1
1503610358395,3, -17, -9, -4, -3, -3, 9, 9
1503610358416,24, 12, 2, 0, 2, -5, -26, -3
1503610358438,-7, -12, 0, 3, 3, 1, 5, 5
1503610358454,-24, -7, 4, -2, -1, 3, -1, -7
1503610358480,-13, -16, -23, -17, -5, -1, 5, 16
1503610358498,-13, -38, -16, -5, -5, -1, 4, 0
1503610358516,-11, 7, 8, 6, 0, 1, 4, 0
1503610358536,31, 33, 1, -5, -4, -3, -4, -14
1503610358558,-10, -24, -13, -3, -6, -5, -5, -13
1503610358581,6, 24, 19, 10, 6, 4, -4, -1
1503610358596,-7, -4, -8, 1, 4, 0, -4, -7
1503610358610,12, 8, 21, 4, -2, 0, -1, -2
1503610358626,21, -28, -12, -4, -3, -5, 1, 7
1503610358649,-37, 8, 2, 0, -2, 0, 0, -1
1503610358670,9, -7, -8, -3, -4, 1, -1, -13
1503610358686,2, 16, -5, -4, -1, -1, 0, -4
1503610358708,2, -11, -4, -2, -1, 2, 5, 24
1503610358730,10, 17, 4, 3, 3, 1, -11, -8
1503610358746,-6, -7, -3, 0, -2, -4, -6, 0
1503610358768,4, -3, -12, -10, -6, -4, 8, 13
1503610358791,-1, -7, 6, 8, 6, 1, 1, 1
1503610358806,-7, -1, 16, 5, 2, -4, -9, -18
1503610358828,3, 8, -12, -6, -1, -2, 0, 4
1503610358851,5, 1, 1, 5, 3, -3, 4, 18
1503610358866,13, 6, 15, 7, 4, -2, -18, -14
1503610358888,-9, -16, -13, -2, -8, -4, -1, 2
1503610358910,-42, -19, 1, 2, -1, 2, 9, -4
1503610358926,18, 2, -8, -6, -7, -3, 0, 0
1503610358950,9, -11, -12, -6, -2, 1, 2, 10
1503610358970,-2, 12, 16, 10, 8, 2, 3, 2
1503610358986,-37, -6, -3, -7, 4, -5, -9, -9
1503610359008,20, 4, -1, -8, -4, 2, 11, 23
1503610359020,21, 7, 1, 5, 0, -2, -6, 9
1503610359038,17, 3, -1, -8, -7, 0, 2, 4
1503610359061,-5, -18, -9, -6, -4, -2, -3, -3
1503610359076,-16, -5, 6, 3, -4, -2, -2, -3
1503610359098,5, 10, 10, 4, 3, 3, 6, 3
1503610359106,-2, -4, -2, -4, -4, -3, -4, -2
1503610359127,31, -6, 8, 8, 4, 3, 5, 22
1503610359152,-21, -1, -17, -13, -5, -4, -6, -12
1503610359166,-13, -20, 0, -1, -1, -2, 0, 7
1503610359188,12, 16, 14, 6, 1, -2, 0, 9
1503610359210,6, 11, 10, 4, 4, 2, -1, 10
1503610359227,-14, -4, -13, -13, -7, -3, -2, -29
1503610359248,8, -14, -12, -4, -2, 1, 0, 10
1503610359270,6, 1, 2, 2, 1, 2, 9, 31
1503610359286,-5, 0, -6, -4, -7, -6, -7, -19
1503610359307,-7, 31, 4, -1, -1, -1, -2, -18
1503610359330,-21, 3, 10, 5, 3, 0, -3, 14
1503610359353,-16, -30, -9, -2, -1, -1, 0, -9
1503610359368,-16, -19, -17, -8, -6, -5, -5, -10
1503610359376,-1, -26, 3, -7, -5, -1, 1, -8
1503610359398,-5, 6, 16, 6, 0, -1, -2, -13
1503610359421,-6, -6, -15, -11, -1, -4, -2, 6
1503610359435,0, -1, 3, -2, -1, -3, -1, 6
1503610359454,19, 12, -6, -6, 1, -1, -4, 3
1503610359474,9, 21, 10, 0, 0, 3, 0, 5
1503610359489,-8, 5, 0, -2, -2, -2, -2, -5
1503610359511,-3, -4, -1, 0, -2, 0, -2, -5
1503610359534,4, 5, -1, 0, 2, -2, -3, 0
1503610359549,1, 3, 21, 9, 7, 3, 0, 1
1503610359571,15, 9, 0, 2, 1, -1, -2, 2
1503610359596,-15, -11, -9, -4, -6, -3, -4, -7
1503610359609,-4, -14, -8, 2, 0, -2, 0, 3
1503610359631,1, 18, 20, 7, 4, 1, -2, -4
1503610359657,-3, -2, 4, -1, -5, -2, -1, 0
1503610359669,0, -3, -2, 1, 3, 2, 5, 5
1503610359692,-7, -3, 5, 7, 7, 0, 1, 1
1503610359714,14, -10, -21, -17, -9, -4, -2, 1
1503610359729,-13, -11, -21, -12, -8, -1, -4, -5
1503610359751,3, -1, 0, 3, -3, -1, 4, 9
1503610359774,-4, 0, 5, 0, -3, 2, 2, 4
1503610359790,0, 15, 8, 1, 1, 1, -1, -4
1503610359818,1, 3, -8, -4, -2, -1, 0, -4
1503610359834,13, -4, 1, 3, -6, -3, -5, -3
1503610359848,-9, -7, -1, -2, 2, 3, 3, -2
1503610359864,0, 2, 16, 3, -4, -3, -6, -10
1503610359878,2, 2, -4, -4, 4, 1, 0, 2
1503610359901,-1, -3, -12, -2, -2, -1, 0, 1
1503610359924,-3, 1, 1, -3, 0, 1, 2, -4
1503610359938,12, 7, -16, -8, -2, -2, 1, 5
1503610359961,6, 2, 12, 5, 2, 0, -2, 0
1503610359983,-13, -18, -11, 1, -7, -2, -1, 0
1503610359998,-3, 3, 8, 6, 2, -1, 0, -3
1503610360025,-8, -4, 5, 2, 0, 2, 0, -2
1503610360043,0, 6, -7, -3, 0, 1, -1, -1
1503610360059,-6, -4, 5, 6, 4, -2, -4, -6
1503610360081,4, 25, 10, -7, -4, 0, 0, 5
1503610360103,4, -1, -10, -5, -2, -3, -5, 1
1503610360118,-14, -7, 7, 0, 3, 1, 1, -6
1503610360140,29, -17, -26, -17, -5, -3, -1, 9
1503610360163,3, -5, -3, 5, 1, 0, 3, 2
1503610360178,13, 5, 22, 12, -1, -1, 0, 1
1503610360201,-12, -4, 6, -2, 1, 0, -4, -5
1503610360223,-11, -15, -18, -6, -4, -2, -2, 1
1503610360238,-7, -11, -13, -9, -5, -3, -3, -1
1503610360261,8, 24, 17, 8, 0, 2, 2, 0
1503610360290,25, 19, 20, 17, 6, 3, 0, 4
1503610360299,4, -4, -4, -3, -1, -5, -3, 0
1503610360321,7, 4, -7, -3, -4, 0, -2, -1
1503610360343,-13, 7, 10, 1, 4, 2, 3, -3
1503610360361,-4, -13, -8, -6, -2, -1, -2, -2
1503610360380,-10, -6, 4, 3, -2, -2, -2, -5
1503610360404,-11, -10, 11, 10, 4, 3, 4, 3
1503610360412,4, 2, -5, -3, -6, -3, 3, 6
1503610360434,4, 1, -5, 1, 0, -5, -2, -5
1503610360441,25, 12, -2, -3, 2, 1, -3, -4
1503610360463,-4, -3, 0, 4, 4, 1, -2, 0
1503610360485,1, -3, 12, 4, 2, 0, 2, 0
1503610360496,25, 30, -2, -3, 5, 0, -2, -4
1503610360515,-9, -5, 1, -2, -4, -2, 0, -2
1503610360532,-4, 0, -4, -2, -2, 0, 2, 1
1503610360562,16, 6, 4, 2, 0, -1, 2, 8
1503610360583,12, 1, 5, 1, 3, 1, 0, 0
1503610360606,-5, 0, -2, -3, 0, 1, -5, -6
1503610360620,0, -8, -12, -7, -3, -2, -3, -1
1503610360643,-5, 19, 19, 8, 7, 1, 4, -2
1503610360666,-3, -14, -15, -5, -3, -3, 0, -1
1503610360681,1, -4, -6, -6, -2, 1, 1, 3
1503610360704,0, -10, 0, -3, -3, -1, -1, -1
1503610360726,-1, 2, 2, -3, -6, -2, -1, -1
1503610360741,0, 14, 18, 6, -1, 1, 0, -2
1503610360764,1, -7, -17, -10, -5, -4, -2, -1
1503610360786,-11, 1, -4, 2, 1, -1, -2, -4
1503610360801,5, 16, 2, 3, 6, 0, 0, 0
1503610360823,-3, -8, -2, 10, 10, 0, -3, -2
1503610360846,3, -6, 0, -4, -4, 1, 1, 1
1503610360860,-9, -9, -8, -6, -1, -4, -3, 2
1503610360883,-4, -1, 5, 5, 2, -1, 0, 0
1503610360906,5, 4, -2, -12, -10, -3, -1, 19
1503610360921,2, -1, -12, -7, -1, 1, 2, 40
1503610360943,-24, -17, -8, -4, -8, -4, -4, -13
1503610360966,-10, -3, 0, -1, 0, 1, 0, -57
1503610360981,16, 21, 5, 0, 1, 1, 1, -9
1503610361003,-21, -17, -7, -8, -6, -3, -1, 6
1503610361011,-3, 5, -2, -3, -3, 0, -4, 9
1503610361026,6, -3, -1, 11, 12, 3, 2, 3
1503610361041,-6, 3, 1, -4, -10, -2, 2, 1
1503610361065,6, 10, 3, 1, -4, -4, -6, -11
1503610361086,-6, -16, -6, -3, -2, 0, 7, 13
1503610361116,7, -7, -5, 0, -2, 1, 2, 2
1503610361134,-2, 15, 7, 4, -2, -1, -3, -7
1503610361154,-17, -16, 3, -3, -3, -2, -1, -17
1503610361161,7, 6, -3, -2, 1, 0, 0, 15
1503610361184,-3, -3, 4, 5, 1, 2, -4, -9
1503610361208,31, 23, 18, 5, 0, 0, 4, 10
1503610361220,-35, -6, 0, -3, -1, -6, -9, -28
1503610361243,-7, -4, -7, -4, -3, -2, -2, -4
1503610361267,11, -3, -3, -3, -1, 1, 5, 27
1503610361281,5, 8, 3, -2, 0, 2, -2, -2
1503610361304,0, 2, 21, 10, 3, 4, -1, 3
1503610361326,-10, -4, -11, -8, -2, -3, -3, -6
1503610361348,-1, -5, -3, -3, -2, -4, 0, 0
1503610361363,0, 8, 8, 2, -2, -3, -8, -10
1503610361386,-4, -3, -9, -3, -2, 2, 0, -2
1503610361409,13, 10, 0, -2, 0, -2, -1, 4
1503610361423,-15, -11, -6, -3, -3, -1, 2, -11
1503610361445,2, 3, 7, 3, 1, 1, 1, 0
1503610361468,-12, -13, -5, -3, -4, -2, 2, -2
1503610361483,6, 2, 3, 2, -1, -2, -4, -5
1503610361506,-17, -8, -11, -3, 1, -1, -3, -1
1503610361528,1, -6, -1, -1, -1, 0, 0, -8
1503610361543,26, 6, 0, -2, -3, -1, 3, 22
1503610361565,-16, 4, 1, 0, 0, 3, 1, -6
1503610361588,-11, -25, -21, -8, -6, -4, -6, -17
1503610361603,3, -16, -9, -3, 0, -2, -2, 1
1503610361625,5, 8, 10, 6, 3, 0, 2, 4
1503610361648,-28, -6, -1, -2, -2, -2, -1, 3
1503610361663,5, 24, 16, 3, 1, -1, -2, -10
1503610361685,39, 12, 7, 5, 2, 2, 0, 11
1503610361708,-3, -13, -10, -7, -4, -2, 0, 9
1503610361723,-9, -9, -9, -2, -1, -1, -2, -4
1503610361746,9, 12, 12, 3, -1, -1, -2, -11
1503610361770,-3, -4, 18, 10, 6, 3, 4, 9
1503610361783,-2, -14, -25, -9, -4, -3, -1, 5
1503610361811,39, 24, 4, 0, 0, -2, 1, 32
1503610361828,-24, 4, 25, 11, -1, 0, 0, -7
1503610361843,-18, -74, -19, -6, -4, -6, -9, -19
1503610361866,17, 20, -6, 0, 0, -2, 1, -16
1503610361888,-31, -5, -11, -9, -5, -3, -1, -32
1503610361905,-31, 25, 1, -6, -2, 0, -5, -21
1503610361925,-5, 1, -6, -6, -3, -1, 4, 26
1503610361948,8, 7, 5, 0, 3, 1, -5, -31
1503610361963,18, 26, -2, -5, -1, -2, 3, 9
1503610361986,11, 21, 4, 3, 1, 3, 3, 8
1503610362009,6, 7, 12, 8, 1, 0, 5, 16
1503610362023,-5, 26, 17, 5, -1, 1, 2, 1
1503610362047,0, -19, 2, 5, 0, -3, -4, -1
1503610362068,2, -16, -10, -3, -5, -1, 0, 17
1503610362083,-12, 1, -1, -1, 0, 1, -1, -2
1503610362106,-1, -22, -7, -3, -2, -1, 4, 12
1503610362128,-2, -26, -5, -3, 0, -1, -4, -4
1503610362144,4, -2, -6, -5, -3, -1, -1, -7
1503610362173,-1, -10, -7, 3, 3, 0, -1, -8
1503610362195,-42, -2, 6, 3, -1, -3, -5, -5
1503610362203,11, -6, -9, -4, -1, -1, -1, -1
1503610362225,-14, -10, -10, -5, -2, -3, -2, -2
1503610362249,2, 3, -2, -2, -1, 0, 2, 9
1503610362270,29, 23, 0, -5, -2, -1, 1, 16
1503610362286,0, -6, -6, -2, -1, 0, 1, -4
1503610362309,-2, -13, -1, 1, -1, 0, -3, 6
1503610362330,14, 3, 3, 3, 3, -1, 1, -3
1503610362347,3, -4, 5, -4, -2, -1, -4, -7
1503610362368,-6, -4, -10, -4, -2, 0, 0, -2
1503610362390,0, -6, -4, -3, -4, 1, -1, 0
1503610362411,-7, 0, 7, -1, -3, -3, -5, -8
1503610362428,-2, 6, -1, 5, 5, 3, 1, -7
1503610362450,0, -4, 5, 2, 1, -1, 2, 1
1503610362465,-13, -10, -1, 0, 0, -1, -4, -3
1503610362488,8, 3, 0, -1, -1, 0, 0, -2
1503610362511,-8, -20, -16, -5, -5, -4, -6, -8
1503610362525,-3, -1, -9, -6, -4, -4, -2, -1
1503610362548,12, 29, 15, 7, 0, -2, -5, -3
1503610362570,-2, 0, -4, -2, 1, -1, 2, 5
1503610362586,-4, -25, -15, -8, -2, -3, -4, -5
1503610362609,-1, 8, 2, -3, -6, -2, -3, -15
1503610362630,-15, -1, 10, 2, 0, 3, 3, 2
1503610362647,-2, -4, 4, 2, 0, -1, 4, -11
1503610362668,11, 13, -1, 2, 3, -6, -20, 14
1503610362690,4, 5, 3, 4, 3, 1, 3, -1
1503610362705,2, 3, 3, 14, 15, 7, 7, 20
1503610362721,3, -7, -1, -4, -4, 2, 5, 4
1503610362736,0, -4, 3, 0, -1, -1, 0, 4
1503610362758,-17, -10, -2, 0, -1, -1, -1, 1
1503610362781,-3, -5, -6, 3, 4, -2, 1, -6
1503610362796,7, 1, 1, -12, -14, 9, 5, 5
1503610362819,3, 2, -2, -6, -4, -2, -1, -2
1503610362840,-6, 1, 5, 4, 2, -7, -9, -17
1503610362856,0, 1, 1, -3, 1, 1, -1, -3
1503610362878,1, 1, -2, -1, 2, -1, 8, 3
1503610362901,-6, -2, -2, -1, -1, -3, -6, -2
1503610362916,6, -1, -6, -2, 1, 3, 7, 16
1503610362938,-6, 4, -3, -4, -4, -5, -3, 18
1503610362960,27, 8, -1, 1, 1, 0, -7, 12
1503610362979,14, 4, -7, -2, -5, 0, 1, 3
1503610362998,-13, -15, -3, 1, 3, 1, -2, -19
1503610363021,3, 7, -13, 0, -1, -2, -3, -6
1503610363036,-23, 30, 20, 0, 0, -2, 1, -14
1503610363059,-14, -21, -2, 2, 3, 2, 3, 2
1503610363081,17, 0, 7, 5, 3, 3, 1, 7
1503610363096,20, 24, 5, 1, -3, -3, 2, 8
1503610363119,34, 3, -4, -3, 0, 0, 0, 3
1503610363141,-9, -27, -9, -2, -4, -3, -3, 13
1503610363156,-6, 4, 7, 1, -1, -6, -11, -31
1503610363180,-5, -14, -5, -4, -1, -1, 1, -2
1503610363200,-14, -8, 6, 4, 3, 4, 4, -1
1503610363223,-29, -19, -6, 1, 0, -1, -3, -1
1503610363238,-7, -38, -25, -4, -1, 0, -1, 4
1503610363260,-1, -8, 1, -1, -2, -1, 4, 18
1503610363283,6, 3, 0, -4, -5, -2, 0, 13
1503610363298,-20, 23, 16, -2, -1, -2, -6, -22
1503610363321,1, -7, -2, -5, 2, 1, -4, -14
1503610363343,5, 10, -3, -1, -4, -5, -3, -12
1503610363351,-7, -21, -14, -5, 0, -3, -3, -17
1503610363372,-14, -26, -9, 1, 2, -2, -4, -6
1503610363389,-6, 0, -3, 0, -1, -1, -4, -2
1503610363410,34, 5, 4, 3, 3, 5, 3, 6
1503610363432,-8, -3, -8, 1, 0, 1, -6, -1
1503610363449,0, -4, -3, -1, -3, 0, 3, 2
1503610363470,8, 5, -3, -7, -3, -3, 4, 5
1503610363492,25, 8, -2, 4, -1, -5, -4, -1
1503610363508,-12, -15, -11, -4, -4, -1, 0, -1
1503610363530,-17, 3, -2, -4, -2, 0, -2, -12
1503610363554,-1, 5, 5, -1, 0, -1, 0, 4
1503610363568,-14, -1, 5, 2, 0, -1, -2, -12
1503610363591,-11, -4, -2, -2, -1, -1, 0, 5
1503610363612,8, 6, 3, -3, 0, -1, 3, 6
1503610363635,-3, 15, 2, -6, -4, 0, 2, -2
1503610363658,-9, -12, -6, -6, -3, -1, -2, -1
1503610363672,-12, -5, 2, 1, 4, 3, -5, -8
1503610363690,-1, -3, 2, 6, 0, 0, 0, 4
1503610363710,-2, -1, -10, -4, -1, 1, 2, -6
1503610363732,-17, -18, 0, 1, 2, 0, 0, 2
1503610363749,-10, -12, -7, -7, -7, -2, -1, 0
1503610363764,-10, -2, -1, -2, -2, 0, -4, 0
1503610363778,4, -21, -7, -2, -6, -4, 0, 3
1503610363800,-18, -3, -4, 7, 9, 4, -1, -6
1503610363824,19, -7, -8, -6, -6, -2, 2, 1
1503610363838,-21, 2, 0, -3, 2, 2, 3, 2
1503610363861,23, 14, -1, -4, 2, 1, 2, 2
1503610363885,6, 9, 4, 1, 1, 0, -1, 5
1503610363899,-8, 2, -3, -7, -6, -2, -4, -8
1503610363917,15, 10, 1, -2, -6, -2, -1, -1
1503610363928,-7, -6, -4, -6, -4, -1, 2, -1
1503610363951,1, -10, -8, -5, -2, -3, 1, -7
1503610363972,19, 1, 6, 7, 6, 1, 1, 3
1503610363981,3, -9, 3, 1, -1, 2, 4, 3
1503610364003,10, 5, 4, 3, 3, 0, 0, 4
1503610364020,-32, -1, 0, 0, 0, -1, 0, 3
1503610364040,9, 1, 1, 3, 2, 1, 4, 16
1503610364063,14, 4, 2, -2, -2, -3, -1, 4
1503610364078,5, -2, 1, -2, -1, 1, -1, -7
1503610364093,15, 4, -1, -1, -2, -1, -3, -11
1503610364108,-12, -5, 7, 0, -2, -6, -9, -19
1503610364130,20, 11, 1, 0, -2, -2, 1, 8
1503610364154,3, -4, -8, 0, -2, 0, -1, 4
1503610364175,-8, 26, 18, 6, 3, 2, 4, 15
1503610364191,-14, -4, 1, 5, 4, 1, -5, -23
1503610364212,-6, -16, -11, -2, -1, 2, 3, -18
1503610364235,25, 12, -7, -7, -4, -2, 1, 9
1503610364250,-13, -18, -10, -6, -2, -2, 1, -10
1503610364272,-1, -6, -12, -6, -6, -2, -1, 4
1503610364295,9, 10, 3, -2, -2, 1, 1, 15
1503610364311,-12, 0, -7, -6, 1, -1, -2, -9
1503610364332,-18, -14, -1, 2, 0, 0, -1, -4
1503610364355,10, 12, 5, 2, 3, 2, 1, 6
1503610364370,14, -4, -1, 2, -1, -2, -1, -1
1503610364387,3, 4, 0, 5, 1, 0, -3, 2
1503610364400,-22, 16, -3, -8, -4, -3, 0, -8
1503610364423,3, -15, -11, -9, 1, -4, -8, -9
1503610364445,-5, -5, 5, 2, -3, 0, 0, -2
1503610364460,6, -5, -4, 0, 3, 2, -1, 1
1503610364483,0, -14, -1, 2, 4, 0, 0, 6
1503610364505,11, 4, 9, -1, 1, 0, 1, 2
1503610364522,3, 1, 10, 1, -5, 0, 0, 0
1503610364543,6, 2, 5, 3, 0, 0, -2, -2
1503610364566,5, -9, -15, -7, -10, -3, 0, 1
1503610364581,1, -5, -4, 4, 7, 0, 0, -2
1503610364603,-5, 1, -10, -7, -7, -3, -3, -9
1503610364626,-4, -9, -2, 7, 6, -2, 0, 4
1503610364640,1, 0, -5, -5, -3, 1, -1, 0
1503610364663,-5, -2, 12, 1, 6, 0, -1, -2
1503610364686,3, 4, 6, -2, -4, 1, 1, 6
1503610364701,-1, -1, -4, 0, -1, -2, -5, -6
1503610364725,-3, -2, -1, 1, -4, 0, 0, -1
1503610364745,-2, 3, -9, -9, -5, 0, -1, 2
1503610364762,2, 11, 5, -1, -5, 0, 2, 7
1503610364783,8, 8, 3, 3, 1, 0, -1, 2
1503610364805,-1, -6, -8, -4, -3, -2, 0, 3
1503610364820,-4, -2, -1, 4, 3, -3, -3, -4
1503610364843,-2, 6, 10, 6, 2, 0, -3, -11
1503610364866,-3, -9, -18, -8, -3, -1, 0, -3
1503610364880,3, 4, -3, -2, 5, 1, -1, 6
1503610364903,1, -15, 10, 4, 1, 0, 2, 5
1503610364925,0, 5, 9, 12, 4, 0, 0, -3
1503610364956,-1, -2, 1, 1, -1, -1, -3, -3
1503610364978,2, 12, 12, 0, -1, 1, -1, 1
1503610364995,-4, -19, 2, 4, 3, 0, 0, -1
1503610365017,-9, 4, 4, 4, 5, -1, -3, 0
1503610365038,-9, 19, 10, 2, -8, -3, -2, -2
1503610365054,9, -1, -4, -3, -1, 0, 1, 0
1503610365076,-4, -11, -8, -7, -1, -2, -3, -2
1503610365099,-3, -2, -5, -1, 2, 0, -1, 1
1503610365120,7, 1, -11, 0, 1, 4, -3, -14
1503610365136,20, 5, -12, 2, 4, 0, 1, 3
1503610365160,-11, -9, -2, -4, -2, -2, -1, -4
1503610365173,10, 3, 11, 3, 0, 0, 2, 5
1503610365196,-5, 0, 2, 2, -3, -1, 3, 8
1503610365218,-4, -9, -2, -7, -7, -5, -1, 0
1503610365234,-1, 3, -2, -4, -1, 0, 0, -2
1503610365256,3, -1, 13, 6, 5, 0, 1, 2
1503610365278,-6, -14, -12, -3, -4, -2, -2, -4
1503610365295,-5, -20, -9, -3, -2, -1, -2, 2
1503610365316,4, 27, 22, 8, 1, 0, 1, -1
1503610365338,6, 12, 0, -4, 4, 0, 0, 0
1503610365354,-5, 2, -6, -3, -3, 0, -2, -1
1503610365376,12, -75, -33, -3, -2, -2, -4, -4
1503610365399,-1, 7, 3, 0, -2, -1, -3, -3
1503610365414,1, 18, 7, 2, 1, 0, 2, 2
1503610365437,-8, 10, 2, -4, 1, 1, -1, -1
1503610365458,-1, -1, -1, -1, 0, -1, -1, -4
1503610365474,2, 24, 1, -4, -1, 3, 1, 5
1503610365498,-1, -8, -6, -7, -2, -3, -1, 0
1503610365518,-7, -5, -2, -1, -2, -3, 0, 2
1503610365535,-1, 5, 3, 4, 2, 0, 1, 0
1503610365556,-5, -3, -2, -2, -4, -2, 0, 1
1503610365578,5, 6, 8, 0, -1, 1, 2, 2
1503610365593,-5, -6, -12, -3, -4, -3, -3, -5
1503610365623,0, 2, -1, 0, -1, 0, -2, -1
1503610365639,-5, 1, 6, 4, 0, -3, -3, -5
1503610365653,2, 1, 0, -1, 0, 0, 2, 5
1503610365676,-1, 7, 1, 2, 1, 0, -2, -4
1503610365698,2, 1, -3, -1, 0, 2, 0, 0
1503610365713,-1, -3, 1, -1, -3, -1, -2, -5
1503610365736,4, 3, 3, 2, -1, -2, -2, 4
1503610365758,-3, -4, 2, 0, -1, -2, 0, -1
1503610365778,5, 3, 3, 5, 3, 0, 1, 2
1503610365797,2, 1, 1, -2, -2, -2, -2, 3
1503610365818,-4, 2, -5, -7, -5, -3, -2, -2
1503610365835,1, 1, 5, 1, 3, 0, -2, -4
1503610365856,-4, -5, -5, -4, -1, -1, -1, 0
1503610365879,0, -1, 0, -1, -3, 0, -1, -1
1503610365894,-1, 0, -2, 0, -1, -1, 2, 0
1503610365916,-3, -3, 2, -1, -4, -2, -2, -2
1503610365938,1, -14, -10, -5, -1, 0, 0, -1
1503610365953,-4, 1, 2, 1, 0, -1, 0, -3
1503610365976,1, 4, 6, 4, 8, 2, 0, 1
1503610366000,-9, -17, -5, -1, -3, -1, -1, -3
1503610366006,1, -7, -1, 0, 3, 0, 1, 4
1503610366028,-2, -7, 2, -2, 4, 0, 0, 0
1503610366051,-4, -8, -7, -1, -1, 0, 0, -7
1503610366067,2, 5, 7, 4, 3, 0, -1, -7
1503610366088,-6, -15, -16, -10, -5, -2, 0, 0
1503610366111,4, 1, -3, -5, -6, -2, 0, 3
1503610366125,0, 0, 5, 1, -2, 0, 1, -4
1503610366148,-3, -6, 1, 3, 2, -1, 0, -2
1503610366170,-3, -11, -8, -7, -5, -3, -3, 11
1503610366185,-13, -5, -2, -1, -4, 0, -1, -7
1503610366209,-5, -18, -8, -1, -1, -1, -1, -7
1503610366230,1, 5, 2, 0, 3, 1, 0, 13
1503610366245,7, 5, 18, 10, 5, 1, -2, -9
1503610366268,5, 0, -13, -7, -4, -3, -3, -4
1503610366290,4, 7, 1, -2, 2, 0, 0, 0
1503610366305,8, 4, -3, -2, -2, 0, 1, -8
1503610366328,-3, -3, 3, -1, -2, -2, 0, 4
1503610366350,1, 1, 1, 4, 1, 1, 1, 10
1503610366365,-9, 11, -2, -3, -4, -2, -2, -16
1503610366388,-7, -7, 1, 2, -1, -4, -3, -5
1503610366411,2, -8, -2, 2, 1, 1, 0, 3
1503610366425,4, -2, -3, -5, -3, -1, -1, 2
1503610366455,-7, 2, 1, 2, 0, -1, -5, -3
1503610366472,-40, -3, -4, -2, 0, 1, 0, -4
1503610366485,15, 3, 2, 0, -1, 0, 0, 2
1503610366508,4, -5, 4, 1, 0, 0, 1, 2
1503610366530,-4, -8, -4, -7, -1, -3, -1, 1
1503610366545,5, -3, -3, 1, -1, -1, -1, -3
1503610366571,8, -21, -8, -6, -2, -3, 1, 5
1503610366591,-6, -8, -4, 1, -2, -2, -1, 0
1503610366606,-5, 3, 5, 4, 2, 1, 1, -2
1503610366628,1, 2, -13, -5, 0, 0, -1, -1
1503610366650,4, 1, 0, -1, -3, -1, -4, 0
1503610366665,-4, -1, -1, -5, -3, -1, 1, 0
1503610366680,-12, -23, -17, -4, -2, -1, -1, -4
1503610366696,-1, 1, 3, 3, 6, 1, -4, -4
1503610366718,-10, -5, -2, 5, 0, 1, -2, -3
1503610366741,-3, -2, 3, 3, 0, -1, -1, -5
1503610366756,-7, -5, 1, 1, -1, -2, -2, -6
1503610366779,-2, -3, -14, -8, -1, -1, -1, 0
1503610366800,-8, 5, 2, -1, -6, -1, -3, -4
1503610366816,-6, -2, 5, 2, -1, 0, -1, 3
1503610366843,11, 5, -3, 1, 0, 1, 4, 7
1503610366860,8, 6, 0, 0, 0, -3, 1, 8
1503610366877,21, 26, 1, -8, -8, -6, -8, -13
1503610366898,-6, -2, 1, 1, -2, 2, 1, 0
1503610366920,20, -8, 0, 0, 1, 0, 5, 20
1503610366943,-15, 6, 2, 1, 2, 2, 1, 5
1503610366958,-19, -6, -4, 3, 3, -1, -5, -22
1503610366981,-7, 0, 1, -3, -1, 1, 1, -4
1503610367003,-8, 5, 17, 0, -3, -2, -2, -10
1503610367020,-2, -14, 3, 7, 5, 3, 3, 5
1503610367041,-14, 1, 0, -2, -2, -4, -2, -1
1503610367063,-3, -32, -31, -9, -4, -3, -3, 2
1503610367079,2, 4, 6, 8, 5, 0, 0, 1
1503610367100,7, 1, -4, -4, -2, -2, -1, -1
1503610367123,-6, 5, -4, -7, -3, -1, 2, 2
1503610367142,9, -11, -5, -4, -3, -2, -2, 3
1503610367160,-7, -5, 0, 0, -1, 0, 0, -1
1503610367183,31, 30, 18, 7, 4, 0, -1, 0
1503610367198,-8, 7, -6, -5, -3, -1, 1, -1
1503610367220,-14, -7, -1, 0, 0, 0, 0, -3
1503610367243,9, 0, 0, -3, 0, 0, -2, 4
1503610367251,-10, -19, -8, -6, -2, -2, -3, 3
1503610367277,7, 10, -1, -4, 1, 0, 1, 6
1503610367283,1, -5, -1, 1, 3, -2, 0, 6
1503610367303,-5, 1, 0, -2, -4, -1, -1, -11
1503610367318,2, 3, 1, -2, 0, -1, -3, 3
1503610367343,-5, -15, -6, -5, -1, -1, -1, -2
1503610367363,-7, -1, 0, -1, -4, -2, -8, -20
1503610367378,6, 11, 11, 10, 5, 1, -4, -13
1503610367401,-6, 0, -12, -6, -4, -1, 6, 13
1503610367423,-13, -4, -3, -3, -1, 0, 0, -22
1503610367438,-5, -3, -3, -2, -2, -1, 0, 25
1503610367460,6, -12, -17, -10, -4, -3, 2, 3
1503610367490,-12, -15, 9, 6, 1, 1, -2, -13
1503610367505,3, 4, 22, 12, 8, 4, 1, -7
1503610367521,-10, -3, -12, -5, -3, -2, -4, -1
1503610367544,0, 14, 11, 7, 3, 0, -1, -2
1503610367558,17, -2, -12, 0, 1, 0, 2, 7
1503610367580,13, 2, -14, -10, -6, -5, -3, -6
1503610367603,7, 0, -2, 0, 0, 1, -1, 4
1503610367619,0, 5, 3, -3, -4, 1, 2, 2
1503610367640,-10, -7, 2, -2, -3, -1, 0, -2
1503610367663,-6, -1, 4, -2, -2, 0, 1, 4
1503610367681,-1, 1, 0, 1, 1, -1, 0, -10
1503610367701,-11, 3, -5, -3, -3, -4, -4, -6
1503610367723,-22, -14, 4, 0, 2, -3, -9, -17
1503610367738,4, -14, -8, -4, -1, 1, 8, 35
1503610367761,21, 10, -2, 3, -1, 4, 7, 27
1503610367784,8, -8, -2, 4, 0, -2, -3, -4
1503610367798,-5, -11, -5, -3, -2, -3, -4, -24
1503610367821,10, -13, -6, -3, -3, -1, 1, 2
1503610367843,6, 10, 13, 1, 1, -1, -3, -2
1503610367865,-7, -5, -7, -3, -3, -4, -8, -21
1503610367881,-16, -1, 3, 2, 1, 3, 5, 12
1503610367903,6, -9, 0, -2, -1, -4, -3, -2
1503610367925,-4, 4, 1, 2, 3, 1, 2, 7
1503610367941,25, 15, -6, -3, 0, 1, 1, 8
1503610367963,0, 10, 3, -1, -1, -1, 2, 9
1503610367986,-25, -11, 2, 2, 2, 0, -2, -9
1503610368001,0, 1, -4, -3, 2, -2, -1, 3
1503610368023,2, 4, -1, -1, -1, 2, 0, -2
1503610368047,7, -3, -3, -3, -3, -2, 2, 13
1503610368061,-1, 3, 1, 0, -1, -1, -5, -10
1503610368083,1, -2, 1, -2, -3, -3, -4, 3
1503610368105,-20, -9, -3, -3, -3, -1, -3, -12
1503610368121,1, -6, -2, 1, -1, -2, -3, -2
1503610368143,10, 5, 3, 0, 1, 3, 3, 5
1503610368165,-15, -6, -5, -4, 0, -3, -10, -34
1503610368184,-21, 6, 20, 7, 2, 1, 1, -5
1503610368203,-13, -43, -25, -4, -2, 0, -1, -2
1503610368225,16, -8, -13, -2, 1, 3, 8, 40
1503610368243,-9, -8, 1, 0, -2, -3, -2, -21
1503610368263,-8, -1, -1, -2, -4, -3, -5, -8
1503610368286,13, 34, 12, 2, 0, -1, 3, 10
1503610368301,3, 7, -4, -1, 0, 1, 2, 3
1503610368323,7, 4, -1, -2, 8, 0, -3, -7
1503610368345,-9, 0, -3, -12, -16, -5, 0, 2
1503610368361,-10, 2, 1, -2, 1, 0, 2, 13
1503610368383,-3, 9, 20, 13, 4, 2, 1, 1
1503610368405,33, 18, -4, -4, -6, -4, -2, -7
1503610368421,-19, -12, 2, 3, 3, 0, -1, -11
1503610368443,9, -10, 0, 3, -2, -1, -3, -6
1503610368451,-3, 1, 11, 0, -2, 0, -3, 4
1503610368474,9, 1, -13, -6, -4, -2, -6, -4
1503610368495,-23, 6, -7, -4, -3, 1, 2, -10
1503610368510,-1, 2, 11, 4, -1, 1, -2, -1
1503610368533,-33, -26, -8, -8, -1, -2, -4, -10
1503610368555,-1, -17, -13, -3, -7, -3, 3, 9
1503610368570,36, 19, 2, -3, -2, -3, -1, 0
1503610368594,1, 5, 8, 3, 2, 0, 0, -4
1503610368614,-15, 14, 18, 8, 5, 0, -2, 2
1503610368631,12, -3, -5, -1, -3, -1, 2, 17
1503610368653,-9, -3, 5, 0, 0, 1, 1, 7
1503610368675,1, -3, -4, -2, -4, -3, -2, -9
1503610368686,-9, 1, -1, -1, -3, -3, -4, -2
1503610368705,-7, 7, 3, 5, 1, -1, 0, -4
1503610368722,-8, 5, 9, 4, 1, 2, 2, -2
1503610368743,-4, -3, -6, -6, -1, -2, 0, 11
1503610368766,0, -1, -6, -12, -7, -4, -1, -3
1503610368788,9, 2, -5, -9, -11, 0, 1, 4
1503610368803,4, 6, 1, 4, 3, 2, 3, 12
1503610368826,-15, -19, -10, -5, -3, -1, -5, -21
1503610368848,5, -9, -7, -3, 0, 1, 4, 20
1503610368863,2, 22, 20, 11, 5, 2, 0, -4
1503610368887,-9, -1, -3, -2, 2, 1, 2, 13
1503610368908,8, 8, 8, 2, 0, -1, -2, -1
1503610368923,-7, -4, 3, 4, 2, 1, -2, -8
1503610368945,5, 22, 27, 12, 2, 0, 3, 11
1503610368968,1, -15, -17, -8, -2, -2, -5, -6
1503610368983,-2, -5, -2, -4, 1, 1, 1, 1
1503610369005,-10, -13, -11, -3, -3, -1, -1, 1
1503610369029,0, -5, -4, -2, -2, -2, 0, -6
1503610369043,-1, 1, 3, 1, 0, -1, -2, -2
1503610369066,6, 23, -1, -3, -3, 0, 1, 11
1503610369089,-5, -3, -4, -3, -3, -3, -4, -10
1503610369103,-14, -17, 10, 7, 4, 0, -1, -2
1503610369125,16, 21, -2, -2, 0, -1, 2, 4
1503610369148,9, -2, -11, -2, -2, -2, -2, 2
1503610369163,1, -3, -1, -3, -3, -2, -1, -4
1503610369185,-8, -17, -8, -4, -1, -5, -3, -4
1503610369207,-2, -2, -3, -1, -2, 2, -2, 2
1503610369214,-16, -16, 4, 3, 1, 3, 3, 3
1503610369237,6, -9, -19, -8, -6, -5, -6, -8
1503610369261,35, 10, 1, 1, -1, 1, 0, -10
1503610369274,-14, -6, -3, -3, -3, -1, 1, 3
1503610369298,10, 1, 4, 1, 0, 0, 1, 7
1503610369313,1, -5, 5, 1, 2, 0, 4, 15
1503610369342,-19, -12, -5, -3, -2, -1, -3, -10
1503610369358,0, -14, -8, -2, 0, -2, 1, 13
1503610369372,6, 1, -11, -3, -3, -1, -3, -11
1503610369398,-7, -4, 3, 3, 0, -1, 0, 12
1503610369417,-38, -11, -9, -4, 0, -2, -3, -12
1503610369433,9, 8, 10, 1, 0, -4, -8, -33
1503610369448,-4, -6, -12, -12, -6, -1, -1, -4
1503610369463,-2, -2, -6, -1, -1, -2, -3, -4
1503610369485,-6, 2, 15, 7, 4, 1, -3, 3
1503610369494,1, -18, -8, -1, 4, -1, -5, -12
1503610369508,-6, 25, 17, 0, -1, 1, 0, 1
1503610369524,-1, -13, -14, -4, -4, -3, -2, -5
1503610369545,2, -6, -3, 0, -1, 1, 1, -2
1503610369568,-6, -9, 0, 1, -1, -1, -1, -2
1503610369583,-4, -31, -16, -5, 0, -2, -2, -1
1503610369605,0, -15, -16, -5, -4, -1, -3, -5
1503610369628,5, -5, -4, -2, -4, -4, 1, 3
1503610369642,-4, 5, 8, 1, 0, 0, -2, -4
1503610369659,5, -9, -4, 0, 3, 1, 0, -2
1503610369673,7, -8, -13, -5, -2, -2, 0, 1
1503610369695,19, 3, 6, 0, -1, 0, -1, 2
1503610369703,-3, 5, 7, 4, 0, 1, -1, -1
1503610369725,-3, -13, -9, -4, -2, -1, 0, 0
1503610369748,6, 15, 15, 3, 3, 1, -1, 2
1503610369770,6, 0, -14, -5, -3, -3, -3, 0
1503610369785,-4, 6, 4, 2, 1, 0, 0, -3
1503610369808,-11, 10, 13, 4, 2, 0, -1, -5
1503610369830,18, 7, -4, 0, -1, -2, -1, 3
1503610369845,-13, -3, -4, 1, -2, -1, -2, -2
1503610369868,-3, -1, 0, -3, -3, -3, -1, -1
1503610369890,6, -1, -7, -1, -2, -2, 0, 0
1503610369905,4, -9, -5, -1, -1, -1, 1, 2
1503610369928,-3, 0, 11, 5, -1, -1, -1, -2
1503610369936,0, -29, -13, -4, -3, -1, 0, -6
1503610369957,6, 17, 23, 10, 3, 4, -1, -3
1503610369979,-9, -17, -19, -4, 0, -1, -1, -1
1503610369999,24, 32, 4, 1, 1, 0, 0, 1
1503610370017,-9, 2, 2, 7, 0, -1, -1, -4
1503610370040,-2, 12, 5, -2, 0, 0, -5, -20
1503610370067,-9, -1, 2, 0, 1, -2, -3, -12
1503610370085,0, 26, 5, -1, -2, 0, 1, 14
1503610370101,-20, -35, -16, -6, -4, -2, -3, 2
1503610370108,-1, -5, 8, 7, 4, 1, 1, 8
1503610370132,0, -3, -2, -3, -2, 0, 1, -15
1503610370145,5, 1, 6, 0, -3, 0, 4, -1
1503610370168,-3, -4, -3, 1, 1, 1, -3, -2
1503610370190,11, -1, -7, -6, -4, -3, -3, -7
1503610370205,-5, 19, 18, 5, 2, 0, 1, 4
1503610370230,-3, -23, -16, -5, -5, -1, 2, 7
1503610370250,-28, -9, -2, -1, 3, 0, -1, -6
1503610370266,15, 6, 5, 5, 6, 2, 1, -3
1503610370287,-4, 1, 0, 1, 1, -1, 0, -2
1503610370304,8, 9, 2, 0, -1, 0, 2, 0
1503610370324,8, 7, 11, 5, 1, 2, 1, 1
1503610370341,-6, 6, -20, -11, -6, -4, -3, -3
1503610370366,-3, 3, 2, -1, -2, 0, -1, -13
1503610370378,-12, -13, -7, 0, 0, 0, -2, 0
1503610370401,-7, -6, -2, 1, 0, -1, 4, 18
1503610370432,-22, -23, -15, -4, -2, -4, -2, -3
1503610370445,17, -4, -7, -6, -4, -2, 0, -6
1503610370468,0, 7, 1, -2, 0, 0, 1, 5
1503610370490,-4, -7, 8, 2, -1, 1, -1, 3
1503610370506,2, -25, -7, -3, -1, 0, -4, -15
1503610370533,0, 2, -3, -2, -2, -3, -5, -18
1503610370543,19, 12, 1, -2, 0, 1, 4, 18
1503610370558,0, 14, 2, -1, 0, -1, -2, -4
1503610370581,0, -3, 9, 5, -1, 0, -3, -31
1503610370588,-19, 12, 3, -1, -1, -3, -3, -31
1503610370610,3, 26, 8, 0, -1, 0, 0, -2
1503610370625,19, 22, 0, -8, -1, 0, 5, 8
1503610370647,-26, -2, 9, 6, 0, -3, -4, -10
1503610370670,12, -6, -9, 0, -2, 0, 0, 4
1503610370692,3, 0, 0, -2, 1, -2, -3, -9
1503610370708,14, 17, 3, 1, 0, 0, 1, 19
1503610370732,-2, -7, -3, -1, -1, -1, -4, -5
1503610370753,-1, 3, 9, 2, 2, -2, -1, -5
1503610370769,-2, -6, -7, -4, -2, 1, 0, 4
1503610370790,-12, -10, 1, 0, -3, 0, -4, -11
1503610370813,-2, 13, 7, 1, -1, 1, 1, -4
1503610370828,5, 3, 0, 4, 3, -2, -5, -10
1503610370844,2, 8, 15, 7, 0, 0, 0, 5
1503610370858,-8, -6, -12, -3, -2, -3, -6, -9
1503610370880,4, 8, 9, 1, -2, 0, 0, 3
1503610370888,10, -7, -5, -2, -2, -1, 1, 7
1503610370910,12, -3, -17, -3, -2, -1, 1, 9
1503610370934,12, 3, 1, 3, 0, 0, -4, 0
1503610370947,1, 1, -5, -7, -1, 0, -2, 2
1503610370963,11, 8, 8, 4, 2, 2, 3, 17
1503610370978,1, -4, -7, -4, -2, 0, -3, -7
1503610371001,-4, -1, 2, 0, 1, -1, 0, -3
1503610371023,-2, -8, -5, -4, -2, -2, -2, -1
1503610371040,-4, 0, 0, -1, 0, 1, -1, -3
1503610371061,-3, 4, 2, 1, 0, -1, -1, 3
1503610371083,3, 3, -2, -7, 1, 0, 1, 3
1503610371098,5, -22, -14, -3, -4, -3, 0, -2
1503610371120,8, 15, 4, -6, 1, 1, 4, 9
1503610371127,-2, -9, -4, 0, -1, -1, 0, -2
1503610371150,-1, 0, 3, -1, -1, -1, -5, -12
1503610371173,4, 30, 9, 0, 0, -1, -3, -10
1503610371187,-1, 1, -6, -1, -1, 0, -1, 3
1503610371211,-3, 2, 6, 3, 3, -1, 0, -1
1503610371236,0, -2, -2, -3, -2, -2, 0, 8
1503610371247,2, -7, 4, 3, 2, 0, -2, 2
1503610371270,7, -5, -12, -7, -1, 2, 4, 12
1503610371293,-3, -5, 0, 2, 0, 1, 1, -21
1503610371308,-6, -5, 3, 0, -2, 1, 1, 7
1503610371330,0, 2, -2, -1, 0, 0, 0, 4
1503610371353,6, 25, 12, 6, 3, -1, -3, -13
1503610371374,-9, 8, -6, -4, -2, -1, 0, 0
1503610371390,2, -21, -8, -2, -3, -5, -3, -9
1503610371413,-2, 3, 7, 3, 1, 2, 1, -6
1503610371428,-2, -4, -2, -1, 0, -1, -1, 0
1503610371450,-2, 14, 2, -3, -1, -3, -2, 1
1503610371473,-7, 3, 17, 8, 1, -2, -5, -8
1503610371487,-9, -12, -14, -6, -2, 0, -2, 6
1503610371510,5, 22, 11, 4, -1, 0, 0, -4
1503610371518,4, -3, -5, -5, 1, 0, 2, 6
1503610371541,0, 3, 7, 6, 0, -1, -2, 1
1503610371563,-3, 6, 21, 8, 5, 2, 0, -2
1503610371578,-6, -10, -16, -7, -5, -4, -6, -6
1503610371601,0, 3, 4, 1, 0, 1, 2, 1
1503610371616,-4, -4, -6, 0, -2, 0, 1, 4
1503610371630,2, 2, 7, 4, 3, 0, -2, -2
1503610371652,-3, 4, 3, -8, -5, -3, -5, -6
1503610371678,6, 10, 5, 0, 0, 1, -2, -1
1503610371690,6, 7, 3, 4, 0, 0, 3, 6
1503610371713,-2, -3, 12, 14, 6, 3, 0, -3
1503610371736,1, 1, -3, -5, -4, -4, -2, 5
1503610371744,0, 3, -3, -7, -1, 1, -1, -2
1503610371765,-2, 6, 5, 1, 2, -2, -2, -4
1503610371782,-4, -4, 4, 6, 3, -3, -2, 0
1503610371803,-3, -19, -18, -11, -7, -1, -1, -5
1503610371825,4, -3, 7, 6, 1, 1, -2, 0
1503610371842,-3, -2, 19, 13, 6, 3, 1, 3
1503610371863,1, 4, -14, -16, -8, -5, -4, -6
1503610371892,-4, -4, -22, -12, -4, -1, -1, -3
1503610371901,3, 10, 4, -2, 0, -1, 0, 2
1503610371923,5, 0, -8, -7, -2, -1, -1, -3
1503610371945,-3, 7, 2, 2, 3, 1, -1, -2
1503610371960,4, 9, 20, 14, 4, 1, -1, 4
1503610371984,-6, -4, -2, -6, -3, -1, -1, 0
1503610372005,-8, -12, -13, -4, -4, -4, 1, 7
1503610372013,6, 14, 11, 11, 1, 1, 0, -1
1503610372036,8, 7, 11, 6, 8, 2, 0, 6
1503610372052,-11, -16, -11, -9, -7, -3, 0, -5
1503610372075,-22, -10, -9, -1, 3, 1, -4, -6
1503610372095,10, 3, -12, -5, 0, -2, 0, 3
1503610372111,-4, -8, -8, 2, -2, -1, -1, -3
1503610372133,5, -2, -4, 1, 1, -1, -1, -4
1503610372155,11, -4, -4, -3, -5, -1, 3, 11
1503610372170,-4, 2, 3, -3, 1, -1, 0, 0
1503610372192,-10, 14, 11, 5, 0, 2, -3, -7
1503610372215,-2, -1, -8, -13, -8, -4, -4, -6
1503610372230,4, 3, 21, 10, 4, 3, 1, 1
1503610372252,-6, -1, 13, 6, 3, 1, -1, -8
1503610372276,9, 3, -8, -6, -5, -3, -4, -1
1503610372290,5, -1, -4, -1, -1, -3, -2, 0
1503610372313,-2, 3, 0, 4, 1, 0, -3, -7
1503610372335,-3, -5, -7, -6, -2, -1, 0, -3
1503610372350,5, -7, -2, -4, -1, 1, 1, 1
1503610372372,-4, 0, -9, -2, 0, 0, 3, 9
1503610372395,-9, -13, 10, 4, 0, 2, 1, 0
1503610372425,-8, 22, 31, 5, 3, 2, 0, -4
1503610372440,1, -31, -10, -3, -1, 0, 1, -3
1503610372455,-4, 6, -10, -5, -5, -1, 0, 1
1503610372473,-1, -14, -13, -7, -3, 0, 0, -1
1503610372492,4, -4, 7, 7, 3, -3, -2, -2
1503610372515,-7, -1, -6, -8, -3, -2, 1, 2
1503610372537,2, 2, 5, 0, -2, 0, -1, -1
1503610372554,-2, 4, 6, 2, 0, 0, 0, -2
1503610372575,7, 8, 7, 4, 2, 0, -1, -5
1503610372597,-1, 0, 10, -3, -4, 0, -1, 0
1503610372621,5, 2, -9, 0, 2, 1, 1, 3
1503610372642,-5, -5, -5, -3, -2, -3, 0, 1
1503610372658,-2, 1, 0, 3, 5, 1, -1, -1
1503610372673,-10, -12, -13, -4, -2, -4, -1, -2
1503610372695,-7, -13, -9, -6, -10, -2, -1, 0
1503610372717,8, 6, 3, 2, 3, 0, 3, -1
1503610372732,-3, 2, 10, 1, -1, 4, -1, -1
1503610372755,-2, -1, 5, -1, -1, -2, 0, -1
1503610372777,5, 10, 0, 0, 4, 1, -2, -3
1503610372792,-4, -14, -26, -15, -9, -3, -3, -1
1503610372815,-3, -8, 1, -1, -1, -2, 0, -1
1503610372837,2, 6, 8, 5, -2, -1, 0, 0
1503610372848,1, 2, -5, 0, 4, 1, 0, -5
1503610372867,-3, -5, -1, 1, 0, -1, 0, 9
1503610372883,-3, 0, -5, -6, 1, -1, -2, 39
1503610372906,2, -5, -7, -3, -5, -2, -1, -35
1503610372915,-1, -1, -2, -1, 1, 0, -4, -6
1503610372935,1, 3, 25, 14, 7, 1, 0, 3
1503610372957,-3, -1, -9, -4, -2, -2, -1, -18
1503610372973,-2, 7, 6, -2, -1, 1, 0, -6
1503610372995,-4, -3, -7, -2, -1, -3, 0, 10
1503610373020,3, 4, 15, 6, 3, 1, 0, -4
1503610373032,-3, -4, -7, -4, 0, -1, -2, -7
1503610373055,5, 7, 3, -2, -1, -2, 1, 0
1503610373077,4, -5, -14, -6, -3, -3, -2, 2
1503610373092,8, 15, 5, 5, 6, 2, 3, 2
1503610373107,-6, -8, -2, -3, -5, -2, -2, 2
1503610373124,-1, 3, 16, 12, 4, 1, 1, 9
1503610373145,9, -6, -10, -6, -2, -2, 1, -6
1503610373167,0, -4, 2, 3, 2, 2, 0, 12
1503610373185,1, 5, 4, 2, -1, -1, -1, 1
1503610373206,0, 0, -6, 0, -1, 0, 1, -9
1503610373213,0, 1, 6, 4, 1, -1, -3, -11
1503610373235,-3, 1, 5, -2, -2, -5, -2, 8
1503610373259,-2, -5, -8, -4, -3, -3, 1, -4
1503610373272,4, 0, -3, 1, 2, 0, -1, -17
1503610373288,-5, -1, -3, -5, -1, 0, 2, 24
1503610373303,3, 3, -4, 1, -2, -1, -4, -7
1503610373326,1, 4, 18, 9, 2, -1, -6, 4
1503610373356,-3, -7, -4, -5, -2, -2, -2, -1
1503610373377,5, 5, -5, -4, 2, 1, 3, -3
1503610373393,-1, -1, -2, -3, -4, -3, -3, -1
1503610373415,2, 2, 5, 5, -1, 1, 1, 1
1503610373427,-5, -1, -3, -5, -2, -1, 0, 0
1503610373445,5, 8, 1, 2, -1, -1, 0, 3
1503610373467,-4, -23, -11, 6, 2, -4, -3, -3
1503610373491,-8, -3, -4, -3, -2, 0, -1, -3
1503610373505,6, 14, 2, -1, -1, 1, 1, -1
1503610373527,-8, -27, -8, -4, -3, -1, -3, -3
1503610373535,4, -21, -5, 2, -1, 1, 0, 0
1503610373560,8, 9, -8, -4, -3, -2, -4, -1
1503610373579,-11, -11, -11, -4, 0, 1, 1, 1
1503610373595,1, 22, 16, 3, 0, -1, -2, 0
1503610373621,-11, -2, -5, -2, -2, -2, 2, -3
1503610373640,-5, -1, 13, 0, -1, 0, -2, -3
1503610373655,-4, -15, -2, -2, -2, -1, -1, 0
1503610373677,6, 3, -1, 2, 1, 2, -1, 2
1503610373699,-4, 4, -1, -3, -2, -4, -8, -24
1503610373715,3, 5, 3, 0, 0, -1, -1, 3
1503610373745,-2, -4, -13, -1, 1, -2, 0, 9
1503610373773,3, -14, -12, -8, -5, -2, -1, 3
1503610373790,1, -8, 1, 2, -1, 0, 2, 3
1503610373805,8, -11, -4, -4, 1, 1, 3, 15
1503610373829,4, -1, -3, -3, -4, -2, -3, -2
1503610373850,3, 0, 7, 5, 1, -1, -1, -4
1503610373865,8, 4, 18, 6, 3, 1, 2, 14
1503610373888,-13, -6, 1, 2, 1, -2, -4, -2
1503610373910,-5, 2, 3, -1, -1, 1, 0, -1
1503610373939,-1, 3, -1, 0, 1, -1, 0, 0
1503610373956,6, 4, 10, 8, 4, 2, 3, -1
1503610373978,-5, -11, -12, -7, -4, -3, -3, -4
1503610374000,0, 5, -1, -3, 0, 0, -2, -11
1503610374015,-5, 0, 3, -1, -5, -1, 3, 3
1503610374038,9, -10, -12, -9, -5, -2, -1, 10
1503610374059,2, -1, 2, -2, -2, -2, 1, 2
1503610374075,-4, -3, 10, 3, 4, 1, -2, -2
1503610374098,-9, -8, -11, -4, -5, -2, -5, -9
1503610374124,0, -3, -4, 1, 0, -2, 2, 7
1503610374135,-8, 2, -2, 0, -2, -2, -3, 1
1503610374158,-13, -13, -9, -5, -1, -1, -1, -9
1503610374166,1, 3, 2, -2, -3, -2, -4, 0
1503610374191,-7, -4, 2, 11, 4, 0, 1, -1
1503610374210,2, 1, -15, -15, -7, -3, -3, -1
1503610374226,-14, 3, 7, 2, 1, 0, 1, -17
1503610374248,-8, -18, -3, 3, -1, -2, -2, -2
1503610374270,2, 27, 7, -1, -2, -2, 0, 3
1503610374285,1, -15, -2, -2, 1, 2, 2, 5
1503610374307,-2, -7, -19, -5, -5, -2, -7, -18
1503610374330,16, -10, 1, 1, -2, -2, 2, 13
1503610374345,-2, 13, 2, -5, -1, 0, -2, -3
1503610374367,8, -5, -3, -3, 0, 0, 2, 21
1503610374391,-5, 5, 3, 0, -1, 1, -2, -6
1503610374412,10, 1, -8, -5, -5, -3, -2, 10
1503610374428,5, 22, 32, 19, 8, 2, 3, 12
1503610374450,9, 61, 24, 0, -2, 0, 3, 3
1503610374472,-15, -29, -14, -2, -1, 1, -5, -16
1503610374487,-2, -21, -4, -4, -3, -2, 1, 5
1503610374510,5, -24, -30, -14, -3, -3, -4, -6
1503610374532,-6, -11, 0, -1, -6, -3, -1, -4
1503610374547,-1, 8, 3, -3, -1, 0, -2, -3
1503610374570,-2, -3, 8, 0, 1, -1, 2, 3
1503610374593,-2, -10, -11, 2, 1, -1, 0, -2
1503610374600,-3, -1, 3, 5, 2, -2, -1, -4
1503610374622,-13, 3, -5, -4, -1, 0, -3, -4
1503610374638,2, -4, -9, -9, -6, -2, -4, -4
1503610374661,-6, -4, -2, -8, -4, -1, 0, 0
1503610374683,3, -8, -9, 0, 2, 1, -3, -9
1503610374698,-7, 1, 5, 7, 4, 3, 2, 0
1503610374719,-11, -13, 4, 7, 5, -1, -1, -5
1503610374742,9, 11, -2, 1, 0, -2, -4, -2
1503610374757,-8, -4, -4, -5, -4, -2, 2, 2
1503610374780,10, 3, -4, -1, -4, -6, -7, -10
1503610374803,17, 0, -11, -4, -3, 1, 7, 28
1503610374817,-4, 7, 23, 2, -1, 1, 4, 3
1503610374839,9, -12, -7, 13, 5, -2, -7, -17
1503610374862,-5, -2, 5, -1, 1, 1, 2, 0
1503610374877,-9, -7, 3, -2, -3, 0, -1, 0
1503610374899,1, 13, -3, -1, 1, 1, 0, 1
1503610374922,10, 12, 7, 5, 5, 3, 3, 7
1503610374937,1, -2, -2, -3, -4, 1, 1, 3
1503610374952,3, 4, -4, -2, -1, -3, -24, -2
1503610374968,-16, -1, 1, -1, -1, 1, 10, -6
1503610374990,-5, -9, -5, 0, 1, 1, 1, -7
1503610375012,16, -5, 2, 3, 2, -1, 2, 19
1503610375030,2, 12, 4, -2, -1, 1, -2, 7
1503610375050,-3, 11, 13, 10, 0, 0, 2, -9
1503610375073,0, 41, -8, 3, 3, 0, 1, -1
1503610375087,-22, 8, -27, -17, -10, -6, -5, -6
1503610375103,-8, 2, 12, 14, 8, 2, -4, -20
1503610375117,14, 4, 0, 2, 2, 3, 3, 10
1503610375139,6, 11, 2, 8, 11, 3, 2, 5
1503610375164,-9, -16, -34, -19, -9, -5, -2, -4
1503610375177,-7, -15, -10, -3, -2, 0, -3, -5
1503610375199,-3, 5, 14, 9, 4, 0, -1, -5
1503610375222,13, 29, 9, 0, -3, 0, 2, 6
1503610375239,-6, -3, -15, -17, -10, -5, -2, -3
1503610375259,-12, -12, -18, -10, -1, -5, -4, -4
1503610375269,5, 5, 15, 0, -3, -2, -1, 1
1503610375290,-27, -11, -11, -4, -4, -2, -4, -8
1503610375312,26, 19, -9, 4, 5, -1, 6, 5
1503610375335,-8, 12, 14, 3, -8, 2, -4, -19
1503610375350,6, -2, -8, -3, -1, -2, -9, 5
1503610375373,3, -2, -2, -12, -17, -5, -2, -5
1503610375395,28, 2, -9, -9, -5, -3, 7, 33
1503610375410,-19, 1, 13, 5, 4, 0, -3, -20
1503610375433,6, 0, -8, -3, 2, 3, 2, 11
1503610375455,-1, 1, -2, 3, 3, 0, 2, -4
1503610375470,-34, -31, -12, -6, -2, -1, 2, -4
1503610375492,22, -2, -2, -1, -1, -3, -9, 4
1503610375515,-12, -10, 13, 2, -1, 1, 1, -6
1503610375531,1, 13, 2, 7, 3, 2, 2, -1
1503610375552,-5, -5, -7, -1, 1, -3, -4, -7
1503610375575,-14, -4, -1, -1, 1, 1, -1, -3
1503610375590,-19, -11, 3, 7, -3, -2, -4, -2
1503610375612,-5, 3, 4, 4, 2, 1, 5, 13
1503610375635,-3, 7, -17, -8, -5, -4, -9, -6
1503610375650,5, -8, -13, -11, -5, -5, -3, -15
1503610375676,4, -13, -9, -4, -2, 0, 2, 5
1503610375695,1, 2, 9, 8, 3, -1, -3, -27
1503610375710,-13, 6, -12, -10, -3, -1, 5, -12
1503610375733,16, 0, -6, -5, -4, -3, -4, 9
1503610375755,2, 5, 9, 6, 1, 2, 1, 6
1503610375771,1, -3, -4, 5, 2, 1, 1, -2
1503610375792,-6, -2, -6, -8, -6, -4, -1, -9
1503610375809,12, 5, 13, 7, 0, -1, 0, -2
1503610375823,-15, -13, -5, -6, -4, -1, -2, -14
1503610375845,-9, 7, -3, 2, -1, -1, -1, 0
1503610375870,-5, -7, -9, -5, -7, -1, 3, 3
1503610375883,-5, -2, -4, -1, -1, 1, -2, 3
1503610375905,8, 2, 4, 7, 3, 1, -2, 5
1503610375913,2, -3, -9, -2, -5, -2, -2, 0
1503610375936,4, 9, 6, 1, -5, -1, -1, -15
1503610375950,-6, -13, -12, -5, -1, -1, -2, -1
1503610375972,0, 14, 2, -2, -5, -1, 2, 5
1503610375980,-6, -7, -9, -4, -3, -3, -2, -7
1503610376003,-1, 1, 19, 9, 2, 2, 1, 7
1503610376025,3, 1, -3, 2, 4, 2, 2, 0
1503610376040,-7, -11, -18, -8, -7, -4, -6, -6
1503610376071,-7, -19, -11, -11, -5, -3, 0, -6
1503610376092,0, 7, 1, 3, 1, 2, 0, -3
1503610376115,4, 7, 8, 10, 4, -1, 5, 3
1503610376130,2, 3, 3, -1, 1, 3, 4, 2
1503610376152,-11, 12, 30, 19, 9, 0, -5, -2
1503610376176,10, -3, -12, -7, -7, -2, -3, 0
1503610376190,-1, 1, 0, -12, -14, -3, -1, 2
1503610376207,3, -2, -5, -2, 2, 1, 2, 6
1503610376213,6, 4, -7, 2, 0, -2, -1, -2
1503610376237,-2, -1, -1, -3, 0, 0, 5, -1
1503610376257,0, -2, 0, -2, -1, -3, -4, 2
1503610376265,-5, -6, -6, -6, -3, -2, -2, -1
1503610376274,10, 16, 15, 7, 4, 2, 0, -1
1503610376295,-11, -12, -11, -7, -5, -2, -1, -4
1503610376317,2, -4, -7, -4, 1, 0, -5, -5
1503610376332,3, 5, 15, 4, 2, -4, -6, 9
1503610376355,-4, -4, -9, -5, -4, -2, 1, 3
1503610376377,5, -5, 6, 4, 2, 1, 2, -1
1503610376385,9, 4, -6, -8, -7, -1, 1, 10
1503610376408,25, 9, 3, -3, 1, -1, 5, 21
1503610376423,-11, -17, -1, 4, 6, 2, 5, 6
1503610376452,23, -5, -24, -6, -2, -4, -8, -7
1503610376468,-13, -2, -3, -5, -3, -5, -9, -8
1503610376483,-23, 6, 7, 4, -1, -1, -6, -7
1503610376506,9, 5, 2, 7, -1, -1, -4, -2
1503610376528,1, 2, -3, 1, 0, 0, -1, -3
1503610376543,6, 7, 27, 4, 1, 4, 7, 1
1503610376565,2, -3, -8, -3, -2, -1, 1, 12
1503610376587,-6, 1, 0, -2, -1, 0, 0, -7
1503610376603,-2, 14, 10, 5, 4, 2, 1, -4
1503610376625,-11, -10, -5, -5, -3, -2, -6, -14
1503610376649,8, 2, -3, -3, -4, -3, -4, -6
1503610376663,-6, -8, -8, -5, -1, -4, -2, -5
1503610376685,5, -3, -6, -3, -2, -3, -3, 3
1503610376708,-7, -9, 5, 2, 0, 0, 0, -8
1503610376723,-16, 5, 4, 4, 2, 2, 0, -4
1503610376745,-3, 0, -5, 3, 3, -1, 1, 1
1503610376770,-1, -2, -10, -7, -3, -1, -2, -7
1503610376784,5, -4, 1, 2, -4, -3, 1, 8
1503610376808,7, 6, 12, 4, 2, -2, -4, -5
1503610376827,-7, -2, 0, -1, -2, -1, 9, 5
1503610376844,-19, -22, -8, -1, -2, -1, 0, 3
1503610376858,2, -2, -7, -2, -1, -1, 1, 0
1503610376877,-2, -3, 0, 1, 3, 1, 0, 1
1503610376888,1, 7, -2, -4, -3, -1, -3, -1
1503610376903,-3, 36, 33, 6, 3, 4, 0, -1
1503610376919,10, 5, 1, -2, 0, 1, 4, 11
1503610376933,-17, 2, 9, 1, -1, -3, 0, -6
1503610376955,8, 2, -12, -6, -4, -1, -2, 3
1503610376978,-1, 0, -3, 2, 0, 1, -5, -5
1503610376992,1, -1, -2, -3, -2, -2, 0, 1
1503610377015,3, -1, -4, -4, -4, -4, -1, 4
1503610377037,-29, -1, -13, -12, -4, -3, -3, -5
1503610377053,17, 34, 16, 7, 1, 1, -4, -2
1503610377077,-4, -34, -16, -9, -4, -2, -6, -16
1503610377097,1, 5, 12, 3, -1, 0, 2, 3
1503610377112,-13, 1, 7, 7, -1, 4, 8, 10
1503610377128,0, -4, -1, -2, -2, -5, -15, -9
1503610377144,-16, -1, 2, 2, 1, 2, 5, 1
1503610377165,6, -9, -13, -7, -5, -4, 0, -6
1503610377188,-7, -13, -9, -5, -5, -5, -1, -6
1503610377211,14, 7, -1, 2, 1, -1, 1, 0
1503610377225,1, -3, -11, -13, 1, 0, 3, 7
1503610377248,-7, -4, -5, -3, -5, -1, -1, -7
1503610377270,4, -1, -3, 2, 0, -1, -4, -5
1503610377286,-1, -1, 2, 4, 0, -1, -1, -7
1503610377308,-5, 5, 6, 6, 3, 1, 0, -8
1503610377330,0, -4, 2, 3, 0, 0, 2, 4
1503610377346,-9, -22, -13, -11, -7, -4, 0, 3
1503610377368,3, -2, 5, 2, 2, 2, 2, -1
1503610377390,2, 10, 6, 7, 1, -1, -1, 19
1503610377405,-6, -12, -12, -2, -3, -3, -5, -19
1503610377428,6, 1, 5, 6, 5, 5, 5, 17
1503610377450,-8, 8, 12, 0, 1, 0, 1, -9
1503610377465,-13, -11, -22, -20, -4, -5, -12, -8
1503610377488,-15, -8, -7, -2, -3, -3, -3, -6
1503610377510,15, -5, -3, -1, -3, -2, 2, 1
1503610377525,11, 9, 6, 3, -2, 0, -2, 10
1503610377548,-20, 1, 10, 10, 3, 2, 1, -1
1503610377570,24, 18, 3, -4, -3, -2, 2, 3
1503610377590,-7, -12, -8, -7, -3, 0, 1, 2
1503610377608,-19, 0, 1, 0, -2, -2, -4, -8
1503610377637,19, -7, -7, -4, 0, -2, -2, 9
1503610377648,3, 2, 7, 12, 6, 2, -1, -17
1503610377668,3, -5, -4, -5, -3, 1, 3, 7
1503610377691,-4, 13, 6, 2, 1, -2, 1, -8
1503610377706,13, 2, -4, -5, -5, -3, -8, -11
1503610377735,3, -5, -13, -9, -1, 1, 3, 9
1503610377752,8, -4, -2, 2, -1, -4, -4, -7
1503610377767,-7, 16, 16, 12, 2, 1, -3, -24
1503610377788,1, -10, -5, -2, -2, -3, -1, 12
1503610377810,-29, -14, -12, -4, -2, -1, 0, -23
1503610377825,-13, -3, 11, 5, 2, -3, -6, -20
1503610377849,6, 3, 3, 1, 0, 0, 3, -2
1503610377856,17, 3, 3, 3, 1, 2, 1, 5
1503610377877,-3, -9, -4, -6, -3, -1, 0, 6
1503610377887,15, 14, 7, 3, 2, 2, 4, 16
1503610377908,-11, -8, 14, 11, 4, 1, -3, -16
1503610377931,-13, -11, -19, -10, -4, -3, -2, -5
1503610377945,-1, -5, 4, 1, 0, 1, -1, 11
1503610377968,0, -9, -12, -7, -6, -3, 0, 2
1503610377990,6, -2, 10, 5, 1, 0, 1, 9
1503610378006,-2, 5, -2, -3, -1, 0, 3, -5
1503610378028,8, 2, -4, -5, -3, -1, 1, 0
1503610378050,3, -2, 1, 2, -2, 1, 1, 9
1503610378059,-1, 6, 9, 5, 2, 1, -3, -9
1503610378080,-12, 3, 26, 9, 2, 0, -1, -2
1503610378099,2, 7, -6, 0, -1, -2, -1, -3
1503610378118,4, -7, -3, 0, 0, -2, -3, -4
1503610378140,0, 4, 0, 0, -2, 2, 0, 5
1503610378162,1, 13, 2, -6, -2, -1, -2, 0
1503610378177,-13, -19, -22, -12, -8, -6, -5, -14
1503610378200,14, 16, 8, 5, 2, 1, -1, 4
1503610378222,6, 32, 1, -7, 0, -1, 1, 3
1503610378237,-1, -20, -5, 1, -2, 0, -1, -4
1503610378268,1, 7, 3, -2, -6, 0, 0, 4
1503610378282,0, -5, 3, -4, -1, -2, 3, 6
1503610378297,0, 18, 10, 6, 1, -1, 2, 1
1503610378325,-8, -23, -12, 2, 8, 0, -6, -7
1503610378342,2, 2, 5, 5, -1, 1, 0, 3
1503610378358,6, -1, -2, 3, 3, -2, -2, -2
1503610378380,-4, -3, 2, 3, 2, -1, 1, -4
1503610378402,5, 9, -5, -9, -6, -1, 0, -3
1503610378420,3, -2, 9, -2, -3, -1, 1, -1
1503610378440,4, -10, -14, -3, 1, 4, 1, 1
1503610378462,-4, 4, 3, 3, 0, 0, 4, 5
1503610378477,-19, -14, -2, -4, -5, -2, -2, -7
1503610378500,9, 1, 6, 10, 13, 4, 5, 6
1503610378524,1, -7, -8, -8, -6, -7, -6, -2
1503610378537,12, 7, 4, -5, -5, 0, -5, 0
1503610378560,-6, 0, -2, 1, -2, -2, -3, 0
1503610378581,5, -4, -5, 0, -3, -2, 2, -4
1503610378597,-9, -1, 1, -4, -8, -4, -11, -1
1503610378624,2, -2, -3, -2, -6, 1, 8, 9
1503610378641,-7, -1, -4, -7, 0, -4, -5, 2
1503610378650,0, 1, -3, 1, -1, -2, 3, -2
1503610378672,5, 1, 0, -1, 1, -2, 2, 11
1503610378689,-12, 11, 0, -2, 0, -7, -14, -30
1503610378710,-2, 18, 24, 4, 4, 0, -1, 7
1503610378733,11, 6, 17, 11, 7, 4, 2, 5
1503610378748,6, -15, -27, -12, -5, 3, 7, 10
1503610378770,-12, -6, -10, -10, -3, -4, -5, -1
1503610378795,3, -14, -1, 3, 1, 3, 12, 18
1503610378808,13, 13, 3, 4, 2, -1, 0, 13
1503610378830,18, -9, -4, -7, -4, -3, -1, 21
1503610378852,-15, 5, -2, 6, 0, -4, -13, -51
1503610378868,-6, -6, -4, -3, -1, 0, 8, -11
1503610378893,-26, -31, -15, -10, -6, -3, -2, -19
1503610378898,-21, -12, -6, 4, -1, 1, 3, -5
1503610378922,-14, -11, 9, 3, -1, 0, -1, -6
1503610378942,-6, 2, 9, 4, 6, 2, -2, -13
1503610378958,4, 0, -7, -3, -3, 0, 3, 14
1503610378980,11, 26, 13, 2, 1, -3, -2, -3
1503610379002,5, -24, -9, -3, -2, 2, 8, 36
1503610379010,28, -2, -9, -6, -4, -2, 2, 4
1503610379033,-17, -13, -6, -4, -4, -2, 3, -3
1503610379058,1, 8, 11, 5, 1, -2, -6, -2
1503610379070,4, 16, 11, 1, -2, 0, -3, -2
1503610379094,-7, -12, -5, -2, -1, -2, 0, -7
1503610379115,-3, 0, 1, -2, 1, 2, 0, 0
1503610379131,-11, -14, -12, -8, -3, -3, -1, -1
1503610379152,13, -8, -8, -3, -1, 1, 2, 2
1503610379175,-17, -10, -5, 1, -2, -4, -12, -16
1503610379191,-2, -9, -3, -7, -2, 1, 6, 2
