1503604109482,-5, -4, -2, -1, 0, 2, -1, 0, 0
1503604109497,0, -3, -2, -1, 0, -1, -1, 1, 0
1503604109520,0, -1, 0, 2, -1, -2, -1, 1, 0
1503604109552,-3, -9, -14, -4, 0, -1, -3, 1, 0
1503604109572,-2, 2, 2, 1, -2, -1, -1, -2, 0
1503604109587,-1, 1, 1, -1, 0, -1, 0, 0, 0
1503604109609,1, -1, -2, -1, 1, 1, -1, -3, 0
1503604109631,4, 4, 5, 1, 1, -1, -1, 3, 0
1503604109646,1, 0, 6, -1, 1, -1, 1, -7, 0
1503604109670,1, -3, -2, -2, -1, -1, 2, 3, 0
1503604109691,-6, -5, -7, -3, 0, 1, -2, 0, 0
1503604109706,-1, -5, 0, 0, 0, -3, -1, -7, 0
1503604109729,-1, -5, -5, -3, -4, -1, -1, 1, 0
1503604109751,-17, 0, 2, 1, -2, 0, -1, -7, 0
1503604109766,10, 2, 2, 0, 0, 1, -3, 7, 0
1503604109790,1, 8, 9, 2, 1, -1, -2, -5, 0
1503604109813,0, 4, -1, 1, 1, 0, 1, 0, 0
1503604109826,1, -2, -1, 1, -1, -1, -1, 2, 0
1503604109849,1, 3, -3, -1, -1, -1, 0, -1, 0
1503604109872,-1, -1, -2, -2, 0, -1, -1, 1, 0
1503604109888,-2, -11, -9, -4, 1, -1, 0, -1, 0
1503604109909,0, -1, 1, 0, -1, -1, 0, -1, 0
1503604109932,0, 11, 4, -1, -3, 1, -1, -2, 0
1503604109954,2, -5, -5, -2, -1, 0, -1, -1, 0
1503604109970,-3, -6, -8, -3, -1, -1, 0, 1, 0
1503604109992,5, 12, 7, 1, -1, 0, 0, -1, 0
1503604110014,-6, 1, 14, 1, -2, 0, 1, -4, 0
1503604110023,1, -5, -5, -3, -2, 0, -1, 2, 0
1503604110044,-3, -10, -3, -2, 2, -2, -2, 1, 0
1503604110060,3, 1, -3, 1, 0, -1, -1, -4, 0
1503604110082,-5, -1, -1, 0, -1, -1, 1, -1, 0
1503604110104,-1, 0, 1, -1, -3, 1, 0, 0, 0
1503604110120,2, -1, 1, 0, 1, -1, -4, -2, 0
1503604110142,0, 2, -2, -1, 0, 1, 1, -4, 0
1503604110164,-5, 3, 2, 0, -3, -1, 0, -3, 0
1503604110179,1, -6, -3, -2, 1, 0, -3, 3, 0
1503604110202,-1, -3, -2, 0, -2, -3, -1, 2, 0
1503604110226,-17, -7, -8, -1, -1, -1, 0, -2, 0
1503604110239,4, 6, 1, 1, -1, 0, 1, -2, 0
1503604110264,2, -2, -4, -3, -1, 0, 0, -3, 0
1503604110284,3, 2, 3, 0, -1, -1, -1, 2, 0
1503604110301,5, 4, 0, -1, 0, -2, 0, 0, 0
1503604110322,0, 5, 6, 1, -1, -1, 0, -2, 0
1503604110344,1, 8, 10, -1, -1, -3, -5, -2, 0
1503604110363,0, -10, -7, -1, 1, 0, -2, 1, 0
1503604110382,0, -7, -7, -2, -2, 0, 0, 4, 0
1503604110404,-5, -2, -1, -3, -2, -1, 0, -1, 0
1503604110419,0, -9, -8, -2, 0, -2, -3, -2, 0
1503604110442,0, 3, -6, -1, -2, -3, 1, -2, 0
1503604110471,-2, 0, 4, 1, -2, 0, -2, 1, 0
1503604110479,0, 0, 2, -2, -1, -1, 1, -1, 0
1503604110503,-1, 14, 20, 3, 2, -1, 0, -2, 0
1503604110524,2, -6, -9, -2, -1, -1, 0, 0, 0
1503604110540,-1, -4, -4, -2, -1, -1, -2, -3, 0
1503604110563,-3, -2, 2, 1, 0, 0, 0, -3, 0
1503604110584,-4, -4, -7, -2, -1, 1, 0, 3, 0
1503604110599,2, -2, -7, -3, 0, -1, -3, -1, 0
1503604110623,-1, -5, -4, -3, 0, 0, -1, 4, 0
1503604110645,2, -20, -12, -4, -2, 0, -1, 2, 0
1503604110652,1, -13, -9, -3, -1, -2, 0, 2, 0
1503604110674,-1, 0, -1, 0, 1, -1, -2, 1, 0
1503604110689,3, 3, 2, -1, 1, 1, 2, 6, 0
1503604110712,1, -1, -1, 1, -1, 1, -1, -2, 0
1503604110734,-7, -2, -4, 0, 0, -1, 0, 2, 0
1503604110749,1, -2, -3, 0, 0, -1, 2, 2, 0
1503604110772,0, 11, 6, -1, 0, 0, -2, -9, 0
1503604110796,-1, -6, 4, 2, 0, -1, 0, -2, 0
1503604110809,0, -3, -5, -3, -1, -1, -2, 3, 0
1503604110831,0, -6, -7, -4, -1, -2, -2, -2, 0
1503604110854,2, 14, 11, 1, 1, 1, -2, -1, 0
1503604110876,0, -5, -3, -1, -2, 0, -2, -4, 0
1503604110891,2, -2, 1, 0, 0, -1, 0, 1, 0
1503604110914,2, -5, -2, -1, -2, 0, -1, -2, 0
1503604110936,1, 2, 4, -1, 0, -1, -2, -2, 0
1503604110951,-4, 2, -1, -1, -1, -1, -2, -1, 0
1503604110974,0, -7, -8, -3, -5, -2, 0, -3, 0
1503604110998,2, 11, 12, 2, -2, -1, 1, 0, 0
1503604111011,-1, 0, -4, 0, -1, -1, 0, 1, 0
1503604111035,-2, -6, -6, -2, -2, -1, -2, -3, 0
1503604111055,1, -7, -1, 0, 2, 1, -1, -6, 0
1503604111071,-1, -6, -5, 0, 2, 0, -1, 1, 0
1503604111094,1, 9, 2, 1, -1, -1, -2, -2, 0
1503604111116,-2, -3, -4, -2, 0, -1, -1, 4, 0
1503604111133,-2, 0, 4, -1, -1, -1, -1, -1, 0
1503604111154,-2, 3, -4, 0, 0, 1, 0, 1, 0
1503604111176,-2, -8, -4, -1, -2, -2, -1, 0, 0
1503604111191,3, -7, 1, -1, 0, -2, 1, 1, 0
1503604111214,4, 0, -3, -2, -1, 0, 0, 4, 0
1503604111236,-3, 8, 1, -1, -2, -3, 2, -2, 0
1503604111251,-4, -8, -1, -1, -3, -2, -2, -2, 0
1503604111275,-5, 1, 0, -1, 0, 2, -1, -2, 0
1503604111295,-4, -10, -11, -2, -1, -3, -1, -1, 0
1503604111311,4, 12, 2, -2, -1, -1, -1, -3, 0
1503604111334,1, -7, 0, -1, 1, 3, 0, 1, 0
1503604111356,-1, 9, 2, -1, 1, -2, -2, -2, 0
1503604111371,-3, -2, -2, -2, 0, 0, -2, -2, 0
1503604111394,1, 3, 1, -2, -1, -1, 0, -1, 0
1503604111416,0, -6, -3, -1, -2, 0, 0, -1, 0
1503604111431,0, 1, 2, 2, 1, 0, -2, -2, 0
1503604111454,-1, 2, -3, 1, 0, -1, -2, 3, 0
1503604111477,2, -6, -5, -1, 0, -1, 1, 0, 0
1503604111491,1, -2, -1, 0, -2, -3, 0, -2, 0
1503604111514,-15, -1, 4, 0, 1, 0, -2, -5, 0
1503604111536,1, 4, 1, -2, -3, -2, -2, 1, 0
1503604111552,4, 6, 3, 0, -1, 0, -2, 0, 0
1503604111574,3, -2, -4, -2, 1, -1, -2, 0, 0
1503604111596,-1, -10, -2, 0, -2, -1, 1, 1, 0
1503604111611,1, -2, 9, 2, -1, 0, 2, -3, 0
1503604111636,-1, -6, -4, -3, -2, -3, -1, 1, 0
1503604111656,-6, -1, -9, 0, -1, 1, -1, -1, 0
1503604111672,2, -3, -1, 0, 3, 2, 1, -4, 0
1503604111694,2, 0, -7, -1, -2, -1, 0, 2, 0
1503604111716,-12, -5, -3, -5, -1, -3, -3, -4, 0
1503604111731,3, -3, -3, 2, 0, -1, 0, -3, 0
1503604111754,2, 2, 10, 1, 1, 1, -3, 2, 0
1503604111776,3, 7, 1, -1, 0, -1, -2, 3, 0
1503604111798,-1, -2, 0, -1, -1, -1, 2, 3, 0
1503604111814,-1, -8, -4, -1, -1, -2, -3, -1, 0
1503604111843,0, -5, 0, -3, -2, 0, 0, -1, 0
1503604111858,-1, 14, 9, 0, 1, -1, 1, 1, 0
1503604111874,1, -3, -4, -1, -2, 0, -1, 0, 0
1503604111896,0, -2, -7, -4, -2, -4, 2, -3, 0
1503604111918,-1, 3, 0, 0, 1, 0, 0, -3, 0
1503604111933,0, -7, -9, -2, 0, -1, -1, 4, 0
1503604111949,3, 7, 5, 0, 1, 0, -2, 2, 0
1503604111964,0, -2, -9, -2, 0, 1, -1, 5, 0
1503604111987,-5, -6, -5, 0, 0, -4, -2, 0, 0
1503604112009,0, 1, -2, -1, -4, 0, 0, 0, 0
1503604112025,-3, -3, -3, -2, 0, 0, -1, -1, 0
1503604112047,-3, 0, -6, -2, -8, -5, 0, -8, 0
1503604112069,0, 2, 4, 1, 0, 0, -3, -1, 0
1503604112084,1, 4, 6, -2, 0, -1, 0, -4, 0
1503604112106,1, -2, -2, 2, -1, 0, -1, 0, 0
1503604112114,-1, -9, -9, -2, -1, -2, -4, 2, 0
1503604112137,0, 1, -1, -3, -1, -1, -3, -6, 0
1503604112145,2, 0, -4, -2, 1, 0, -1, 2, 0
1503604112166,1, -8, -7, -1, -1, 1, -1, -2, 0
1503604112189,0, -5, -2, -1, 0, -3, 0, -1, 0
1503604112208,0, 1, -2, 1, 0, -2, -2, -3, 0
1503604112226,0, -1, 2, 1, 0, 0, 0, 2, 0
1503604112249,3, 14, 15, 4, 0, 1, 0, 0, 0
1503604112264,0, -1, -3, -4, -3, 0, -1, -1, 0
1503604112286,0, -2, -2, -1, 0, -1, -1, 0, 0
1503604112309,-3, 1, -1, 0, -1, -1, -2, 0, 0
1503604112324,-1, -7, -5, -1, 0, -1, -2, 0, 0
1503604112346,-2, -1, -2, -2, -2, -1, 2, 3, 0
1503604112369,3, 4, 5, 0, -1, 0, -2, -1, 0
1503604112384,-2, -7, 0, -1, -1, -1, -1, 0, 0
1503604112408,-2, 1, 3, 1, 0, -2, -3, -1, 0
1503604112429,-1, -1, -5, -2, -1, -2, 1, -2, 0
1503604112445,-2, -2, -9, -4, -1, 0, -4, 0, 0
1503604112466,2, -5, -3, -1, 1, -1, 1, 0, 0
1503604112489,-3, -2, -6, -3, -2, 0, 0, -2, 0
1503604112504,-1, 0, 0, 0, -1, 0, 0, -2, 0
1503604112526,1, 9, 12, 2, -1, 1, 0, -1, 0
1503604112549,-1, 0, 0, -2, 1, -1, 0, 0, 0
1503604112564,2, -4, -5, -1, -1, -1, -1, 0, 0
1503604112587,-1, 0, 0, 1, 0, -1, 0, 0, 0
1503604112609,-13, -5, -5, 0, 0, -1, 0, -3, 0
1503604112616,1, 6, 5, 1, -1, -1, 2, 3, 0
1503604112638,0, 0, -3, -1, -1, 2, 0, 1, 0
1503604112654,0, 1, -1, 0, 0, 0, -1, -1, 0
1503604112676,-1, -4, -5, 0, -1, -1, 0, 0, 0
1503604112698,-1, -4, -6, -2, 0, -1, 0, -1, 0
1503604112721,-1, -10, -2, -2, 0, 0, -2, 1, 0
1503604112736,-8, -1, -3, -2, -2, 0, 0, -4, 0
1503604112758,-1, 6, 3, 1, 1, 0, -1, -2, 0
1503604112781,-1, -3, 1, 1, 0, -1, 1, 0, 0
1503604112796,0, 0, -1, -1, -2, -2, 1, 1, 0
1503604112819,1, -4, -4, -2, -2, -3, -2, 2, 0
1503604112841,0, 5, 4, -1, 0, 0, -1, 2, 0
1503604112856,0, -9, 0, -1, 0, -1, -1, -2, 0
1503604112878,1, 16, 10, 1, -1, 1, 2, -4, 0
1503604112901,0, -11, -12, -2, -1, -1, -1, 2, 0
1503604112916,1, -5, -5, -1, 0, -1, -1, 1, 0
1503604112938,0, -3, 7, 0, 0, 1, -1, -1, 0
1503604112961,0, 1, -2, -1, -1, 0, -2, -3, 0
1503604112978,1, 2, -2, 1, 0, -1, -2, 3, 0
1503604112998,-2, -3, -6, 0, -1, -2, -1, 1, 0
1503604113021,1, -8, -6, -2, 1, -1, 0, -5, 0
1503604113037,-2, 2, -2, -2, -1, 0, -3, -3, 0
1503604113058,0, -1, 5, 0, -1, -3, -2, 3, 0
1503604113081,0, -4, -5, -2, -1, -1, -2, -1, 0
1503604113096,-1, -7, -7, -1, -2, 1, 1, -1, 0
1503604113119,1, 5, 2, 0, -3, -2, -3, -2, 0
1503604113140,-3, 17, 11, 1, -2, -1, -2, 2, 0
1503604113156,1, -2, -1, -1, -1, 0, -1, 3, 0
1503604113181,-2, -1, -5, -3, -2, -1, 1, -3, 0
1503604113200,0, 0, 3, 1, 0, 0, 1, -1, 0
1503604113223,-1, 9, 4, -1, -1, 0, 0, -1, 0
1503604113238,2, -5, -5, 0, -1, -1, -4, -4, 0
1503604113261,0, -5, -6, -2, 0, -2, -1, 0, 0
1503604113276,0, -4, -1, 0, -1, 2, 0, -2, 0
1503604113298,-3, -2, -4, -1, -1, -2, -1, -2, 0
1503604113321,1, 16, 18, 2, -1, 1, 2, 0, 0
1503604113336,-6, -9, -6, -3, 1, 0, -1, -2, 0
1503604113358,1, -3, -4, -1, -1, 0, -1, -1, 0
1503604113381,2, -1, 1, 1, -1, -2, 0, 0, 0
1503604113396,-3, -4, -10, -4, 0, -1, -1, -4, 0
1503604113418,-8, -5, -4, -1, 0, -1, 0, -3, 0
1503604113440,1, 5, -1, 0, 1, 0, -1, -2, 0
1503604113457,4, -5, -8, -2, -1, -1, -2, 2, 0
1503604113478,1, 3, 4, 0, -1, -2, 0, 3, 0
1503604113500,-2, -3, 2, 0, 0, 0, 2, 7, 0
1503604113516,-2, -1, -2, 0, -1, -1, -2, -7, 0
1503604113538,0, -1, -1, -2, -1, 0, -1, -3, 0
1503604113561,-2, 3, 4, 1, -1, -2, -2, -1, 0
1503604113576,-4, -5, -2, -2, 0, -1, 0, -2, 0
1503604113598,0, -2, 4, 0, 1, -1, -1, 4, 0
1503604113620,4, 1, 0, 0, -1, -2, -2, 0, 0
1503604113643,-4, -3, -7, -3, -1, -1, 0, -4, 0
1503604113658,1, -2, -3, 0, 0, -1, -1, 1, 0
1503604113680,3, 2, -1, -1, -3, 0, -1, 4, 0
1503604113703,4, -6, -2, -2, -1, -1, -2, -1, 0
1503604113722,-6, 1, -1, 0, 0, 0, -2, 0, 0
1503604113740,-5, -4, -3, -1, 1, -1, 1, 0, 0
1503604113763,20, 12, 0, -3, -12, -11, -3, 1, 0
1503604113780,-12, -11, 4, -1, 2, 1, 0, -1, 0
1503604113802,-1, -9, -7, 1, 2, -7, 2, -3, 0
1503604113824,-6, 1, 0, -2, 3, 13, 3, -3, 0
1503604113839,21, 18, -15, -2, 1, -17, -1, 4, 0
1503604113862,17, 12, -10, -5, 42, 27, -6, -3, 0
1503604113886,-7, -11, 3, -1, -13, 1, 3, 4, 0
1503604113899,-3, 1, 23, 5, -5, 3, -1, -3, 0
1503604113922,-14, -21, -9, -4, -11, -20, -4, 3, 0
1503604113944,-13, -6, -1, 1, -2, -14, 2, -7, 0
1503604113967,4, -13, -3, 12, 1, -1, -14, 18, 0
1503604113982,-8, 11, 24, 0, -2, -8, 11, 13, 0
1503604114004,-6, 1, -4, -2, 0, 9, 3, -13, 0
1503604114027,10, 1, -5, -2, -13, -6, 2, 16, 0
1503604114042,-5, 6, -3, -4, -5, 11, -6, -10, 0
1503604114064,-6, -5, -30, -19, -16, 4, -8, -17, 0
1503604114088,-12, -8, -13, -4, 2, -11, 12, 18, 0
1503604114102,2, 13, 19, 17, -4, -85, 1, 3, 0
1503604114125,-4, 1, 8, 4, 16, 19, 29, 30, 0
1503604114131,0, 1, 4, -2, -7, -11, -4, 3, 0
1503604114154,0, 15, -6, 0, -14, 4, -18, -6, 0
1503604114169,2, 14, 3, 2, 7, -71, 7, 9, 0
1503604114192,14, -8, -18, 3, 28, 43, 22, 19, 0
1503604114214,-2, 32, 12, -1, 7, 26, 5, 13, 0
1503604114229,12, -33, -13, -16, -53, -28, -2, -27, 0
1503604114251,-11, 36, 22, 20, 54, -43, 29, -1, 0
1503604114274,-108, 24, 49, 13, -33, 45, 0, -79, 0
1503604114289,-39, -85, -34, -34, -61, -128, -55, -39, 0
1503604114311,66, -39, -46, -3, -38, -6, -73, 42, 0
1503604114334,-4, -57, -43, -31, -63, -42, 31, -61, 0
1503604114349,62, 28, 46, -15, -57, 127, -55, 87, 0
1503604114371,-10, 5, -17, 22, 28, 111, -16, 10, 0
1503604114394,51, 48, 31, 29, 109, 8, 117, -7, 0
1503604114408,-57, -10, -13, -50, -25, -50, 50, 58, 0
1503604114431,-17, -10, -7, 0, 2, -13, 8, 70, 0
1503604114455,-9, -2, -4, 25, 48, 28, -105, -29, 0
1503604114469,14, -6, -2, 10, 11, 27, -10, -6, 0
1503604114491,27, 8, 2, 4, -8, -26, 26, 12, 0
1503604114514,-2, 13, -3, -5, -18, -4, -12, -31, 0
1503604114528,0, 3, -8, -7, -12, 8, 4, 23, 0
1503604114544,0, -1, 11, -2, 0, 0, -7, 13, 0
1503604114567,-2, 22, 24, 6, 2, -3, 7, -5, 0
1503604114582,-10, -4, -1, -4, -6, 3, -11, -17, 0
1503604114604,5, -5, -1, 2, 2, -2, 32, 6, 0
1503604114627,-6, -6, -5, -4, -2, -7, 10, -10, 0
1503604114641,-2, 4, 2, -2, 3, -1, -8, -4, 0
1503604114657,4, -5, -5, -3, -3, -9, -14, -4, 0
1503604114671,-5, -6, 2, 2, -2, -9, 2, -2, 0
1503604114694,4, 2, 2, -1, 0, 4, 8, 6, 0
1503604114716,14, 3, 3, 3, -5, 1, -3, 4, 0
1503604114732,-1, 1, 1, 2, 1, 5, 5, -7, 0
1503604114754,-30, -1, -3, -4, -2, -10, -10, -12, 0
1503604114776,2, -11, -12, -2, -2, 2, 7, -9, 0
1503604114794,24, 6, 3, 6, 4, 0, -11, -21, 0
1503604114814,-31, -1, 4, 1, -1, -1, -7, -18, 0
1503604114836,0, -4, 0, -1, -3, 5, 8, 26, 0
1503604114851,18, -2, -6, -4, -7, -6, 8, 26, 0
1503604114874,-33, -3, 6, 1, -2, -1, -7, 36, 0
1503604114896,16, -11, -21, -13, -6, -9, -6, 30, 0
1503604114911,4, 5, 4, 1, -2, 2, 15, -63, 0
1503604114934,4, -3, 10, 4, 1, 2, -17, -91, 0
1503604114959,-45, 9, 45, 10, 3, -3, 23, -29, 0
1503604114971,4, -4, -16, -10, -2, 0, -3, 66, 0
1503604114994,31, 5, -9, 4, 3, 3, -28, 22, 0
1503604115016,10, 6, 4, 4, 1, 3, 4, 8, 0
1503604115031,7, 0, -7, -4, -6, 0, -1, -32, 0
1503604115054,-6, -7, -16, -5, -3, -1, -1, 16, 0
1503604115076,38, -1, -5, 0, 6, 0, -18, 52, 0
1503604115093,-9, -8, -15, -5, 7, 10, 12, 58, 0
1503604115114,1, -6, -13, -8, -5, -9, 5, -23, 0
1503604115136,-28, -2, 0, 1, -1, -7, -26, -54, 0
1503604115151,-27, -6, 11, 5, 2, 2, 17, -16, 0
1503604115174,16, 10, 10, 7, 5, -4, 9, 10, 0
1503604115196,-8, -9, -1, -3, -7, -1, 2, -7, 0
1503604115211,-26, -12, -7, -3, 4, 41, 37, 7, 0
1503604115242,-27, 2, -3, -1, -2, -15, -13, 8, 0
1503604115256,64, 7, -8, -3, -3, -8, -2, 0, 0
1503604115272,1, 10, 19, 3, -4, -2, -3, 1, 0
1503604115296,-4, -15, -9, -6, 0, -6, -4, -13, 0
1503604115316,-8, 8, -1, 0, -4, -9, -6, 13, 0
1503604115331,8, 6, 1, 7, 2, 0, -3, -13, 0
1503604115354,-20, -8, -18, -9, 0, -1, 1, 4, 0
1503604115376,6, -2, 7, 0, -3, -4, -4, -4, 0
1503604115391,15, 13, -1, 0, 2, 0, -4, 2, 0
1503604115413,1, 4, 19, 6, 0, -1, 0, 3, 0
1503604115436,4, -2, 0, 8, 5, 0, -1, -2, 0
1503604115451,-4, -4, -4, -6, -4, -11, 6, 4, 0
1503604115474,-12, -7, -4, -4, -4, 8, -11, 1, 0
1503604115497,20, 4, -11, -5, -1, 0, 6, 3, 0
1503604115519,-9, -6, 6, 1, -3, -3, 2, -5, 0
1503604115534,19, 49, 53, 11, -1, -1, 7, 2, 0
1503604115556,-26, -17, 3, 4, 2, 4, -4, -6, 0
1503604115579,-45, -21, -18, -4, 3, -4, -10, -13, 0
1503604115593,-28, -7, 5, 2, 1, -1, -8, -21, 0
1503604115609,-12, 3, -4, -4, -19, -10, 5, -5, 0
1503604115624,4, -4, -7, 3, 3, 6, 4, 13, 0
1503604115647,3, -2, -9, 0, -8, -1, 0, -9, 0
1503604115669,-8, 5, 4, -5, 2, -2, -5, -5, 0
1503604115684,15, 11, 10, 5, -3, -3, -3, 0, 0
1503604115707,16, 21, 5, 6, 1, 10, 9, -1, 0
1503604115731,-6, 3, -8, -8, -7, -6, -16, 2, 0
1503604115744,-29, -11, -12, -9, -12, -11, -6, -9, 0
1503604115767,9, 10, 3, 0, -10, 7, 5, 1, 0
1503604115803,-8, -22, -10, -4, 2, 2, 3, -3, 0
1503604115819,-1, 1, -4, -2, -19, -14, 3, -1, 0
1503604115835,-6, -2, 3, 1, -11, -3, -4, -5, 0
1503604115856,1, 4, 1, 2, 16, 11, -3, 0, 0
1503604115879,-5, 1, -2, -2, -12, -16, 1, 3, 0
1503604115893,13, 15, 9, 0, -8, -5, -5, 7, 0
1503604115916,-9, -17, -5, 3, 49, 31, -2, -1, 0
1503604115939,10, 9, 4, 3, 3, -9, -4, 7, 0
1503604115953,-22, -10, -10, -4, -1, 0, 1, -4, 0
1503604115976,-2, -8, -5, 0, -4, 5, -1, -31, 0
1503604116000,3, -9, -2, -1, 4, 20, 1, 0, 0
1503604116014,-18, 7, 1, -1, -39, -15, -4, -12, 0
1503604116037,27, 1, 2, 0, 23, -3, -1, 1, 0
1503604116059,0, 1, 1, 4, 23, 3, -6, 1, 0
1503604116074,20, 10, 22, 4, 40, 43, 3, -9, 0
1503604116096,-16, -10, -12, -6, 17, -21, 5, -13, 0
1503604116119,-2, 0, -8, -7, -4, 3, 2, 3, 0
1503604116135,-19, 1, 2, -3, -22, -4, -1, -11, 0
1503604116156,36, -3, 4, 2, 11, -1, 4, 8, 0
1503604116179,11, -7, -8, 6, 55, 45, -1, 17, 0
1503604116194,-27, 7, 16, 3, -17, -18, -2, -1, 0
1503604116216,-20, 9, -4, -1, -21, 10, -1, 2, 0
1503604116239,-9, -1, -11, -7, -76, -60, -6, -3, 0
1503604116254,14, -15, -13, -7, -3, -7, 5, 11, 0
1503604116278,4, 13, 7, 4, 85, 63, 3, 21, 0
1503604116301,44, 6, -2, -1, -14, -12, -1, 8, 0
1503604116314,6, 0, 0, 3, -17, -7, 5, 5, 0
1503604116337,27, -13, -9, -4, -9, -14, 1, 29, 0
1503604116359,-19, 0, 0, -1, 4, 9, 2, -25, 0
1503604116374,8, 5, -2, 0, -20, -16, -5, -4, 0
1503604116396,-13, 3, 2, 0, -33, 11, -10, 3, 0
1503604116419,-11, -9, -3, -5, -5, 5, 6, -31, 0
1503604116436,22, 16, 11, 5, 23, 2, -5, -2, 0
1503604116456,16, 2, 3, 0, -6, -4, -8, -7, 0
1503604116479,-58, -12, -4, -2, -12, -5, 6, -12, 0
1503604116501,-10, -3, -5, -5, 6, 0, -3, -8, 0
1503604116516,-2, -9, -1, 3, 7, 5, 3, 2, 0
1503604116540,-1, -4, -8, -8, -23, -49, 3, -1, 0
1503604116561,-53, -16, -7, 0, 0, 4, -2, -4, 0
1503604116576,-14, 1, -4, -4, -5, 4, -4, -26, 0
1503604116599,16, 2, -1, -2, -3, -1, -3, 4, 0
1503604116620,17, 3, -4, -1, 13, -24, -11, 0, 0
1503604116638,0, -6, -1, 3, -2, 5, 0, 12, 0
1503604116659,23, 6, 5, 1, 3, 6, 0, -2, 0
1503604116681,-31, -10, -8, -1, -7, -9, -2, 17, 0
1503604116689,50, 18, 9, 0, 12, 0, -5, -12, 0
1503604116711,-24, -7, -6, -4, 1, 8, -6, -28, 0
1503604116726,19, 5, 1, 1, 17, 4, -3, 3, 0
1503604116742,-23, -3, -7, 0, -15, -1, -1, -5, 0
1503604116756,10, -3, -2, -5, 12, 38, -2, -3, 0
1503604116779,-28, -5, -4, 3, -11, -6, -4, -1, 0
1503604116801,34, -6, 5, 0, 3, -6, 0, 2, 1
1503604116816,-41, -6, -17, -5, 1, -28, -3, 5, 1
1503604116840,30, 5, 1, 1, 60, 17, 2, 39, 1
1503604116861,8, 2, 3, 1, -29, -25, -6, -50, 1
1503604116876,-1, 21, 45, 18, 1, 13, -3, 1, 1
1503604116899,20, 3, -7, -8, -42, -13, 0, -3, 1
1503604116922,25, -7, -11, 0, 0, 1, 7, 10, 1
1503604116936,1, -1, -5, -4, -12, -7, 2, -4, 1
1503604116959,-6, -9, 1, 8, 6, -1, -4, 5, 1
1503604116982,14, -5, -3, -12, 18, 1, -3, -8, 1
1503604116996,4, 1, -8, -3, 11, 15, 4, 5, 1
1503604117019,-20, -11, -7, -1, 5, -1, -1, -22, 1
1503604117043,-28, 0, -2, 0, -14, -5, -2, 6, 1
1503604117063,5, 2, 3, -3, -3, -7, -4, 5, 1
1503604117082,10, 2, -1, -2, 5, 13, 10, -14, 1
1503604117102,-6, -7, -3, 2, -5, -5, -3, -7, 1
1503604117116,-16, -9, 10, 2, -16, -6, 4, 20, 1
1503604117140,-19, -2, -3, -3, -21, -10, -7, -16, 1
1503604117147,7, -7, 3, 6, 69, 44, 5, -12, 1
1503604117169,-24, -14, -3, 0, -27, -14, 0, -17, 1
1503604117191,5, 1, 0, -5, -30, -16, -8, -12, 1
1503604117208,38, 1, -7, -3, -10, -5, -2, 10, 1
1503604117221,8, 9, 0, -1, 23, 7, 2, 4, 1
1503604117236,-8, -15, -9, 0, 9, 10, -2, -1, 1
1503604117259,3, 2, -4, -6, -5, -10, -2, -2, 1
1503604117280,-6, 8, 9, 1, -23, -5, 0, -7, 1
1503604117289,0, 8, 7, -5, -19, -9, -7, 11, 1
1503604117311,2, 4, 3, 3, 3, 4, 1, 8, 1
1503604117327,-4, -4, 9, 7, -6, 10, 1, -10, 1
1503604117349,-10, 6, -2, -7, 1, -2, -1, 2, 1
1503604117371,-5, -1, -7, -5, 22, 5, 6, -3, 1
1503604117394,1, 1, -2, -3, -4, -6, -2, 3, 1
1503604117411,-4, -7, -2, -4, -6, -7, 2, 11, 1
1503604117431,-6, -4, -3, 2, 49, 9, -3, 1, 1
1503604117454,24, 6, -5, -3, -15, -6, -6, 15, 1
1503604117469,-11, -5, -3, 0, 7, 13, 8, 3, 1
1503604117491,16, 7, 12, 9, -11, -8, -1, -5, 1
1503604117514,-11, 0, 1, -2, 1, -1, 0, -4, 1
1503604117529,0, -3, -9, -7, -19, -8, -2, -11, 1
1503604117552,-21, 1, -2, -2, -14, -3, 3, -7, 1
1503604117574,-9, -1, -3, 1, 10, -2, 0, -4, 1
1503604117589,4, -6, -1, -2, 4, 5, -5, 3, 1
1503604117612,-19, -8, -5, -1, -18, -7, -5, 0, 1
1503604117633,4, 0, 2, -2, -2, -12, -5, 4, 1
1503604117649,7, 1, -2, 0, -19, -2, 5, 15, 1
1503604117671,-10, 2, -2, -3, 30, 4, -9, -9, 1
1503604117694,2, -7, 0, -3, -4, 7, 6, 2, 1
1503604117713,4, -11, -6, -3, -10, -11, -4, -2, 1
1503604117731,19, 14, 5, 3, -6, 6, 3, 3, 1
1503604117754,-19, -11, -7, -5, -10, 8, -1, -5, 1
1503604117769,-3, -4, -8, -3, 27, 29, 20, -1, 1
1503604117791,8, 6, 2, 2, 51, 5, -5, -6, 1
1503604117819,-1, 7, -1, -1, -25, -9, -6, 1, 1
1503604117829,2, -9, -5, 1, -3, -2, -4, 2, 1
1503604117851,7, 4, 3, -3, -26, -7, -3, -8, 1
1503604117873,-20, -1, 1, 0, -12, -14, -5, -7, 1
1503604117890,-24, 7, 3, -4, -3, 3, -2, -23, 1
1503604117913,15, -2, 4, 11, 2, 0, 2, 3, 1
1503604117933,-6, -9, -9, -8, -12, -8, 0, 10, 1
1503604117949,0, 4, 3, 2, 3, 1, 2, -4, 1
1503604117971,-2, 1, -2, 0, -3, 1, 0, 12, 1
1503604117993,15, -1, 3, -8, -11, 2, 1, 16, 1
1503604118008,20, 8, -4, -2, 1, -9, -2, -3, 1
1503604118031,-8, -1, 2, 2, 11, 2, 2, 9, 1
1503604118054,-5, -2, -8, -1, -6, -8, -2, -23, 1
1503604118068,12, 2, 8, 12, -2, -4, 1, 3, 1
1503604118091,-5, -7, 1, -3, 34, 10, -3, -1, 1
1503604118114,-5, -3, -5, -3, -10, 1, 1, -8, 1
1503604118129,-3, -7, -7, -4, -2, 3, -1, -11, 1
1503604118152,-1, -3, -8, -7, -20, -1, -6, 11, 1
1503604118173,8, -4, -4, -3, -5, -5, 1, 13, 1
1503604118182,-6, 3, 7, 8, 2, 4, -3, -9, 1
1503604118203,3, 8, 6, 5, 4, -3, -2, -6, 1
1503604118219,-9, -12, -5, -3, -16, -5, -3, -12, 0
1503604118241,-8, 10, 9, 6, 1, 0, -3, 7, 0
1503604118263,0, -9, -7, -5, -2, 3, 1, 0, 0
1503604118279,11, 4, 4, 2, 9, -5, 3, 17, 0
1503604118294,24, 17, 12, 0, -37, -8, 0, 12, 0
1503604118316,4, -16, -9, -1, 2, 1, -5, -7, 0
1503604118331,3, -3, 0, -2, 8, 4, 4, 10, 0
1503604118353,8, 2, -10, -5, 6, 2, -3, -2, 0
1503604118376,11, 2, -2, 1, 12, 3, -1, -13, 0
1503604118391,-9, -5, -7, -6, -5, -1, 4, 10, 0
1503604118413,-14, -7, -7, -5, -23, -7, -13, -11, 0
1503604118436,-2, 8, 2, 0, 23, 12, -5, -5, 0
1503604118452,-2, -3, 1, -1, -24, -7, 1, -1, 0
1503604118473,2, 1, 3, 4, 8, -2, 1, -3, 0
1503604118496,3, 9, 7, -3, -13, -3, 6, -14, 0
1503604118511,15, -2, -3, 0, 12, 1, 7, 18, 0
1503604118534,-20, -6, -2, -2, 0, 3, 2, -2, 0
1503604118557,-6, 2, 0, 3, 8, 3, -6, -2, 0
1503604118571,-5, -3, -2, 0, 11, -2, -4, 12, 0
1503604118594,-3, -3, 3, 4, 7, -12, -8, -3, 0
1503604118620,-12, -2, -1, -1, 5, 7, -1, -4, 0
1503604118631,15, 4, -3, -3, -26, -6, -6, 23, 0
1503604118654,3, -3, -5, -3, 7, 7, 4, -16, 0
1503604118676,9, 2, -1, -2, -6, -10, -6, -9, 0
1503604118691,7, 4, 7, 1, 6, 3, 3, -17, 0
1503604118713,2, 6, 2, 0, -19, -4, 5, 23, 0
1503604118736,-1, -5, -8, -4, -3, 7, 7, 15, 0
1503604118753,-11, -5, -4, -1, -5, 0, -5, -42, 0
1503604118774,-24, -7, -3, 2, 21, 6, -1, -8, 0
1503604118796,-8, -4, -3, -2, 3, -2, -5, -14, 0
1503604118811,9, 2, 2, 5, 42, 1, 0, 26, 0
1503604118833,23, 2, 2, 3, -15, -4, 3, -6, 0
1503604118856,-2, -4, -2, -3, -5, -2, -2, -6, 0
1503604118871,-12, 2, 3, 0, -16, -7, 0, 8, 0
1503604118894,4, 0, -7, -6, -35, -7, -9, 20, 0
1503604118916,-8, 1, 1, 0, 2, 2, 1, -10, 0
1503604118931,-1, 1, 0, -1, 6, 1, 1, 0, 0
1503604118954,-15, -2, -4, -1, 5, 1, 1, -13, 0
1503604118976,2, -2, 1, 3, 6, 3, 1, 5, 0
1503604118991,4, 4, 1, -1, 6, 0, -3, 7, 0
1503604119013,-4, -6, 1, 0, 9, 3, 1, -11, 0
1503604119037,-8, -5, -9, -7, -2, -2, -2, -11, 0
1503604119053,5, 14, 0, 4, -1, -1, -1, -3, 0
1503604119081,5, 1, 4, -2, -3, -2, -1, 4, 0
1503604119096,-8, -6, -2, -1, -1, -2, 2, 1, 0
1503604119111,-8, 9, 5, -2, -1, 1, -1, -4, 0
1503604119133,2, -12, -11, -5, -5, -3, 0, 3, 0
1503604119156,21, 11, 6, 8, -1, -3, -2, -1, 0
1503604119171,1, -3, -1, -2, 0, 0, -1, -1, 0
1503604119193,-5, 2, 1, 2, -1, 0, -1, -3, 0
1503604119216,-4, -12, -8, -2, -2, -2, -1, 3, 0
1503604119239,0, -1, 3, 0, 2, 0, -1, -2, 0
1503604119255,-1, -6, -7, -11, -3, 1, -1, -2, 0
1503604119276,0, -7, -3, -1, 1, -2, -3, -6, 0
1503604119299,1, -4, 4, 8, -2, 0, 1, 17, 0
1503604119314,4, 24, 0, -1, 2, -1, -1, -2, 0
1503604119336,-9, -14, -3, -2, 1, 2, 0, 1, 0
1503604119361,5, 11, 11, 1, 0, -2, 1, 5, 0
1503604119373,-8, -18, -11, -2, -2, 1, 1, -9, 0
1503604119396,1, 5, 4, 0, 10, -2, -3, -9, 0
1503604119419,-3, -1, 5, 1, -5, -2, -2, 1, 0
1503604119434,7, -1, 3, 1, -2, -5, 0, 7, 0
1503604119456,5, -3, -1, 3, 5, -6, -4, -9, 0
1503604119479,6, 3, -6, -8, -54, -13, -1, 2, 0
1503604119494,-17, -6, -7, -5, -6, 0, 0, -7, 0
1503604119516,-1, -4, 4, 0, 7, 7, 3, 1, 0
1503604119528,-8, 15, 20, 6, -10, -7, -3, -12, 0
1503604119547,-4, -6, -9, -7, -10, -9, -3, 4, 0
1503604119569,27, -1, -8, -3, -6, -7, -5, 3, 0
1503604119584,12, 8, 8, 14, 83, 48, 4, 18, 0
1503604119606,-8, -2, 1, -6, -17, -13, -4, -12, 0
1503604119629,4, 6, -6, -4, -19, -10, -3, -3, 0
1503604119644,10, -8, -2, -2, 16, -5, 0, 11, 0
1503604119666,-1, 1, -4, -4, -4, -4, -2, -5, 0
1503604119690,-7, 1, 0, 0, 11, -6, 0, -2, 0
1503604119704,-9, -3, -4, -8, -35, -2, -1, 3, 0
1503604119727,-24, -8, -3, -3, -22, -13, -6, -10, 0
1503604119749,-8, 8, 16, 4, -2, 1, 2, 0, 0
1503604119765,-1, -6, -8, 1, 0, 1, 2, -7, 0
1503604119786,15, -3, -4, -3, -6, -2, 1, 7, 0
1503604119809,-4, 5, -3, -1, -3, 1, -1, -2, 0
1503604119825,-20, -13, -5, 2, -4, -2, 0, 3, 0
1503604119847,6, -9, -6, -3, -2, -1, -3, -4, 0
1503604119869,0, -3, 0, -1, 0, -2, 2, -4, 0
1503604119884,2, -2, 1, -4, -4, 0, -3, -8, 0
1503604119906,-3, 3, 0, 0, -1, -2, 1, -2, 0
1503604119929,3, 0, 4, 1, 0, -2, 7, 1, 0
1503604119944,2, -7, -8, -3, -20, -2, -68, 3, 0
1503604119966,5, 3, -3, -1, -4, 2, 71, 4, 0
1503604119991,-13, -6, -7, -5, 6, 1, 92, 0, 0
1503604120004,15, 6, 7, 6, 5, 0, -42, 0, 0
1503604120026,-4, 5, -4, -2, 2, -16, -85, -1, 0
1503604120049,-11, -17, -14, -5, 2, 1, 69, 8, 0
1503604120064,9, 15, 9, -2, -7, 2, -24, -8, 0
1503604120087,4, 9, 0, 3, 29, 17, -41, -8, 0
1503604120109,21, 17, 10, 0, 0, -3, -15, 4, 0
1503604120125,6, 9, 4, 2, -10, -3, 48, -6, 0
1503604120139,-6, -1, -9, -5, -6, -7, -47, -10, 0
1503604120153,-3, -7, 0, -1, 15, 0, -28, -2, 0
1503604120176,5, 14, 2, -2, -7, -9, 12, 0, 0
1503604120199,12, 7, -2, 0, -2, 8, 44, 6, 0
1503604120221,-8, 15, 10, 0, 21, 0, -39, -1, 0
1503604120236,8, -4, -8, -2, -7, 0, 17, -1, 0
1503604120259,-2, -9, -2, -3, -31, -7, -41, 4, 0
1503604120281,1, 2, 6, 0, -26, -8, 16, -17, 0
1503604120296,-14, -13, -2, -3, -3, -10, 25, -1, 0
1503604120318,1, 4, 0, 2, 56, 17, -5, 3, 0
1503604120341,-5, -2, 0, 0, -17, -8, 4, 16, 0
1503604120356,2, 1, 6, -2, -62, -14, 2, 4, 0
1503604120379,-8, 0, 1, 2, 8, 10, 20, -7, 0
1503604120401,4, 3, 0, 1, -7, -4, 4, 0, 0
1503604120416,7, 0, -3, -1, 2, -2, -35, 3, 0
1503604120438,-12, -3, 0, 2, 33, -3, 5, -14, 0
1503604120462,3, 1, -4, -1, 22, 27, 18, -1, 0
1503604120476,10, 3, 1, 0, -6, -5, 18, 5, 0
1503604120498,1, 2, 0, 1, -2, -8, -13, -6, 0
1503604120521,6, 0, -5, -6, -4, -1, -4, -7, 0
1503604120536,-49, -11, -5, -2, -12, -6, 7, 5, 0
1503604120562,11, 0, 5, -2, 24, 19, -10, 15, 0
1503604120581,13, -12, -12, -3, -13, -6, -12, -2, 0
1503604120596,19, 4, -3, -4, -40, -12, 4, -6, 0
1503604120619,-3, 2, 3, 2, 3, 1, -6, -1, 0
1503604120641,3, -7, -5, -1, -12, 5, -2, 10, 0
1503604120656,9, 4, 1, 1, 11, 11, 7, -1, 0
1503604120678,-12, -11, -5, 0, -15, -4, -3, -6, 0
1503604120701,-8, -12, -2, 1, 3, -11, -2, -12, 0
1503604120717,-4, 8, 1, -1, -6, -6, -4, 5, 0
1503604120739,6, 4, 1, -6, -69, -42, -2, -1, 0
1503604120747,0, -7, -6, -5, -15, 0, -1, 4, 0
1503604120770,-12, -9, -2, -3, -24, -2, 3, -4, 0
1503604120791,-43, -27, -12, -1, 25, -7, -3, 15, 0
1503604120806,0, 4, 9, 4, 32, 18, 2, -4, 0
1503604120829,22, 6, 2, 0, -25, -11, -2, 9, 0
1503604120851,25, 5, 1, 4, 25, 11, -3, -7, 0
1503604120874,-3, 2, 0, -4, -46, -11, 5, -11, 0
1503604120899,5, 9, 1, 0, 7, -3, -2, 1, 0
1503604120911,-20, -6, -3, -2, -53, -20, -4, -19, 0
1503604120926,-11, 0, -6, 0, -11, -7, 1, 17, 0
1503604120949,24, 6, 1, -1, 16, 6, -2, 2, 0
1503604120971,-15, 2, -1, 0, 14, 9, 1, -3, 0
1503604120986,3, -1, 0, 0, 23, 9, 2, -4, 0
1503604121009,8, -5, -3, 0, 9, -2, -1, 8, 0
1503604121031,-29, 0, 0, -3, -14, 1, 6, -9, 0
1503604121046,-14, -6, 4, -4, -34, 17, -9, 0, 0
1503604121071,11, 1, -3, 3, 1, 10, -2, -6, 0
1503604121092,26, 6, -3, -3, -7, -25, 4, 7, 0
1503604121099,8, 4, -3, -3, -4, -5, 1, 12, 0
1503604121121,-9, -13, -8, -2, -6, 3, -4, -11, 0
1503604121144,10, 11, 1, 0, -14, 0, -4, -6, 0
1503604121158,17, 14, 13, 7, 2, 4, -4, 5, 0
1503604121174,19, 0, 1, -2, 5, -3, -4, 3, 1
1503604121189,9, 8, 12, 2, 23, 21, 2, -4, 1
1503604121211,10, 2, -7, -5, -13, -21, -3, 0, 1
1503604121233,19, 4, -1, -1, -1, -4, 7, 29, 1
1503604121249,-11, 6, 0, -2, -4, -3, 0, -25, 1
1503604121273,1, -9, -1, -1, -7, 1, -2, -9, 1
1503604121293,-35, -9, -5, 4, 11, -1, -1, -20, 1
1503604121309,-11, 4, 8, 3, -22, -2, -2, -5, 1
1503604121334,29, -5, -9, -5, 7, 6, 2, 42, 1
1503604121353,8, 7, -1, -2, -27, -12, -5, 8, 1
1503604121369,-1, 5, 4, -3, -31, -9, -4, -10, 1
1503604121392,5, -3, 1, 0, 62, 18, 1, 2, 1
1503604121414,2, -3, -4, 0, -6, 6, 4, -3, 1
1503604121431,-8, -4, 0, 3, 10, -3, 4, 4, 1
1503604121444,2, -1, -5, -6, -71, -53, 0, -1, 1
1503604121458,20, -6, -4, 0, 12, 10, -1, 6, 1
1503604121481,-19, 3, 0, 0, 0, 3, -2, 5, 1
1503604121504,-27, -20, 7, 7, 19, 8, 4, -6, 1
1503604121519,3, -8, -8, -9, 11, 9, -3, -12, 1
1503604121541,-56, -15, -11, 0, 6, 3, -4, -9, 1
1503604121563,11, 10, 4, 1, -4, -1, 1, 2, 1
1503604121578,25, 16, 0, -2, 8, -13, -5, 4, 1
1503604121601,5, -1, -6, -4, -10, -5, -1, 6, 1
1503604121623,-1, -5, -4, -2, 8, 7, 4, 5, 1
1503604121639,13, 2, 1, 1, -20, -8, -7, -18, 1
1503604121661,14, -1, 3, 1, -2, 4, -7, 6, 1
1503604121683,11, 6, 5, 0, -2, 2, 1, 3, 1
1503604121699,-14, -3, -2, -3, -20, -1, 0, -12, 1
1503604121721,4, 4, 3, 15, 39, 0, 2, 8, 1
1503604121743,26, -1, 7, -2, -8, -9, 0, 5, 1
1503604121758,13, -3, -3, -5, -6, 3, 3, 9, 1
1503604121781,-21, 4, -7, -4, 1, 1, -2, 0, 1
1503604121804,-3, -3, -2, -2, -9, -5, 0, 5, 1
1503604121818,-14, -4, 4, -4, 1, -1, 0, -1, 1
1503604121841,-6, 1, 1, 1, -6, 0, -5, -21, 1
1503604121856,-2, 2, -5, -6, 0, -13, 0, -5, 1
1503604121863,-8, 3, 2, 9, 12, 0, 0, -2, 1
1503604121878,4, -5, -4, -7, -10, -3, -1, -3, 1
1503604121903,-13, -3, -2, -1, 3, 5, -4, -5, 1
1503604121923,-4, -2, -4, -6, -9, -12, -3, -7, 1
1503604121939,6, -1, 0, -2, -12, 3, 2, -1, 1
1503604121961,8, 1, 1, 1, -5, 8, 0, 16, 1
1503604121983,-23, -6, -5, 1, 2, 0, -2, -8, 1
1503604122002,4, 2, 3, 4, 5, -20, 0, 0, 1
1503604122021,1, -9, -7, 2, 6, 8, -2, -4, 1
1503604122043,2, 3, -1, -6, 5, -1, 0, 7, 1
1503604122065,-3, 1, -3, 1, 26, 10, -2, -1, 1
1503604122081,2, 0, 1, -4, -2, -6, -2, -5, 1
1503604122104,-1, -3, -6, -4, -10, 3, 0, -2, 1
1503604122125,-7, 3, 0, -2, -6, -3, -1, -2, 1
1503604122141,-3, -3, 1, 0, -3, -2, -1, 3, 1
1503604122178,11, 0, -1, -3, -6, -3, -3, -6, 1
1503604122185,7, -1, -1, 0, -7, 10, 1, -4, 1
1503604122203,1, -1, -2, 1, -4, -13, 1, 0, 1
1503604122223,-9, 0, 5, -1, 3, -1, -4, 4, 1
1503604122245,-13, -6, -6, -6, 0, -12, -2, -6, 1
1503604122261,5, 3, 11, 5, -2, 1, 3, 3, 1
1503604122283,-3, 2, -4, -4, -2, -3, -1, 5, 1
1503604122305,3, -2, 1, 5, 4, 15, -1, 0, 1
1503604122321,-12, 2, -3, 2, 2, 0, 0, -1, 1
1503604122344,1, -7, -7, -8, 18, 9, 3, 1, 1
1503604122365,1, 1, -3, 8, -8, -3, 0, 2, 1
1503604122381,-14, -10, -4, -7, -4, -5, -1, -2, 1
1503604122404,-17, -2, -4, -3, -4, -1, -1, -10, 1
1503604122425,21, -6, -8, -7, -8, 7, 1, -9, 1
1503604122441,15, 9, 9, 6, 1, 0, -4, 17, 1
1503604122463,13, 7, 7, 4, 5, 1, -3, -7, 1
1503604122472,20, 5, -5, -2, 1, 1, 1, 16, 0
1503604122493,-23, -8, -1, 3, 7, 5, -4, -16, 0
1503604122516,2, 6, 1, -1, -3, 0, 2, -3, 0
1503604122531,16, 2, -8, -4, -3, -4, -10, -8, 0
1503604122554,-1, -3, -2, -5, -23, -17, -6, -33, 0
1503604122576,-7, 1, 1, 2, 37, 11, -7, 18, 0
1503604122591,-11, -8, -6, -4, -6, -3, 3, -10, 0
1503604122614,19, 0, -2, -2, -4, -5, 15, 35, 0
1503604122637,-13, -4, -4, -5, -12, -12, -14, -28, 0
1503604122651,-1, -16, -4, 3, 4, 3, 1, 35, 0
1503604122674,-7, 24, 22, 8, 3, 8, -4, 1, 0
1503604122696,-8, -6, -3, -3, 4, -1, 6, -5, 0
1503604122711,6, -3, -1, -4, 6, -3, -1, 36, 0
1503604122725,-31, -14, -9, -10, -9, -7, -14, -32, 0
1503604122741,11, -6, -2, -1, -7, -6, -9, -18, 0
1503604122763,-2, 6, 0, 2, -1, 1, -4, 43, 0
1503604122785,-12, 2, 2, 4, 0, -19, 23, 9, 0
1503604122801,16, -1, 4, 0, 2, 4, 12, 28, 0
1503604122823,11, 0, 8, 0, 5, 0, -4, -26, 0
1503604122846,4, -4, -9, -6, -10, -2, 11, 18, 0
1503604122861,1, -4, -11, -6, -10, 9, -13, 46, 0
1503604122883,-4, -2, -7, -2, 8, 11, -25, -1, 0
1503604122906,-17, 4, 0, -1, -3, -3, -6, -43, 0
1503604122921,-8, -10, -5, -1, 1, -3, 9, -25, 0
1503604122943,-1, 8, 7, 4, -16, -3, 40, -72, 0
1503604122965,-12, 4, 0, -1, 21, -2, 16, -2, 0
1503604122988,17, 2, 8, 5, -14, -8, -13, 5, 0
1503604123004,-12, -10, -1, 1, -2, 0, -21, 9, 0
1503604123025,-8, 0, -4, -5, 6, -7, -13, 4, 0
1503604123048,22, -6, -8, -3, -25, -4, 0, 17, 0
1503604123063,-5, -1, -7, -7, -10, -5, -3, -7, 0
1503604123086,-30, -4, -3, -1, 20, 8, -5, 10, 0
1503604123108,8, -2, 1, 5, 8, 6, 1, -1, 0
1503604123123,4, 2, 4, 1, 4, -2, -3, 13, 0
1503604123146,1, 3, -5, 0, 7, 1, 2, -12, 0
1503604123168,16, -10, -7, -2, -6, -13, -2, 37, 0
1503604123184,-20, 1, 1, -3, -1, -6, -6, -38, 0
1503604123211,-5, -3, 6, 3, 1, 4, 3, -6, 0
1503604123228,6, 6, 0, -2, 6, 3, 2, 2, 0
1503604123245,6, -1, -4, -3, 19, 0, -1, 11, 0
1503604123265,-13, 1, -1, -2, -11, 1, -3, -13, 0
1503604123288,0, -1, 0, -1, 0, 3, 2, 15, 0
1503604123303,14, 4, 5, 1, -12, -12, 0, -8, 0
1503604123325,-3, -4, -4, 0, -1, 1, 3, 3, 0
1503604123348,8, 7, 7, 5, 13, 7, -1, -10, 0
1503604123363,6, 4, 0, -1, -8, -1, -1, 1, 0
1503604123385,3, 5, 0, 0, 1, 1, 0, 0, 0
1503604123409,-18, -18, -7, -4, 3, 2, -8, -19, 0
1503604123423,-1, 2, 6, 3, -19, -6, -2, -8, 0
1503604123445,-6, -2, -1, -3, -6, 11, 5, 10, 0
1503604123467,3, -4, -14, -4, 3, -1, -5, -9, 0
1503604123483,12, -1, -4, -3, -18, -3, 1, 8, 0
1503604123505,-2, 0, 4, 0, 0, -1, 3, 18, 0
1503604123527,2, 2, 1, 0, 10, -1, 0, 6, 0
1503604123543,-8, -4, -1, 0, 0, -2, 1, -5, 0
1503604123565,-4, 2, 7, 7, 10, 2, -1, 1, 0
1503604123587,3, -1, -4, -5, -3, -2, -1, -4, 0
1503604123603,-1, -4, -3, 0, 0, 1, -3, -7, 0
1503604123632,-9, 1, -1, -1, 0, 0, 1, -2, 0
1503604123649,22, -4, -7, -7, -2, -5, -4, -7, 0
1503604123663,2, -1, -5, -1, 1, 1, -1, 3, 0
1503604123685,-14, -3, 0, -1, -3, 0, 1, -6, 0
1503604123709,5, 1, 3, 0, -3, -1, 1, 6, 0
1503604123723,-4, 1, 5, 0, 0, -1, -3, -3, 0
1503604123745,-9, 0, 0, 2, -3, -1, -2, 2, 0
1503604123768,9, 9, 6, 1, 3, 1, -2, -4, 0
1503604123783,-2, -6, 0, 1, 4, -2, 0, 1, 0
1503604123805,-7, -2, -3, 0, -2, 2, -2, -5, 0
1503604123827,-7, -9, -6, -5, -5, -3, 1, -4, 0
1503604123843,4, 4, 4, -1, 1, -2, 0, -6, 0
1503604123865,-15, 5, 8, 1, 3, 1, -6, -5, 0
1503604123888,3, -13, -5, -2, -1, 0, -5, 7, 0
1503604123912,-12, -3, -9, -3, -2, -7, 1, -1, 0
1503604123925,-2, 1, 13, 10, 3, 4, 14, 2, 0
1503604123948,5, 6, -7, -2, -4, -1, -5, 5, 0
1503604123970,17, 4, 2, 4, 2, -1, -6, -8, 0
1503604123986,-4, -7, -8, -6, 7, 4, -2, 6, 0
1503604124007,1, -1, -3, -2, 14, 8, 3, -2, 0
1503604124031,1, -3, -4, -3, -15, -7, -43, 1, 0
1503604124054,-10, -7, -5, -4, -4, -3, 50, -9, 0
1503604124069,-16, 3, -2, -1, -13, -4, -4, -6, 0
1503604124092,18, 4, 7, 4, 4, 2, -10, 6, 0
1503604124114,-1, -13, 2, 3, -7, -5, 0, -3, 0
1503604124129,-2, 12, 8, -1, 6, -1, 1, 7, 0
1503604124152,-4, 6, -3, -1, -9, -7, -2, -2, 0
1503604124174,-8, -3, -7, -1, 5, 11, -2, -11, 0
1503604124189,23, 3, -4, -5, 18, 0, -1, 21, 0
1503604124213,3, -7, -6, -6, -9, -9, -2, -11, 0
1503604124234,-15, 9, 10, -1, -5, -2, -2, 4, 0
1503604124249,-32, -7, -10, -4, -3, -3, -1, 8, 0
1503604124271,9, 1, 7, 6, -9, 1, -1, 9, 0
1503604124294,2, 5, -1, -1, 0, 3, 1, -8, 0
1503604124309,4, 5, -2, -9, -10, -12, 2, -7, 0
1503604124331,-5, -6, -3, -3, 0, -6, 1, 4, 0
1503604124354,21, -2, -5, 0, -15, -4, 1, 8, 0
1503604124369,18, -3, -2, -4, 14, 3, 0, 13, 0
1503604124391,40, -4, -9, -2, 15, 24, 0, -4, 0
1503604124406,-23, 0, 4, 2, -4, -1, -2, -6, 0
1503604124429,-7, -5, -2, -2, 2, -10, -4, -21, 0
1503604124452,-15, -7, 1, 1, -2, 2, -4, -27, 0
1503604124474,-1, 3, 4, 7, -14, -21, 2, 9, 0
1503604124489,-12, 0, 3, -2, 7, -2, -1, 3, 0
1503604124513,16, 1, 5, -3, -7, 3, 0, 7, 0
1503604124526,14, -11, -11, -7, -26, -9, -6, 15, 0
1503604124549,2, 4, 1, 5, 9, 10, -1, -16, 0
1503604124571,-7, 4, 3, 5, 18, 17, 3, -2, 0
1503604124593,-36, -6, -3, -6, -9, -9, -3, -22, 0
1503604124609,-13, 4, 4, 5, -3, 0, 0, -3, 0
1503604124631,-1, -4, -5, -3, -5, -1, 5, -3, 0
1503604124653,-11, 1, 1, 1, 11, -1, -3, 8, 0
1503604124669,2, 1, 7, 3, 1, 9, -1, -1, 0
1503604124691,0, -4, -1, 4, -1, -3, 0, 9, 0
1503604124715,17, 6, 2, 1, 26, -1, -1, 3, 0
1503604124735,10, 1, -4, -3, -6, -5, 0, -2, 0
1503604124751,-22, 6, 0, 5, 1, 4, 0, -1, 0
1503604124774,4, -7, -7, -9, 6, 17, 1, 1, 0
1503604124789,5, -2, -1, -2, -14, -13, -4, -4, 0
1503604124811,-25, -4, 4, -1, 7, 16, -1, -5, 0
1503604124834,3, 4, -3, -6, -33, -24, -2, -4, 0
1503604124849,-2, -7, -3, 6, -3, -1, 0, 3, 0
1503604124872,-37, 2, -2, -8, -10, -8, 6, -16, 0
1503604124893,11, -4, -3, 2, 1, -4, -1, 4, 0
1503604124909,31, -5, -2, -5, 6, 2, -3, 3, 0
1503604124931,3, 3, 2, 0, 0, -5, 0, 14, 0
1503604124953,10, -9, -6, -3, -6, -3, -5, -4, 0
1503604124969,7, 2, 5, 10, 7, -2, 1, 2, 0
1503604124991,5, 4, 2, 0, -11, 0, -5, -6, 0
1503604125013,-17, 4, -2, -4, -1, -1, 0, -8, 0
1503604125028,11, 5, 6, 1, -6, 1, -2, -6, 0
1503604125043,9, -1, -3, -4, -11, -3, 2, 4, 0
1503604125058,-15, -6, -3, -14, -10, 3, 4, 3, 0
1503604125084,-11, -2, -4, -2, 6, 7, -2, -11, 0
1503604125103,4, 1, 4, 6, -9, -5, 0, 10, 0
1503604125118,20, 17, 10, 10, 32, -1, -4, -4, 0
1503604125141,-10, -8, -3, 0, 10, 18, 0, 3, 0
1503604125163,-9, -1, 1, -1, -15, -14, -4, 1, 0
1503604125179,-5, -3, -5, 0, -13, -4, 3, -3, 0
1503604125201,1, 4, 4, 1, 12, 7, 4, 11, 0
1503604125224,-7, -8, -7, -4, -4, -1, -2, -7, 0
1503604125238,4, -2, 1, 0, -8, -6, -2, 3, 0
1503604125261,1, 0, -3, -5, -11, -4, 1, -3, 0
1503604125284,-20, 7, 0, 0, 2, -4, -4, -9, 0
1503604125292,-20, -5, -6, 2, 25, 37, -1, -6, 0
1503604125313,-2, -10, -6, -3, 3, -4, 0, -9, 0
1503604125329,-5, 0, 2, -4, -18, -23, -6, -8, 0
1503604125353,-5, 0, -4, 4, 2, 4, 3, 1, 0
1503604125374,3, 2, -5, -5, 10, -11, -4, -4, 0
1503604125389,10, -22, 10, 4, -21, -13, 2, 0, 0
1503604125411,14, 12, -6, -12, -12, -12, -5, -2, 0
1503604125434,7, 19, 15, 11, -26, 2, -1, 2, 0
1503604125449,4, 0, -2, -8, -30, -7, -3, -10, 0
1503604125471,5, 3, 2, 2, 2, 4, 1, 0, 0
1503604125494,-6, 2, -1, -2, -1, -9, -3, -3, 0
1503604125501,1, 4, 3, 0, -21, -12, 0, 1, 0
1503604125524,1, 2, 8, 11, 32, 18, -1, -3, 0
1503604125538,17, -1, 3, 1, -14, -12, -7, 7, 0
1503604125562,-3, -1, -2, 1, 39, 9, 4, 2, 0
1503604125587,-27, -2, 5, 2, -8, -13, -12, -5, 0
1503604125600,6, -2, -3, -2, -10, 8, 5, -6, 0
1503604125622,-2, -4, -2, -3, -27, -13, 2, 3, 0
1503604125644,-11, 7, 5, -3, -22, -10, -6, -14, 0
1503604125666,15, -1, -4, -4, -20, -6, -8, -1, 0
1503604125681,35, 7, 9, 10, -10, -10, -3, 12, 0
1503604125703,-17, 2, -10, -18, -38, -8, 8, 3, 0
1503604125719,-4, -7, -5, -2, 14, 22, 2, 2, 0
1503604125741,4, -14, -21, -1, -4, -7, 1, -8, 0
1503604125749,-2, -5, -10, -1, 0, -4, 0, 2, 0
1503604125771,-8, -12, -8, 0, 41, 1, 1, 3, 0
1503604125794,-9, 4, 4, 5, 2, -1, -2, 5, 0
1503604125816,33, 64, 55, 34, 24, 17, 4, -5, 0
1503604125831,4, -6, -18, -21, -30, -9, 0, 1, 0
1503604125854,13, -1, -4, -3, -9, -3, -9, -6, 0
1503604125875,-14, -13, -9, 6, 93, 57, -3, 7, 0
1503604125892,-7, -6, 0, 3, -24, -14, 0, -1, 0
1503604125906,-13, -11, -9, -17, -9, 4, 0, -1, 0
1503604125921,12, -8, -3, -4, -30, -23, -5, -2, 0
1503604125943,5, 5, 0, 6, -5, -9, -2, -9, 0
1503604125966,17, 2, 5, -2, 6, 12, 2, 19, 0
1503604125980,-24, 3, 2, 0, 22, 7, -3, 8, 0
1503604126003,-18, -11, -1, -1, -4, 5, -1, -4, 0
1503604126026,38, 0, -2, 0, 15, -7, -20, -6, 0
1503604126041,18, 3, 1, 0, -19, -27, -1, -18, 0
1503604126063,-11, 7, -1, -2, -7, -5, 9, 6, 0
1503604126087,-9, 5, -6, 2, 0, 16, 2, 3, 0
1503604126101,-53, -24, -3, 1, 19, 13, 1, -21, 0
1503604126124,9, 9, 11, 5, 9, -2, 0, 11, 0
1503604126145,45, 12, 6, 1, -14, 0, -4, 0, 0
1503604126161,15, -8, -9, -10, -6, 3, -1, -2, 0
1503604126184,-23, -6, -2, 0, -18, -8, 0, 0, 0
1503604126206,-1, 4, -1, 5, -1, 3, 5, 18, 0
1503604126222,-8, -6, 4, 5, 17, 3, 2, -13, 0
1503604126243,-10, -3, -2, -3, -18, -18, 0, -16, 0
1503604126266,-8, -3, -8, -4, 15, 9, -4, 0, 0
1503604126281,-5, -6, -7, -6, -1, 7, 1, 1, 0
1503604126303,-2, 5, 6, -6, 17, 0, -1, 17, 0
1503604126326,7, 1, 0, -1, -11, 2, -1, 1, 0
1503604126341,0, 7, -4, -4, 11, -18, -1, -9, 0
1503604126364,2, -2, 0, -4, -6, -3, 1, -4, 0
1503604126386,9, 6, 5, 4, -12, 2, -7, -3, 0
1503604126401,0, -5, -1, -4, 0, 2, -1, 5, 0
1503604126424,-2, -2, 2, 0, -13, -3, -2, 0, 0
1503604126446,-5, -2, -1, -1, -8, -1, 2, 9, 0
1503604126461,-13, -5, 2, 3, -22, -15, 3, -7, 0
1503604126483,9, 2, -5, 1, -15, -6, 1, 13, 0
1503604126506,20, -1, -3, -1, 12, -3, -6, 13, 0
1503604126520,15, 1, -1, 2, 0, -5, -8, -17, 0
1503604126536,32, 11, 0, 0, 15, 9, 4, 8, 0
1503604126551,-18, -1, 3, 3, -18, 2, -5, -10, 0
1503604126573,4, -2, -7, -4, -29, -18, 1, 12, 0
1503604126595,66, 6, 0, -5, -35, -27, -2, 3, 0
1503604126611,-21, -11, 0, 5, 2, 4, 8, 15, 0
1503604126633,-15, 8, 1, 0, -30, -17, -2, 0, 0
1503604126658,-15, -10, -7, -3, -11, -11, -11, -1, 0
1503604126671,-7, 8, 4, -2, 2, -9, -9, -18, 0
1503604126694,-57, -17, -3, -1, 13, -5, -3, -21, 0
1503604126715,41, 21, 2, 1, 18, 12, 0, 27, 0
1503604126738,7, -2, -10, -6, 1, -10, -4, -3, 0
1503604126745,-1, 2, -2, -2, -4, -10, 0, -1, 0
1503604126767,-2, -6, 4, 3, 6, -15, 0, 12, 0
1503604126783,-4, -6, -5, 6, -5, 1, 0, 0, 0
1503604126805,28, 2, -4, -6, -20, 0, 0, 9, 0
1503604126828,-8, 5, 4, 0, 6, 1, 6, -1, 0
1503604126836,-23, -3, -4, 2, 17, 8, 4, 6, 0
1503604126864,31, -1, -3, 0, -11, -8, -4, -13, 0
1503604126873,12, 0, 3, 0, 12, 12, 9, 8, 0
1503604126896,16, 8, -3, -3, -8, -11, -6, 5, 0
1503604126918,2, -12, -4, 0, -11, 7, -1, 0, 0
1503604126934,-15, -2, -3, -2, 26, 16, -2, -8, 0
1503604126956,-35, -11, -3, -3, -16, -19, -4, -4, 0
1503604126978,14, 3, -4, -2, -18, -12, -2, 4, 0
1503604126993,-10, 6, 11, 8, 2, 3, 1, 11, 0
1503604127015,0, -1, -7, -6, -5, 1, -3, -11, 0
1503604127038,7, -1, 4, -2, -4, 0, 0, -8, 0
1503604127053,-25, 25, 57, 37, 2, 6, 4, 8, 0
1503604127068,22, -9, -4, -6, 9, 10, 4, 27, 0
1503604127076,22, 4, 9, 3, 13, 6, 1, 3, 0
1503604127099,7, 2, -1, 3, -9, -7, -5, -28, 0
1503604127114,-24, -5, -5, -1, -6, 2, -4, -9, 0
1503604127136,3, 3, -3, -1, 5, -9, -2, -8, 0
1503604127161,7, 4, 8, 3, 21, 13, 6, 17, 0
1503604127173,-22, 5, -3, -1, -12, -2, 0, -2, 0
1503604127187,2, -2, -2, 0, -6, -3, 1, 19, 0
1503604127203,-10, 1, 4, -5, -12, -9, -1, 2, 0
1503604127227,-3, -4, -11, 5, -3, 7, 4, 2, 0
1503604127247,-3, 5, 1, -2, -6, -2, 4, 15, 0
1503604127263,-16, -1, 3, 3, -16, -10, -6, -19, 0
1503604127296,-7, 2, -3, 1, -35, -5, -7, -21, 0
1503604127315,17, 7, -2, 0, -13, -2, 2, 12, 0
1503604127338,19, -3, -3, -1, 15, 2, 0, -15, 0
1503604127353,2, 2, 6, 6, 26, 33, 15, 12, 0
1503604127376,-20, 0, 4, 2, -3, -10, -3, 3, 1
1503604127398,-27, 1, -3, 1, 22, 1, -2, -5, 1
1503604127406,4, 9, 7, 0, -11, -2, 2, 5, 1
1503604127428,9, 1, 3, 4, 15, -2, -4, 4, 1
1503604127443,-5, -2, 0, -4, -8, -20, -1, 2, 1
1503604127466,-9, 3, -3, 0, 1, 8, -4, -13, 1
1503604127487,11, -2, -3, 0, 4, -4, 3, 12, 1
1503604127503,22, 1, -1, 2, -8, 8, 0, 12, 1
1503604127525,14, 1, -2, 1, 13, 12, -3, 9, 1
1503604127547,-9, 2, 4, -1, 5, 5, -6, -7, 1
1503604127563,7, 10, 10, 0, 2, 0, 4, 1, 1
1503604127585,-8, -8, -1, 0, -6, -9, -3, -2, 1
1503604127607,-4, -1, 3, 2, 7, -7, 3, 7, 1
1503604127630,-9, 0, -7, -2, -2, 2, 3, -3, 1
1503604127645,3, 1, 4, -1, 26, 7, -2, -4, 1
1503604127669,5, -1, -15, -8, -12, -4, 1, 4, 1
1503604127690,7, 0, -1, -5, -52, -17, 0, -2, 1
1503604127705,2, -10, -10, -2, -14, -16, -6, 0, 1
1503604127730,0, 1, 2, 4, 44, 21, 9, 0, 1
1503604127750,11, 2, -6, -2, -6, 13, -6, 2, 1
1503604127768,-3, 4, 3, 0, 2, 4, -1, 4, 1
1503604127787,-51, 1, 4, -4, -5, 1, -4, -46, 1
1503604127810,25, -4, 10, 5, 7, 5, 2, 18, 1
1503604127826,-22, -9, -5, -4, 42, 10, -3, -40, 1
1503604127847,1, -2, 1, 0, -14, -4, 2, 2, 1
1503604127870,19, -14, -15, -9, -3, -10, -4, 17, 1
1503604127885,-8, 7, 7, 6, 19, -2, -4, -13, 1
1503604127901,-15, -6, -3, 2, 8, 2, 4, 11, 1
1503604127917,15, -10, 2, 5, 2, 13, -3, -22, 1
1503604127939,11, -5, -4, -1, -5, -11, -2, 13, 1
1503604127946,22, 0, 2, 3, 11, -3, 9, 48, 1
1503604127968,34, -2, 8, 1, 12, 2, 1, 7, 1
1503604127990,8, 4, 2, 3, -5, 23, 2, 0, 1
1503604128006,-12, -9, -10, -2, -2, -1, -3, -20, 1
1503604128028,0, 7, 0, 5, -9, -4, 6, -7, 1
1503604128050,0, 9, -6, 2, 5, -6, -7, 10, 1
1503604128066,-11, -3, 2, 1, 9, 4, -4, 0, 1
1503604128088,9, -2, 2, 1, 2, -3, -2, -4, 1
1503604128110,10, -4, 1, -4, -11, -1, -1, 25, 1
1503604128126,-39, -10, -12, -11, -11, -15, -3, -13, 1
1503604128148,2, -3, 1, 0, 0, 11, 1, -20, 1
1503604128170,-4, -4, 0, -1, -4, 0, 4, -2, 1
1503604128185,23, 5, 1, 2, 20, -11, 1, 7, 1
1503604128208,0, 10, 12, 7, 25, 3, 0, -12, 1
1503604128234,-20, -16, -9, -4, -16, -10, -2, -1, 1
1503604128245,-8, -2, -3, -2, -8, -2, -7, -17, 1
1503604128268,3, 3, 2, 1, -7, 1, -1, 11, 1
1503604128290,-3, 4, 2, -1, -5, 3, 4, 5, 1
1503604128306,2, 0, -3, -2, 20, 12, 1, 2, 1
1503604128328,12, 8, 1, -2, -10, -3, -2, 5, 1
1503604128350,-14, -1, 3, 0, -2, 10, -1, 7, 0
1503604128367,-15, 0, -4, -1, -3, -3, 5, -12, 0
1503604128381,3, 15, 16, 7, -2, 2, 1, 6, 0
1503604128396,22, 0, -1, -3, -1, -5, 1, -3, 0
1503604128418,16, -3, -3, 0, 26, 12, 4, 5, 0
1503604128441,-6, -1, 0, 3, -7, -2, -1, 6, 0
1503604128456,-19, -5, -8, -7, -4, -3, 0, 8, 0
1503604128478,-28, 4, -3, -6, -14, -26, -3, 0, 0
1503604128501,3, -3, -6, -3, -2, 4, -4, 5, 0
1503604128516,-5, 5, 1, 0, -7, -7, -5, -14, 0
1503604128539,-20, -8, -3, -3, -2, -1, 4, 8, 0
1503604128561,26, -6, -1, -1, 4, 11, 5, 33, 0
1503604128583,-4, 2, 0, 0, -18, -4, 1, 2, 0
1503604128598,-3, 2, 3, 2, -3, -4, -2, -8, 0
1503604128621,-5, -10, -4, -2, 0, 1, 0, -19, 0
1503604128643,5, 6, 16, 8, 14, 5, 0, 8, 0
1503604128658,-12, -3, -5, -4, -1, 0, -3, -4, 0
1503604128681,-22, -4, -2, -2, 0, 3, 4, 31, 0
1503604128704,-5, 5, 2, -3, -3, 9, -5, -22, 0
1503604128718,-2, -1, 2, 3, 2, 2, -2, -19, 0
1503604128741,-12, -3, -5, 0, 20, 3, -1, -24, 0
1503604128763,-1, -2, 0, -3, -12, -2, -2, -30, 0
1503604128778,10, 3, 16, 6, -4, -10, 0, 1, 0
1503604128802,14, -6, -9, -4, -3, -4, 3, 25, 0
1503604128823,-4, -4, -8, -2, 0, -3, 5, 35, 0
1503604128839,1, -3, -7, -4, -10, -16, -2, 6, 0
1503604128860,-5, 3, -1, -1, -13, 1, -6, -7, 0
1503604128869,-31, -6, -5, -4, 2, -6, -7, 4, 0
1503604128890,6, -4, -4, -3, 0, 2, -3, 12, 0
1503604128912,10, 0, 1, -2, -2, -1, 8, 7, 0
1503604128928,-1, 5, -1, 1, -17, -3, 0, -24, 0
1503604128950,10, 3, 2, 2, -10, -6, -1, -10, 0
1503604128972,-2, -5, 1, -4, -9, -8, 0, 8, 0
1503604128980,-9, -5, -5, -4, 17, -1, -2, -16, 0
1503604129003,15, 2, -1, -3, -16, 3, 2, 5, 0
1503604129018,6, 13, 15, 6, 29, 0, -5, 8, 0
1503604129040,8, 3, 4, 1, 0, 1, 2, 16, 0
1503604129048,3, -5, 6, 7, 11, 1, -2, 11, 0
1503604129070,9, 7, 2, 3, 23, 0, 3, -2, 0
1503604129093,-3, -6, -4, -2, -4, -6, 0, 2, 0
1503604129101,0, -6, -4, -4, -11, -1, -1, -19, 0
1503604129123,7, 2, 0, 1, -11, -1, -3, 27, 0
1503604129139,-7, -4, -2, 1, 10, 8, -1, -18, 0
1503604129160,-4, 5, 1, -3, -14, 1, 0, -21, 0
1503604129183,-2, -5, -5, -1, 27, 0, -4, -22, 0
1503604129198,-25, -6, -3, -4, -3, -2, -11, -32, 0
1503604129220,-13, 1, -1, 2, -10, -1, -1, -21, 0
1503604129243,-22, 4, 2, 1, 3, -3, -3, -15, 0
1503604129258,-9, -2, -4, -5, -1, -4, -2, -18, 0
1503604129281,14, -2, 1, -2, -2, 2, 0, -12, 0
1503604129304,5, -6, -5, -1, -3, -1, 4, 13, 0
1503604129318,7, 3, 2, -3, -5, -4, -5, 2, 0
1503604129341,14, -10, -4, 0, 2, -2, -1, -4, 0
1503604129363,10, 1, -3, -2, 2, -2, -1, 15, 0
1503604129378,-3, -4, -2, 0, -3, 8, 1, 8, 0
1503604129400,-10, -1, -4, -3, -2, -2, -1, 4, 0
1503604129423,-1, 0, -2, -2, -3, -1, 1, 3, 0
1503604129439,-3, -4, -3, -1, 0, 1, 1, -2, 0
1503604129453,3, -7, 4, 11, 3, 1, -1, 0, 0
1503604129476,-20, -10, -13, -10, -2, -3, -2, -4, 0
1503604129491,-2, -7, -4, 0, -1, 0, 0, -2, 0
1503604129514,7, 3, 3, 0, 0, 0, 0, 2, 0
1503604129539,10, -3, -15, -10, -4, -2, 1, -1, 0
1503604129551,7, 1, 3, -2, -2, -1, -2, 2, 0
1503604129574,-10, -1, 4, -7, -4, 1, 0, -4, 0
1503604129596,-14, 1, 4, 1, -1, -3, -2, -3, 0
1503604129612,-18, -21, -2, -1, 0, 3, -1, 2, 0
1503604129633,-1, 4, 0, -1, -1, -2, 1, 0, 0
1503604129656,5, 7, 3, 0, 0, -1, -2, -1, 0
1503604129673,4, 13, 0, -2, -1, -2, -2, 0, 0
1503604129693,-12, -4, -5, 0, 0, -2, 0, 2, 0
1503604129716,16, 3, 2, 8, -1, -1, 0, 2, 0
1503604129731,-11, -1, -3, -10, -4, -1, -2, -6, 0
1503604129754,1, 11, 4, -2, 1, 0, -2, -5, 0
1503604129777,5, -4, -8, -5, -1, 0, -1, 0, 0
1503604129791,-2, -4, -2, 4, 2, 0, -3, -4, 0
1503604129814,7, 18, 4, 7, 2, 2, 1, -7, 0
1503604129836,-3, -11, -16, -10, -1, -1, -2, -3, 0
1503604129859,-2, -6, -8, -7, -10, -18, 0, 0, 0
1503604129865,10, 6, 3, 5, 5, 2, 1, 5, 0
1503604129881,-2, 1, 0, -3, -2, -5, 0, -9, 0
1503604129903,4, 0, -3, -1, 17, -3, 0, 2, 0
1503604129925,8, 13, 5, 5, -2, -2, -2, 3, 0
1503604129941,-7, -1, 2, 3, -2, -10, 0, 3, 0
1503604129963,-2, 10, -6, -5, -9, 1, 0, -1, 0
1503604129986,-2, -6, -13, -7, -2, 1, 1, -1, 0
1503604130002,2, -10, -6, 0, -5, 1, -1, 3, 0
1503604130023,0, 1, 2, -1, 22, -13, -3, -5, 0
1503604130045,-3, 5, 0, -3, 1, -4, -1, -4, 0
1503604130053,2, -5, -4, 3, 9, -1, -3, -1, 0
1503604130078,13, 4, -5, -9, -7, 1, 0, 2, 0
1503604130091,-12, -25, -16, -3, 21, 0, 1, -3, 0
1503604130114,17, 22, 8, -3, -7, 0, -1, 2, 0
1503604130136,-5, -1, -12, -2, -8, -2, -2, -3, 0
1503604130151,-12, -14, -6, -4, -5, 2, -1, -1, 0
1503604130176,-5, 2, 0, 1, 6, 3, -2, -5, 0
1503604130196,4, 0, 7, 5, -10, -3, -1, -2, 0
1503604130212,-13, -2, -2, -2, -1, 3, 1, -3, 0
1503604130234,-1, 2, 0, 1, 9, -1, -2, 5, 0
1503604130256,-14, -13, -8, -5, 9, 15, 2, -4, 0
1503604130271,7, -3, 2, 13, -10, -5, 0, 17, 0
1503604130293,6, 11, 3, -4, -1, 0, -5, -15, 0
1503604130316,-9, -7, -4, -5, -8, -7, -2, -13, 0
1503604130331,-4, -2, -1, 7, -16, -16, 0, 0, 0
1503604130346,-4, -4, -8, -1, 1, 0, -1, 0, 0
1503604130360,-1, -1, -1, 1, -1, -3, 0, -1, 0
1503604130383,-6, -3, -4, -3, -1, 2, 3, -4, 0
1503604130405,-3, 2, 3, 2, 0, 0, -1, 1, 0
1503604130428,12, -4, -1, 2, 1, 0, -5, 1, 0
1503604130444,-5, -3, -9, -6, -8, 7, -2, -1, 0
1503604130465,-7, -1, -4, -2, -4, -7, 0, -1, 0
1503604130488,1, 5, 2, -3, 6, 2, -4, -2, 0
1503604130503,-2, 0, -6, -6, -5, -4, -1, -5, 0
1503604130525,11, 0, 8, 3, 4, 1, 1, 2, 0
1503604130548,9, 1, 2, -1, 4, -1, 0, -2, 0
1503604130563,1, 1, 4, 13, -5, -2, 1, 1, 0
1503604130586,-7, -2, -4, 5, 5, -1, 0, -17, 0
1503604130608,11, 2, 0, -6, -16, -10, -2, 0, 0
1503604130623,-11, -6, -8, -6, 3, 1, -1, -1, 0
1503604130645,-9, -9, -1, 8, 5, 9, -1, 2, 0
1503604130668,-1, -3, -6, -11, 32, 4, -3, -1, 0
1503604130683,-9, -2, -3, -9, -10, -6, -1, -6, 0
1503604130705,2, 2, -2, -3, -7, -9, 0, 1, 0
1503604130728,21, -1, -1, -4, -5, 0, 1, 17, 0
1503604130744,-1, 5, -2, -1, -9, 1, 1, -1, 0
1503604130765,4, -13, 1, 2, -5, -1, -1, 0, 0
1503604130788,-5, 3, 0, 0, -15, -6, -2, -1, 0
1503604130803,-8, 1, 7, 7, 17, 2, -1, -6, 0
1503604130825,-4, 0, -2, -8, 1, -1, -1, 1, 0
1503604130848,-5, 6, -6, -6, -16, -5, 0, 12, 0
1503604130863,-29, -2, -6, -4, 1, -1, -5, -13, 0
1503604130886,8, 6, 5, 1, 9, 7, 0, -2, 0
1503604130908,14, -3, 4, 4, 17, -1, 0, 8, 0
1503604130923,-6, -3, -3, -3, -6, -3, -5, -6, 0
1503604130946,-3, 3, 2, 5, -5, 1, 0, 1, 0
1503604130968,4, -5, -3, -5, -1, -1, 1, -3, 0
1503604130983,10, 2, 4, 5, -18, -4, 2, 2, 0
1503604131005,4, -9, -2, 13, 15, 2, 0, -5, 0
1503604131028,-7, -8, -4, -11, -10, 0, -2, -7, 0
1503604131043,-3, 1, 0, -6, -18, -4, -5, -5, 0
1503604131065,6, -2, -3, -6, -7, -5, 0, -1, 0
1503604131088,5, 5, 0, 3, 12, 3, 0, 8, 0
1503604131103,-10, 1, -6, -4, -3, -1, 1, -9, 0
1503604131125,-4, 3, 2, 5, 12, 4, -4, -1, 0
1503604131148,5, 0, -2, 0, -16, -7, 3, 3, 0
1503604131163,-9, -2, -2, -6, -38, -30, -2, 3, 0
1503604131185,0, 6, 0, 0, -4, 1, -1, -10, 0
1503604131208,-10, -7, -1, 1, 8, 2, 1, -6, 0
1503604131223,-1, 2, 9, 11, 30, 14, 1, -4, 0
1503604131248,0, -3, -4, -8, 20, 21, -3, 0, 0
1503604131268,10, 11, -2, -5, -14, -7, -2, 2, 0
1503604131283,-9, -2, 1, -1, -4, -8, -1, 0, 0
1503604131305,-12, -6, -5, -7, 25, 2, 2, -1, 0
1503604131328,-6, 2, 0, -5, 5, 10, 0, 3, 0
1503604131343,-2, 1, -8, -6, -15, -5, -2, 0, 0
1503604131365,15, -2, 8, 6, -5, 4, 3, 4, 0
1503604131388,0, 1, -1, 2, 1, -1, 2, 9, 0
1503604131410,-15, -7, 1, 0, -4, -6, -2, -7, 0
1503604131425,2, 4, -11, 1, 31, 15, -1, -4, 0
1503604131448,7, -2, 0, 1, -14, -5, 0, 5, 0
1503604131470,-9, 6, 4, 0, 21, 13, -1, -2, 0
1503604131486,3, -5, -5, -1, -9, 3, 1, 7, 1
1503604131508,-1, 2, -1, 2, -16, 2, -1, -10, 1
1503604131530,-6, 2, 7, 2, -1, -5, -4, -9, 1
1503604131545,-7, -11, -6, -6, -3, 1, 0, 2, 1
1503604131575,-1, -2, -1, -4, -18, -9, 0, 5, 1
1503604131590,-3, -4, 2, 2, 8, -10, -1, -4, 1
1503604131605,7, -1, -3, 0, 3, -3, -3, 10, 1
1503604131628,9, 1, 4, 3, -13, -8, 1, -3, 1
1503604131651,-15, -5, -7, 1, 7, 1, -7, -7, 1
1503604131665,21, 8, 0, 3, 9, 6, 1, 6, 1
1503604131688,6, -23, -12, -9, -28, -15, -4, -5, 1
1503604131710,-22, 2, 3, -1, 1, 3, 1, -9, 1
1503604131720,2, -7, 0, 10, -13, -3, 6, 0, 1
1503604131740,23, 2, -2, -1, -12, -8, -4, 19, 1
1503604131750,10, 1, -1, 2, -9, -18, -2, 2, 1
1503604131770,6, 9, 5, 0, -16, -10, 0, 0, 1
1503604131786,-2, 2, -2, -3, 0, 0, -2, 2, 1
1503604131808,5, 3, 5, 5, 12, -3, -2, 4, 1
1503604131830,-26, 0, 2, -5, 43, 17, -2, -10, 1
1503604131845,9, -1, -2, -3, -25, 3, -3, 4, 1
1503604131868,8, 1, 2, -3, 7, 6, 2, -2, 1
1503604131890,-26, -3, -8, -7, -13, -3, 3, 10, 1
1503604131905,5, -2, -7, -3, 16, 5, -7, -4, 1
1503604131928,10, 1, -9, 0, 6, -1, -1, 0, 1
1503604131955,42, -3, 1, 5, -19, -1, 3, 9, 1
1503604131965,-1, 3, 0, 3, 42, 14, 1, -9, 1
1503604131988,-23, -1, 0, 1, -15, -30, -2, -6, 1
1503604132010,-15, -7, -2, -6, 16, 10, -3, -15, 1
1503604132026,-14, -3, -3, 4, 2, 8, -3, 4, 1
1503604132048,16, -4, -4, -5, -22, -22, -6, -15, 1
1503604132070,-16, 5, 12, 5, -9, 0, 1, 6, 1
1503604132086,1, -5, -1, 3, 9, 7, 3, 3, 1
1503604132108,-4, 2, 4, 0, -8, -3, -4, 0, 1
1503604132130,-5, -5, -5, -5, 1, 4, -3, 2, 1
1503604132145,30, 10, -1, -1, 7, 12, 6, 13, 1
1503604132168,-13, -6, -1, -4, -26, -8, 0, 3, 1
1503604132198,6, 0, 1, 2, 29, 17, -7, 1, 1
1503604132205,-18, -5, -7, -2, -5, -2, 1, -16, 1
1503604132228,-1, 6, 5, -8, -4, -16, 0, -3, 1
1503604132252,9, 3, -8, -6, -10, 1, 0, 0, 1
1503604132265,11, 1, -2, 8, -2, -1, -2, -4, 1
1503604132289,-33, 1, 4, -4, -22, -8, -1, -21, 1
1503604132309,9, -4, 5, 5, -8, -5, 0, -8, 1
1503604132332,6, -2, -1, 3, -17, 7, 5, 1, 1
1503604132348,-3, -5, 0, -1, 9, 9, -2, -13, 1
1503604132370,36, 5, 0, 0, -4, -9, 2, 31, 1
1503604132392,-4, -3, -3, 0, 17, -2, 2, 7, 1
1503604132408,-5, 1, 0, 2, -6, 2, -1, -9, 1
1503604132430,-10, -3, 3, -4, -1, -11, -3, -2, 1
1503604132454,-15, -9, -6, 6, 16, 7, -2, -1, 1
1503604132468,-31, -2, -12, -9, -6, -2, 3, 6, 1
1503604132490,17, -4, 4, 5, 27, 11, -7, -6, 1
1503604132512,25, 4, -6, -6, -1, 2, -5, -11, 1
1503604132528,-9, 3, -3, 4, -1, -5, -1, -1, 1
1503604132550,4, 2, 8, -3, -1, -20, 1, 2, 1
1503604132572,-5, -3, 1, -6, -20, 0, -2, 9, 1
1503604132588,-1, -1, 0, -1, -4, 2, 3, 6, 1
1503604132610,-3, -4, -3, -2, 2, 5, 1, 0, 1
1503604132632,5, 3, 1, 0, -7, -4, 1, 7, 1
1503604132648,-13, -3, -1, 1, 6, 2, -1, -9, 1
1503604132670,9, 4, 2, 2, 0, 0, 1, 3, 1
1503604132692,-6, -4, -6, -5, -27, -8, 4, -15, 1
1503604132700,3, -3, -2, -5, -3, -11, -5, -6, 1
1503604132724,-19, 1, -7, -5, 4, 3, 1, 5, 1
1503604132738,-15, -10, -8, -7, -11, -2, 2, -12, 1
1503604132760,14, -1, 3, 12, 5, 2, -2, 8, 1
1503604132783,21, 2, 0, -3, -7, -4, -2, -5, 1
1503604132799,16, -1, 4, -1, -2, 3, 0, 13, 1
1503604132822,9, 1, -1, -1, 10, 1, -3, -10, 1
1503604132843,-11, 0, -1, 2, -11, -6, 1, -6, 1
1503604132859,-17, -3, 1, -1, 1, -1, -2, -11, 1
1503604132880,8, 0, 0, -2, -2, -1, -1, -3, 1
1503604132903,-27, -1, -3, -2, -5, 4, 0, -15, 1
1503604132918,1, -3, 0, 2, 0, -1, 0, 1, 1
1503604132940,-20, -6, 1, 11, 12, 4, -1, 5, 1
1503604132964,1, 9, 7, -1, -8, -2, -2, 5, 1
1503604132985,21, -3, -4, -4, -8, -6, -1, 14, 1
1503604133000,1, -4, -4, -7, -1, -1, 0, -6, 1
1503604133024,-14, 4, -1, 0, -7, -4, 2, 14, 1
1503604133038,-1, -2, -5, 1, 6, -1, 3, -4, 1
1503604133061,23, 0, 4, -5, -10, 1, 1, -10, 1
1503604133083,-1, -4, -4, 17, 6, 2, -2, -3, 1
1503604133100,4, 1, -2, -5, 19, -1, -3, 4, 1
1503604133123,-8, 0, 5, -3, -12, -7, -2, 4, 1
1503604133143,-6, 4, 5, 2, -9, -1, 3, -11, 0
1503604133159,6, -6, -8, -6, -8, 0, 2, 5, 0
1503604133172,-25, 11, 14, 13, 13, 4, 1, -15, 0
1503604133191,7, -1, 1, 5, -3, -2, -8, -14, 0
1503604133210,-26, -6, -3, 0, 3, -2, 3, -6, 0
1503604133233,13, 1, -1, -3, -24, -4, 0, -3, 0
1503604133255,-23, -6, -4, -2, -1, 1, -2, -13, 0
1503604133270,15, -6, -6, -4, 6, 2, 2, 10, 0
1503604133292,9, -5, -5, -2, -2, -1, 1, 36, 0
1503604133314,2, 3, 2, 1, 4, 0, 2, -11, 0
1503604133330,12, 7, 7, 1, -13, -9, -5, -23, 0
1503604133352,-24, -4, 3, 5, 7, -2, -4, 44, 0
1503604133375,23, 3, -4, -2, -1, 0, 1, 1, 0
1503604133391,-10, -4, -4, -2, 3, 5, 0, -13, 0
1503604133413,2, -5, -2, -3, 31, 5, 0, 15, 0
1503604133435,8, 3, 2, 0, 0, -3, 0, -12, 0
1503604133450,1, -2, 11, 7, -4, -1, -1, -20, 0
1503604133472,-12, -1, -5, -3, 0, 3, 0, -5, 0
1503604133495,-19, -6, -3, -1, -4, 2, -5, 16, 0
1503604133510,11, 4, -1, -2, -14, 1, 1, -18, 0
1503604133526,20, -4, 0, 2, -9, -6, -1, 29, 0
1503604133540,-26, -9, -3, -1, -4, 0, 4, -10, 0
1503604133563,-11, 1, 3, 1, -2, -2, 5, -14, 0
1503604133586,-10, -4, -6, -2, 17, 4, -6, -14, 0
1503604133601,25, 5, 1, 3, -4, -3, 3, 33, 0
1503604133623,-3, -4, -5, -2, -28, -5, -2, -18, 0
1503604133631,7, 3, 3, 1, -6, -3, -4, -15, 0
1503604133661,-4, 1, -3, -2, 25, 1, 0, -17, 0
1503604133683,4, 0, -1, -1, -17, -6, -5, -2, 0
1503604133705,-3, 8, 1, -1, -15, -9, 2, -10, 0
1503604133720,-5, 4, 1, 0, -7, -5, -4, -1, 0
1503604133743,4, 3, 2, 1, 1, 1, -3, -5, 0
1503604133765,-19, -2, -7, -7, -18, -1, -2, -9, 0
1503604133780,-40, -10, -5, -4, -7, -6, -10, -37, 0
1503604133803,14, -5, -4, -2, 2, -2, 5, 5, 0
1503604133827,-21, 0, 2, -2, 4, -1, -5, -15, 0
1503604133840,9, 1, -2, 1, -8, -1, 3, 9, 0
1503604133863,38, 6, 7, 2, 2, 1, 2, 32, 0
1503604133885,10, 4, 0, -1, -1, 3, 5, 14, 0
1503604133900,-12, 0, 0, 3, -3, 8, 0, 10, 0
1503604133923,25, 2, 2, 0, 4, -2, -1, 14, 0
1503604133945,-1, 0, 3, 2, 18, 2, 1, -10, 0
1503604133961,-20, 1, -3, -1, -21, -6, 1, -19, 0
1503604133983,21, -3, -3, -3, -9, -3, 0, 11, 0
1503604134005,6, 0, 1, 1, 4, -3, -6, -5, 0
1503604134021,-2, 3, 6, 2, -22, -3, -3, -3, 0
1503604134043,-1, -2, -3, -4, -10, -1, 3, 6, 0
1503604134065,-2, 1, 5, 0, 12, 0, -2, -14, 0
1503604134080,-19, -3, -2, -1, 4, -2, -3, 3, 0
1503604134103,9, 10, 3, 2, 12, 1, -3, -2, 0
1503604134125,11, -4, -6, -3, 7, 1, -1, 5, 0
1503604134148,-5, -4, 0, 3, -2, 0, -1, -5, 0
1503604134163,-6, -6, -7, -5, -4, -5, -6, -3, 0
1503604134185,-5, -3, -3, -5, 1, 1, 0, -6, 0
1503604134208,-6, -7, -3, 0, -1, 2, -1, -1, 0
1503604134223,-5, -3, 3, 1, 3, 1, 0, -2, 0
1503604134245,-7, -1, -4, -1, 0, -1, -1, -6, 0
1503604134268,3, 1, 1, 4, 2, -1, 2, 1, 0
1503604134283,-5, -5, -3, -7, 0, -1, -2, -4, 0
1503604134305,-2, 8, -3, -2, 1, -1, -1, -4, 0
1503604134329,-2, -6, -2, 0, -6, 4, -2, -2, 0
1503604134343,16, -9, 6, 9, 5, 0, 3, -2, 0
1503604134365,-4, 2, 0, -5, 1, -5, -2, 0, 0
1503604134387,-4, -2, 0, 0, -2, -1, 0, -1, 0
1503604134403,1, 0, -10, -8, -6, -2, -1, 1, 0
1503604134425,-11, -29, -14, -4, -10, -3, 0, 0, 0
1503604134447,26, 33, -2, 3, 10, 2, 0, 2, 0
1503604134464,-5, -4, 2, -3, -1, 2, -1, 7, 0
1503604134485,-1, 13, 9, -3, -1, -2, -2, 3, 0
1503604134508,-12, -45, -33, -6, -3, -2, 1, 1, 0
1503604134523,-5, -1, 4, -1, -1, -2, -1, -6, 0
1503604134545,-1, 49, 36, 11, 4, 0, -1, 1, 0
1503604134568,4, 9, 4, 1, -3, -3, 0, -3, 0
1503604134582,4, 6, -5, -4, -44, -8, -2, 0, 0
1503604134599,-3, -19, -19, -3, 3, -2, -2, -12, 0
1503604134621,-8, -16, -5, 0, 2, 2, -1, 0, 0
1503604134636,-16, -14, -11, -3, -7, -2, 0, 1, 0
1503604134658,-4, -4, -1, 1, 12, 1, -1, -1, 0
1503604134687,9, 9, 6, 0, 0, -2, -1, 4, 0
1503604134697,2, -9, -17, -6, -8, 1, -4, -3, 0
1503604134718,-9, -13, -4, -1, -1, 0, 3, -7, 0
1503604134741,0, -1, 3, 0, -3, -1, 0, -1, 0
1503604134756,4, 10, 4, -1, 23, 0, -4, -4, 0
1503604134778,7, 19, 9, 0, 7, 4, -1, 5, 0
1503604134802,2, -4, -10, -3, -14, -2, 1, 1, 0
1503604134816,3, -20, -4, -1, 2, 4, -1, -2, 0
1503604134839,12, 6, 15, 3, -9, -6, -1, 3, 0
1503604134861,9, 7, -7, -3, 14, 0, -2, 0, 0
1503604134869,0, -6, -9, -3, -5, 0, -2, -1, 0
1503604134883,2, 8, 4, 0, -4, -3, -3, -6, 0
1503604134905,-5, -14, -4, -1, 15, 3, 0, 2, 0
1503604134928,-5, 8, 7, -1, -8, -5, -3, -2, 0
1503604134943,-1, 25, 15, 4, 6, 1, -1, -3, 0
1503604134967,4, -25, -12, -3, -18, -2, -1, 2, 0
1503604134988,1, -11, -9, -2, -9, -4, -2, -5, 0
1503604135003,-4, -8, -1, 0, 2, -2, 1, 0, 0
1503604135025,3, -30, -13, -2, -3, -1, 2, 1, 0
1503604135048,-6, -21, -8, -4, 2, -1, -2, 1, 0
1503604135075,-3, 11, 0, 0, 18, -1, -2, -6, 0
1503604135085,1, -5, -1, -2, -6, -3, 0, 4, 0
1503604135111,-3, -1, -7, -1, 5, 1, 0, -4, 0
1503604135130,-1, 10, -1, -1, -6, 1, 2, 1, 0
1503604135145,-5, -7, 14, 1, 3, -1, -2, -6, 0
1503604135168,-1, -1, -3, 1, -3, 3, 0, 1, 0
1503604135190,4, -1, -1, 1, 23, 1, 0, 5, 0
1503604135205,2, 7, 2, 0, -6, -1, -1, -1, 0
1503604135228,3, -9, -11, -2, -2, -2, -3, -3, 0
1503604135250,3, 5, 1, 0, -7, -1, 0, -3, 0
1503604135268,-4, 6, 0, 0, -2, -3, -1, 0, 0
1503604135288,2, 1, 1, -1, -5, -1, 2, 3, 0
1503604135310,-2, 7, 4, 0, -2, -1, -2, -2, 0
1503604135325,12, -5, -7, -3, 4, -2, -5, -2, 0
1503604135348,-10, -4, -1, -1, -11, -2, -3, -1, 0
1503604135370,-1, -7, -4, -1, -5, -2, -3, -2, 0
1503604135378,-10, 8, 9, 0, 15, 3, 1, -4, 0
1503604135402,1, 18, 16, 2, 11, 3, -2, 4, 0
1503604135408,-2, 7, 5, 2, 20, 4, -1, -4, 0
1503604135430,-4, -7, 5, -1, -5, -1, -1, -2, 0
1503604135445,-1, -12, -11, -4, 5, -1, 0, -1, 0
1503604135472,3, 2, -3, -3, -2, 0, -2, -2, 0
1503604135490,0, 10, 0, -3, -9, -1, -4, -4, 0
1503604135507,-2, -1, -5, -1, -3, -2, -1, 1, 0
1503604135528,3, -5, -9, 0, -3, -2, -3, 0, 0
1503604135550,-4, -12, -4, -2, 3, 0, -1, -2, 0
1503604135558,4, -5, -10, -5, -11, -3, 0, -1, 0
1503604135581,-3, 4, 1, -2, -5, -1, -1, 1, 0
1503604135596,-2, -8, -1, 0, -6, -2, -1, 1, 0
1503604135619,-2, 11, 14, 0, -13, -1, -4, -4, 0
1503604135641,-2, -5, -4, -1, -7, -2, 1, 2, 0
1503604135656,3, -1, -2, 1, 14, 4, 2, 1, 0
1503604135680,-1, -3, -4, -2, -5, -1, 0, -1, 0
1503604135685,-3, 1, -2, -1, -9, -3, -3, 1, 0
1503604135708,-4, 2, 2, 1, -4, -3, 1, 3, 0
1503604135730,-3, -3, 3, -2, -5, -4, -5, -5, 0
1503604135746,0, -10, -4, -1, -2, -4, -3, 0, 0
1503604135770,2, 8, 4, -1, -3, -1, 1, -14, 0
1503604135790,-3, 14, 2, 0, -5, -2, 4, -1, 0
1503604135805,2, 3, 3, 1, 0, 2, 1, 3, 0
1503604135828,-6, -22, -7, -2, -1, -2, -4, 0, 0
1503604135857,-3, -15, -3, 0, 1, 2, 0, 0, 0
1503604135865,-5, 6, 3, -2, -2, -2, -1, 0, 0
1503604135888,2, 3, 2, 2, -1, -1, 1, 2, 0
1503604135911,-1, -1, 7, 1, 1, 2, 3, 11, 0
1503604135925,1, 17, 15, 4, 2, 0, -2, 0, 0
1503604135948,0, -3, -8, -2, -1, -3, -2, 1, 0
1503604135971,-2, -5, -8, -2, 0, -2, -2, -2, 0
1503604135985,1, -5, -2, -1, -3, -1, -1, -3, 0
1503604136008,-2, -6, -7, -2, 0, -2, 1, 1, 0
1503604136030,1, -3, -3, -2, -1, -1, -2, -2, 0
1503604136053,0, -4, 3, -1, 1, 0, 2, 8, 0
1503604136068,-8, 21, 11, 1, -2, 0, -2, -5, 0
1503604136090,-7, -21, -11, -3, -2, -1, 0, -12, 0
1503604136113,10, -8, -8, -3, 0, -3, -2, -6, 0
1503604136128,-5, -1, -12, -2, -1, -2, -2, -1, 0
1503604136150,-2, -2, 0, -3, -2, -1, -2, 4, 0
1503604136173,-3, -7, 7, -1, 0, -1, 1, 0, 0
1503604136188,9, -13, -5, -2, 0, 1, -2, -2, 0
1503604136210,8, -4, -13, -3, -2, -3, -2, -1, 0
1503604136232,-4, 2, 1, 1, 0, 0, 2, 2, 0
1503604136249,-5, 6, 1, 3, 0, 1, 0, 2, 0
1503604136272,9, 7, -4, -3, -2, -3, -1, 1, 0
1503604136279,-14, -25, -6, 1, 3, 0, -1, -1, 0
1503604136301,-7, -12, -8, -3, 0, -1, 1, -1, 0
1503604136323,-9, 5, -4, -1, -3, -2, 0, 7, 0
1503604136340,7, -1, -10, -4, -2, -2, 0, -2, 0
1503604136361,3, 5, 3, 3, 7, 0, -3, -1, 0
1503604136383,31, 9, -6, -5, -17, -2, 2, 5, 0
1503604136398,8, 1, 2, 1, 1, 2, 3, 4, 0
1503604136421,2, -1, 2, 5, 10, 4, -6, -8, 0
1503604136443,-41, -18, -8, -5, 14, 0, -3, 5, 0
1503604136458,-1, 3, -4, -7, -15, -2, 2, -6, 0
1503604136481,8, 17, 19, 3, -2, -1, 1, 2, 0
1503604136503,-3, -7, -9, -6, -4, -3, 0, 4, 0
1503604136518,-6, -6, -3, -1, -1, -1, 0, -17, 0
1503604136542,7, 5, 0, 6, 16, 13, 2, 2, 0
1503604136564,-21, -3, -6, -4, -3, 4, -1, -3, 0
1503604136579,6, -3, -5, -3, -6, -3, -2, 7, 0
1503604136601,-10, 1, -1, 0, -16, -7, 0, -5, 0
1503604136622,7, 1, 1, 1, 11, -4, -1, 1, 0
1503604136638,0, -5, 2, 2, -13, -7, -3, -6, 0
1503604136661,5, -3, -4, -1, 2, 9, 1, 8, 0
1503604136683,1, -7, -5, 2, 7, 3, 0, -2, 0
1503604136698,-11, -1, 5, -1, 0, -1, -1, -4, 0
1503604136720,7, 0, 5, 0, 4, 0, 0, 5, 1
1503604136727,-3, 26, 15, 1, 2, 1, 0, 24, 1
1503604136750,0, -11, -4, 2, 1, 0, 1, 1, 1
1503604136775,2, -5, -7, 0, 9, 7, -2, -9, 1
1503604136787,-10, 7, 7, 1, -3, -3, 5, 4, 1
1503604136803,-7, 2, 1, -3, -3, -4, -3, -2, 1
1503604136818,-1, -5, -3, -1, 18, 4, -1, 8, 1
1503604136843,-6, 4, 6, 6, 0, -4, 0, -3, 1
1503604136863,-7, -10, -8, -7, 12, -1, -2, -2, 1
1503604136879,-9, -2, 0, -2, 0, -5, 0, 0, 1
1503604136901,2, -2, 0, 1, -2, 13, -1, -8, 1
1503604136923,9, 1, 0, -3, -12, -10, 7, 21, 1
1503604136939,-10, 7, -10, -5, -7, -7, -5, -7, 1
1503604136961,-8, -11, -7, -4, 32, 6, -1, -4, 1
1503604136983,-19, -3, 3, -1, -13, -7, -9, -19, 1
1503604137005,9, 1, 3, 3, -6, -3, -1, 5, 1
1503604137021,-10, -2, 3, 5, 8, 9, 0, -14, 1
1503604137035,-14, -4, 6, 1, 11, 3, 6, 2, 1
1503604137051,2, -3, 0, -1, 14, -1, -4, -10, 1
1503604137076,-41, -2, -2, 1, 27, 9, -3, -23, 1
1503604137095,3, -2, -4, 2, -3, -5, -2, 4, 1
1503604137111,21, 7, 1, 0, -11, -3, 0, -8, 1
1503604137133,-35, -5, 1, -5, -1, -2, -1, 1, 1
1503604137155,17, 7, 4, 2, -6, -4, 1, -10, 1
1503604137170,-4, 2, -3, -5, -14, -3, 0, 6, 1
1503604137193,-12, -3, -1, -3, -10, -6, 2, -11, 1
1503604137215,12, -6, -4, -1, 3, 2, -1, 8, 1
1503604137230,0, -8, -1, 2, 16, 12, -4, -5, 1
1503604137253,39, 13, 17, 3, 22, -1, 0, 24, 1
1503604137274,-3, -4, -5, -8, 9, 0, -4, -4, 1
1503604137283,-7, -4, -4, -4, -5, -7, -3, 14, 1
1503604137305,6, -5, -7, -5, -7, 2, -1, 5, 1
1503604137321,-15, -6, 1, -1, -1, -1, -1, 24, 1
1503604137344,2, 5, -2, -2, -2, 1, 0, 1, 1
1503604137365,-28, -2, -3, -6, 1, -2, -1, -4, 1
1503604137381,-14, -1, -2, -2, 15, -4, -4, -26, 1
1503604137403,28, 5, 6, 1, -4, 2, -1, -5, 1
1503604137425,39, -3, -1, 1, -13, -3, 2, 16, 1
1503604137441,-21, -2, 0, 0, -1, -1, -5, -17, 1
1503604137464,-15, -2, -3, 0, 17, 3, -2, 6, 1
1503604137486,10, 0, -3, -2, -8, 1, 2, 15, 1
1503604137501,-4, 3, 5, 1, -6, -2, -1, -6, 1
1503604137523,20, 1, -4, -8, -2, 0, 2, -7, 1
1503604137552,-8, 13, 15, 5, -5, 0, -2, -18, 1
1503604137561,-15, -9, -10, 0, -1, 1, 0, 4, 1
1503604137583,6, -9, -3, -8, 4, -3, -6, -32, 1
1503604137605,-5, -1, -4, -3, -1, 2, 0, 0, 1
1503604137628,9, -4, -7, -1, -17, 0, 0, 24, 1
1503604137643,6, -2, 2, 1, -4, -7, -2, -13, 1
1503604137665,-7, 1, -3, 1, -1, 0, -1, -6, 1
1503604137681,-9, 2, -1, 3, 9, 4, 1, 6, 0
1503604137703,7, -3, 1, 2, 11, 2, 0, 10, 0
1503604137725,-3, 1, 0, -2, -23, 0, 0, 6, 0
1503604137741,-9, 0, 3, 1, 0, -1, -1, -4, 0
1503604137763,6, 14, 11, -2, -2, -4, 1, 6, 0
1503604137786,-9, 6, -2, -5, 2, -2, -5, -9, 0
1503604137801,-17, -9, -2, 6, 2, 2, 5, 0, 0
1503604137823,-2, -3, -7, -6, 20, -5, -1, -1, 0
1503604137847,-8, -3, -2, -2, -6, 0, -4, -5, 0
1503604137861,11, -3, -3, -2, -13, -8, 2, -9, 0
1503604137883,-8, -5, -4, -2, 3, 0, -1, -1, 0
1503604137905,0, -2, -3, 2, 3, 0, 1, -2, 0
1503604137928,-11, 1, 4, 3, 4, 2, -4, 2, 0
1503604137943,1, 2, 1, 1, 13, 7, -1, -10, 0
1503604137965,-9, 1, -6, -3, -4, 3, 0, -10, 0
1503604137988,-9, 1, 11, 9, -1, -2, 2, -15, 0
1503604138003,9, -2, -6, -10, -7, -2, 1, 4, 0
1503604138025,6, -3, -9, -4, 18, -1, -5, 8, 0
1503604138048,4, -1, 1, -1, 29, 13, -1, 6, 0
1503604138064,-25, -5, -6, 1, -17, -8, -4, -16, 0
1503604138088,2, -5, 2, 15, -8, -5, -3, 7, 0
1503604138108,32, 10, 5, -4, -6, -2, 2, -5, 0
1503604138124,5, -3, -4, -7, -6, -4, 6, 6, 0
1503604138145,-13, -4, -2, -3, -14, -3, -3, -2, 0
1503604138168,2, 3, -5, -5, 7, 7, 5, 6, 0
1503604138183,-8, -7, -5, -7, -15, -6, -1, -3, 0
1503604138205,-12, -2, 1, 2, 3, 2, -3, 14, 0
1503604138227,1, 1, 1, 5, 1, -1, -6, 3, 0
1503604138243,6, -1, 1, -2, -7, -4, -4, -9, 0
1503604138265,26, 5, 0, -2, -3, -2, -1, 2, 0
1503604138288,-3, 0, 3, 0, -34, -4, -2, -10, 0
1503604138303,-12, -4, 1, -1, 0, 1, 2, -5, 0
1503604138325,-17, 1, -1, 1, 8, -2, -4, -14, 0
1503604138349,5, 1, -4, -5, 4, -1, 3, 2, 0
1503604138363,-4, -2, 0, 2, 6, -1, 1, 2, 0
1503604138385,-10, -8, -5, 1, 4, 5, 3, 11, 0
1503604138393,-3, -12, -9, -3, -1, 0, 2, -7, 0
1503604138416,-4, -1, -1, -2, -8, -3, -2, -5, 0
1503604138437,-1, -1, -1, 0, 4, 1, -3, -20, 0
1503604138454,-15, -4, -6, -4, -4, 0, -3, 14, 0
1503604138475,-21, -1, 3, 5, 1, -1, 2, 8, 0
1503604138497,6, -12, -9, -7, -9, -1, 0, 9, 0
1503604138513,10, -3, -9, -2, -8, -6, 0, 2, 0
1503604138535,-19, -10, -7, -1, 3, 1, -1, -34, 0
1503604138557,11, 1, 2, 1, 1, 3, -2, -29, 0
1503604138573,10, 4, 2, -1, 5, 1, 0, 7, 0
1503604138595,6, 0, -4, 1, -5, -3, 0, 20, 0
1503604138619,-9, -3, 2, 0, 5, -1, -3, 3, 0
1503604138633,2, -1, -1, -3, -10, -7, -1, 7, 0
1503604138655,0, 3, 1, -1, 3, -3, -1, 5, 0
1503604138677,3, 8, 5, 1, 1, 4, -1, 1, 0
1503604138693,-14, -10, 5, 3, 4, 2, 3, -8, 0
1503604138708,2, -9, -4, -4, -4, -2, -2, 5, 0
1503604138723,14, 1, -1, -3, 0, -3, -2, 11, 0
1503604138745,2, 7, 6, -1, 0, 1, 0, 21, 0
1503604138768,-9, 0, -1, 4, 21, 3, -1, -4, 0
1503604138785,15, -3, -2, -2, -2, -1, -6, -27, 0
1503604138805,-4, -4, -6, -1, -9, -3, -3, 7, 0
1503604138828,1, 21, 20, 7, 4, 0, -4, -6, 0
1503604138852,-3, 0, -5, 0, -2, -2, 0, 6, 0
1503604138865,-5, -12, -9, -2, -4, -1, 4, -2, 0
1503604138888,3, -2, 0, 2, 1, 1, -4, -1, 0
1503604138910,-6, -11, -9, -5, -6, -1, 0, -6, 0
1503604138925,3, -8, -4, -4, -1, 0, 1, 1, 0
1503604138948,-4, 0, -8, -1, 0, -1, -1, -3, 0
1503604138970,0, 7, 3, 10, 4, -1, -2, 0, 0
1503604138986,-2, 3, 2, 9, -2, -1, 1, 0, 0
1503604139008,-3, 2, -1, -9, -4, 0, -2, -2, 0
1503604139030,-3, 1, 3, 4, 0, -1, 0, -2, 0
1503604139045,-3, -4, -6, -7, 0, -1, -1, -1, 0
1503604139062,-1, -2, -10, -13, -4, 0, 0, -2, 0
1503604139076,-2, -4, -3, -5, -1, 0, 0, -2, 0
1503604139097,-1, 4, -3, 3, -11, -2, 0, 3, 0
1503604139121,-3, -4, -3, 3, 4, 2, -1, -5, 0
1503604139135,2, -2, -1, 2, -4, -2, -1, 1, 0
1503604139157,-4, -8, -1, 1, -5, -3, -3, -1, 0
1503604139179,0, -4, -4, -8, 6, 2, -1, -3, 0
1503604139196,-1, 0, 0, -5, -3, -1, 0, -1, 0
1503604139217,-1, -1, -6, -2, 2, 1, 1, 2, 0
1503604139239,0, 1, 3, 8, 6, -2, -1, 0, 0
1503604139255,2, -3, 0, 2, -4, 1, 0, 0, 0
1503604139277,-1, -2, -1, 0, 0, -3, -3, -2, 0
1503604139299,2, 1, 2, -2, -2, -1, -3, -5, 0
1503604139315,3, -2, -2, -3, 0, 0, 0, 3, 0
1503604139337,-3, 8, 1, 3, 2, 0, 0, -3, 0
1503604139359,0, 2, -5, 0, -2, -2, 0, 4, 0
1503604139375,-3, -8, -6, -2, -1, 1, -2, -4, 0
1503604139398,3, 7, -1, -3, -1, -1, -3, -11, 0
1503604139423,-6, 3, -1, -5, -2, -1, 1, 2, 0
1503604139443,-1, 20, 6, 0, 2, 0, 0, -2, 0
1503604139458,1, -12, -5, -2, -3, -1, 0, 2, 0
1503604139481,-3, -2, 3, 4, 0, 0, -2, 0, 0
1503604139503,15, 10, -1, 18, 4, 1, 0, 5, 0
1503604139518,-6, -7, -5, -5, -3, -3, -2, -2, 0
1503604139540,-7, -5, 2, -3, 0, -2, 0, -4, 0
1503604139564,10, 24, 7, 2, 1, 1, -1, 3, 0
1503604139578,-19, -14, -3, -5, -3, -2, -1, -1, 0
1503604139600,-17, 12, 5, -3, 0, 0, -3, -8, 0
1503604139625,3, -10, -1, -7, -3, -2, -1, -3, 0
1503604139631,7, 22, 6, -2, -2, -2, -1, -2, 0
1503604139645,10, 9, 3, 3, -1, 2, 0, 7, 0
1503604139667,-8, 2, 13, 11, 3, 1, 1, 1, 0
1503604139691,-6, -15, -14, -7, -2, -4, -2, -3, 0
1503604139705,5, 15, 20, 6, -1, 0, 0, 0, 0
1503604139727,-3, -4, -7, -2, 29, 3, -2, -2, 0
1503604139750,5, -19, -14, -5, -9, -3, -1, -3, 0
1503604139772,-4, 14, 11, -3, -6, -1, -2, -2, 0
1503604139789,7, 24, -11, -5, -7, -2, -5, -11, 0
1503604139810,-29, -13, -7, -2, -16, -4, 12, 6, 0
1503604139832,-1, -17, -12, -5, -13, -3, -3, -3, 0
1503604139847,-16, -34, -12, -2, -2, 1, -2, -1, 0
1503604139870,5, 2, 10, 0, 2, -1, 8, 21, 0
1503604139893,-9, -21, -11, -5, 4, -2, -8, -2, 0
1503604139907,65, 20, -13, -3, 0, -2, -5, -47, 0
1503604139931,-7, 39, 9, 4, 1, 1, -9, 9, 0
1503604139953,2, -5, 14, 3, 0, 1, 5, 14, 0
1503604139967,-19, -9, 9, 3, 1, 0, 9, 21, 0
1503604139991,-12, -20, -2, -2, 1, 0, -2, -5, 0
1503604140013,3, 2, 3, 1, 1, 5, 29, -12, 0
1503604140028,-5, -10, -9, -1, -4, -1, -23, -25, 0
1503604140050,15, 15, -9, -3, 0, -4, -30, 21, 0
1503604140073,0, -14, -4, -1, 0, -6, -1, -13, 0
1503604140096,-10, -21, -7, -1, 8, -6, 17, 16, 0
1503604140111,6, -1, -4, -5, -3, 3, -10, 16, 0
1503604140133,3, 45, 16, 2, -1, 1, -4, 40, 0
1503604140147,-4, -3, -2, -1, 0, -3, -5, -40, 0
1503604140170,-10, -11, -4, -1, -2, 2, -2, -8, 0
1503604140192,-6, 12, 3, 0, -1, 0, 21, -8, 0
1503604140207,2, -13, 0, 3, 46, 4, -14, -4, 0
1503604140230,-1, -11, -2, -2, -19, -6, -18, -20, 0
1503604140252,-6, 12, 2, -1, -7, 13, 20, -6, 0
1503604140268,16, 7, -3, -2, -9, -8, 6, 37, 0
1503604140294,9, -9, -8, 1, 41, 1, 2, -14, 0
1503604140312,-2, 16, 3, 2, 10, 1, -4, -17, 0
1503604140321,7, 8, 2, -2, 2, 6, -13, -5, 0
1503604140343,-6, 16, 3, 0, -5, -4, -4, -8, 0
1503604140361,4, 4, 5, 0, -5, 0, 1, 1, 0
1503604140381,8, -14, -3, 0, 3, 3, -14, -15, 0
1503604140403,5, -1, -4, 0, 4, 1, -2, 13, 0
1503604140419,0, 4, -2, -1, 1, -1, 1, 3, 0
1503604140441,4, 23, 4, -1, -8, 1, 9, 9, 0
1503604140464,-2, -1, -4, 1, 1, 0, 4, -4, 0
1503604140478,1, -4, 2, -1, -4, -1, 0, -1, 0
1503604140500,-15, -7, -1, 0, 7, 3, -5, -4, 0
1503604140523,-9, -6, 2, -1, -2, -4, -7, -2, 0
1503604140538,10, -16, -10, -3, -5, -2, -1, -5, 0
1503604140562,14, 33, 1, 2, -1, -1, 4, 4, 0
1503604140569,6, 7, -1, 2, 7, -2, 2, 9, 0
1503604140590,2, 1, -6, -5, -29, -6, -2, -2, 0
1503604140612,-10, 9, 4, 1, 6, 3, -5, -1, 0
1503604140628,-5, -1, 2, 0, -7, -4, -2, -7, 0
1503604140650,9, -4, -7, -2, -4, 1, 3, 4, 0
1503604140673,0, 11, 5, 0, -3, 1, 2, -4, 0
1503604140695,7, -7, -2, -1, -5, -2, -1, -1, 0
1503604140712,-14, -5, 5, 3, 7, 0, -1, 0, 0
1503604140726,-8, -10, -4, -5, -8, 3, 1, -1, 0
1503604140740,10, -18, -8, -6, -6, 7, 2, 7, 0
1503604140763,5, 9, -3, 0, 20, 5, -2, -6, 0
1503604140785,-7, -1, -2, 2, 17, -29, -2, -2, 0
1503604140801,-1, -7, -3, -1, -22, -25, 9, -6, 0
1503604140823,5, -1, -2, 1, 2, 39, 3, 3, 0
1503604140845,-3, 1, 6, 1, -13, 8, -9, -3, 0
1503604140863,-8, -6, -6, -5, -8, -8, -7, -8, 0
1503604140883,7, 0, -3, -2, 6, -4, 0, 30, 0
1503604140905,2, -3, -2, -2, -3, -7, -2, -3, 0
1503604140921,7, 4, -2, 3, -16, -5, -1, -11, 0
1503604140943,6, -6, 4, 2, 7, 0, -1, 1, 0
1503604140965,-24, -3, -2, -3, 18, 16, -3, -5, 0
1503604140980,-12, 3, 3, 1, 16, 5, 2, -5, 0
1503604141003,-2, 9, -8, -1, 5, -5, -3, -11, 0
1503604141025,3, 1, -3, -2, 13, 6, 4, 9, 0
1503604141040,2, -3, 3, 6, 19, 4, -3, 11, 0
1503604141064,14, 5, 2, 0, 2, -8, 1, -3, 0
1503604141085,-8, -4, 2, 1, -19, -8, -3, -10, 0
1503604141101,-11, 0, 0, 0, -20, -2, 1, -4, 0
1503604141123,-27, -4, 0, -2, 0, 6, -3, -25, 0
1503604141145,8, 6, -4, 0, 7, -8, 1, 14, 0
1503604141162,-29, -8, 3, -3, -23, -5, -3, -25, 0
1503604141183,24, -3, -2, -2, 24, 14, -1, 15, 0
1503604141205,6, -2, -4, -2, -12, 2, 0, -1, 0
1503604141220,30, 12, 4, 2, -2, -2, 1, 10, 0
1503604141243,5, -1, -4, -5, -16, -9, -2, 2, 0
1503604141265,-19, -5, -2, -5, -66, -17, -3, -1, 0
1503604141280,-1, -4, -4, -2, -8, -14, -3, 3, 0
1503604141303,3, -2, -2, -2, -17, -11, 1, -1, 0
1503604141325,-4, -5, -3, 2, 31, 12, 0, 3, 0
1503604141340,-1, -14, -7, -5, 13, 10, 2, -2, 0
1503604141370,-1, 2, -3, -3, 5, -5, -2, -5, 0
1503604141385,-1, 9, 2, 2, 10, 6, 2, 7, 0
1503604141400,-13, -4, 0, 0, 0, 1, -2, -7, 0
1503604141423,4, 5, -1, -4, -33, -22, -2, 9, 0
1503604141445,8, -4, 1, -1, -43, -18, -3, 2, 0
1503604141461,4, 5, 1, -4, -5, 1, 1, 0, 0
1503604141483,9, 2, 12, 3, 41, 19, 0, 1, 0
1503604141505,-17, -11, -2, 7, 0, -2, 0, 11, 0
1503604141512,12, 3, 7, -2, -19, -5, -1, 3, 0
1503604141535,-6, -7, -9, -1, 5, 10, -2, -2, 0
1503604141550,3, -2, -1, 3, 87, 42, 3, 9, 0
1503604141573,-8, -4, -4, -3, -22, -19, -5, -3, 0
1503604141604,-11, -11, -2, 0, -20, 1, 0, 5, 0
1503604141606,-7, -2, 0, -1, -21, -12, -1, 1, 0
1503604141626,25, -2, -1, -2, 8, -3, 1, 14, 0
1503604141647,-9, -7, -7, -7, 8, -13, -1, -5, 0
1503604141655,8, 11, 0, -4, -6, -6, 1, 5, 0
1503604141677,-2, 1, 0, -3, -18, -13, -4, -6, 0
1503604141692,-6, -11, 1, 1, 7, 3, -4, -18, 0
1503604141709,-5, 4, -2, -5, 5, 0, 1, 3, 0
1503604141723,-11, -2, -1, -4, 4, -1, 0, -2, 0
1503604141745,5, -1, 0, -2, -10, -5, -3, -3, 0
1503604141768,2, 0, -9, -9, 22, 6, -3, -6, 0
1503604141783,-11, -5, -1, -3, -10, 0, 1, -1, 0
1503604141806,-6, -7, -2, -1, -21, -14, 1, 1, 0
1503604141828,-20, -5, -3, -2, 10, 6, -8, -26, 0
1503604141843,-12, 2, 6, 6, -18, -10, 1, 10, 0
1503604141867,1, -1, 0, 0, 4, -6, 1, -1, 0
1503604141887,-15, -8, -4, 0, 6, -4, 1, -12, 1
1503604141895,-11, -2, 5, 0, -2, 3, 0, -14, 1
1503604141912,-20, -6, -3, -3, 8, -1, 2, 0, 1
1503604141926,3, 7, 10, 4, 3, 4, -1, 6, 1
1503604141948,-5, -2, 4, 5, 26, 3, -2, -13, 1
1503604141963,21, 14, -4, -3, -25, -14, 2, 11, 1
1503604141985,-7, -10, -2, -3, -5, -6, 1, -1, 1
1503604142008,18, -1, -6, -4, -49, -11, -6, -5, 1
1503604142023,-6, -7, -7, -5, 17, 9, 3, 2, 1
1503604142045,15, 3, 1, 3, 24, 7, 1, -8, 1
1503604142068,8, -3, -4, -6, -20, -7, -4, 8, 1
1503604142083,0, -8, -3, 0, 12, 3, -3, -1, 1
1503604142106,-7, -2, -2, 3, -2, -3, 11, 12, 1
1503604142127,-8, -1, 1, 0, 2, 5, 5, 1, 1
1503604142144,14, 0, -2, 1, 50, 39, -8, 13, 1
1503604142166,-40, 0, -6, -4, -12, -11, -3, -26, 1
1503604142189,9, -1, -2, -2, -1, 0, 2, 1, 1
1503604142203,14, 6, 5, -1, -43, -26, -6, 1, 1
1503604142226,-5, -1, -1, -4, -11, -8, 1, 6, 1
1503604142247,12, -2, -5, -4, 11, 17, 3, 12, 1
1503604142263,15, -7, 0, 1, 12, 0, -2, -1, 1
1503604142285,16, 22, 21, 7, 5, -3, -4, 18, 1
1503604142307,81, 15, 3, 2, -6, 2, -1, -4, 1
1503604142323,-30, 1, 11, 9, -7, -7, 0, -9, 1
1503604142346,-25, -7, -9, 2, 88, 28, -4, -23, 1
1503604142370,-4, -3, 19, 6, -20, -18, -3, -1, 1
1503604142383,-19, -6, -12, -5, 4, 10, -1, -12, 1
1503604142405,-13, -10, -12, -6, -21, -11, 3, 4, 1
1503604142413,13, 0, -5, -5, -37, -29, 2, 4, 1
1503604142436,9, 6, 5, 2, -11, -3, -3, 5, 1
1503604142457,14, 12, 2, 2, -1, -2, 3, 5, 1
1503604142473,-31, -7, -5, -2, 2, -8, -2, -27, 1
1503604142495,41, 5, 0, 0, -34, -16, -1, 8, 1
1503604142517,1, -3, -6, -2, 9, -3, -1, -7, 1
1503604142542,-1, -5, -3, 1, 12, 5, 2, 12, 1
1503604142549,-16, -9, 1, 4, 15, 23, 4, -3, 1
1503604142571,-6, 0, -2, -1, 18, 14, -3, -4, 1
1503604142587,-9, -3, 2, 1, -25, -12, -2, -9, 1
1503604142608,-12, -3, -2, -1, -1, -1, -1, 7, 1
1503604142637,5, 0, -7, -3, 20, 19, 8, 3, 1
1503604142646,34, -4, -1, -1, -17, -8, -2, -4, 1
1503604142667,-22, 0, -7, -4, -1, -8, -3, -2, 1
1503604142690,18, -3, -3, -3, -26, -17, 1, 5, 1
1503604142706,8, 3, -6, -1, -11, 2, -3, 1, 1
1503604142727,24, 2, -7, -6, -17, -4, 2, 13, 1
1503604142750,-10, -5, -1, 2, 19, 10, 3, -4, 1
1503604142765,-34, -7, 13, 9, -16, -7, 0, -13, 1
1503604142787,-3, -3, -2, 0, 14, 3, 3, -4, 1
1503604142810,-32, -1, -4, -4, 27, 7, -1, 6, 1
1503604142825,29, -4, -5, -1, 4, 1, -4, 8, 1
1503604142847,-4, -2, -5, -6, -10, -7, -2, -12, 1
1503604142872,9, 20, 6, 3, 26, -1, -1, -26, 1
1503604142878,-1, -8, -4, 1, 1, 2, 3, 0, 0
1503604142899,10, 9, 9, 3, 22, 7, 2, -12, 0
1503604142908,6, 0, -3, -4, -11, 3, 4, 18, 0
1503604142930,-18, -12, -6, -7, -5, -7, -11, -16, 0
1503604142945,23, 5, 4, 2, -4, -3, -5, 8, 0
1503604142967,4, -2, 2, 1, 6, 3, 2, -19, 0
1503604142990,18, -3, -2, -1, -8, 5, 6, 11, 0
1503604143008,-26, -12, -6, -6, -16, -9, -7, -4, 0
1503604143027,24, 8, 1, -1, 2, -1, 2, 17, 0
1503604143050,-17, -3, -5, -1, 1, -2, 0, -8, 0
1503604143066,37, -3, 3, 0, -5, 2, 6, 18, 0
1503604143088,-4, 1, 8, 2, -9, -2, -3, -3, 0
1503604143110,-34, 2, -4, 4, 14, -4, 0, -25, 0
1503604143125,-21, 0, 2, 2, 1, 0, -4, -37, 0
1503604143148,0, -5, -8, -4, -13, -12, -2, 2, 0
1503604143170,-9, 3, 2, -1, 1, -1, 0, 7, 0
1503604143178,4, -2, 1, -1, 0, 2, 3, -11, 0
1503604143199,-2, -1, -1, -1, 18, 6, -4, -13, 0
1503604143208,7, 2, 2, 0, -3, 4, 3, -1, 0
1503604143230,13, 0, -4, -3, 9, 4, 2, 21, 0
1503604143245,5, 11, 4, 6, 10, 1, -4, 5, 0
1503604143267,1, -2, -6, -2, -2, -1, 2, 5, 0
1503604143290,-7, -2, 6, 2, 7, -2, -2, 0, 0
1503604143309,10, -1, -1, -7, 2, -1, 2, 8, 0
1503604143327,0, -5, 2, 0, -29, -7, 3, 1, 0
1503604143350,3, 4, 6, 4, 2, 3, -4, -13, 0
1503604143376,-6, 1, -2, 2, 2, -2, -2, -1, 0
1503604143387,2, -5, -6, -8, 3, 2, -2, 6, 0
1503604143410,-5, -5, -7, -5, 3, -2, -4, -3, 0
1503604143426,-5, -2, -2, -1, -13, -6, 1, 1, 0
1503604143445,-1, 0, 2, 0, -4, -5, 2, 7, 0
1503604143455,12, 4, 9, 4, 0, -1, -5, -7, 0
1503604143478,-10, -2, 1, -2, -21, -1, 1, 9, 0
1503604143499,0, -6, -2, 0, -24, -7, 1, 1, 0
1503604143522,-7, -2, -8, -8, 45, 10, -3, -17, 0
1503604143538,8, -5, -2, -4, -8, -2, 3, 18, 0
1503604143559,4, 4, -1, 2, 2, 0, 0, 8, 0
1503604143582,-5, 21, 31, 5, 5, 3, 2, -8, 0
1503604143598,1, -2, -5, -4, -22, -3, -2, -9, 0
1503604143620,2, 6, 3, 1, -13, -5, -3, -17, 0
1503604143644,5, -1, -4, 4, 16, 4, 1, 6, 0
1503604143657,-6, -2, -7, -5, 10, 4, -4, -14, 0
1503604143681,9, -10, -8, -3, -7, -3, 2, 13, 0
1503604143702,-6, 1, -3, -2, -12, -6, -2, 17, 0
1503604143719,-4, 1, 4, 5, 9, 0, -3, -6, 0
1503604143739,22, 2, 4, 4, -9, -7, -4, 14, 0
1503604143762,-9, -4, -3, 0, 4, -3, 0, -6, 0
1503604143778,4, 4, -4, -4, 5, 1, -1, 5, 0
1503604143799,-1, -7, -3, 0, 6, 2, 1, -7, 0
1503604143822,-25, -7, -5, -4, -8, -4, -7, -29, 0
1503604143837,1, -2, -5, 1, 6, -1, 1, 2, 0
1503604143859,-1, 2, 2, 0, -10, -3, 5, 25, 0
1503604143882,2, -2, -7, -2, 1, 2, -1, -5, 0
1503604143897,5, -6, -5, -1, 5, 1, 6, 34, 0
1503604143919,2, -3, -1, 0, 25, 4, -2, 0, 0
1503604143948,7, 2, 1, 1, 20, 15, -3, -26, 0
1503604143957,-8, 1, 5, 0, -19, -10, -6, -12, 0
1503604143979,-14, -1, -2, -3, -2, 0, 0, -4, 0
1503604144001,2, 6, 1, -3, -6, -2, 0, -1, 0
1503604144018,-5, 4, 3, 2, -1, -3, 1, -5, 0
1503604144039,1, -5, -6, -3, -10, -5, 0, 20, 0
1503604144061,9, -1, -1, -1, -3, 1, 0, 6, 0
1503604144078,-8, -1, 1, 0, -7, -3, -2, -21, 0
1503604144099,-8, -7, -4, -1, -1, 0, 1, -12, 0
1503604144122,2, -6, -9, -3, 2, 0, -1, 12, 0
1503604144137,-6, -2, 0, -3, -6, -2, 0, 1, 0
1503604144159,10, 8, 3, 2, 0, -2, 0, 3, 0
1503604144182,-3, -3, -3, -3, 1, 0, -1, -1, 0
1503604144197,4, 1, -2, 1, 0, 0, -1, 0, 0
1503604144220,-5, 0, -1, 0, 0, -3, -2, -4, 0
1503604144241,-3, -1, -1, -1, -3, -2, -1, 1, 0
1503604144257,-2, -6, -4, -1, -3, 0, -1, 1, 0
1503604144279,-6, -8, 10, 2, 3, -1, 2, -2, 0
1503604144302,2, 7, 2, 4, 0, 1, 2, 1, 0
1503604144317,-3, -27, -17, -10, -2, -2, -1, -3, 0
1503604144339,5, 23, 16, -4, 0, 1, -3, -1, 0
1503604144361,-1, 0, -11, -6, -5, -4, -3, -3, 0
1503604144379,0, 1, 2, 3, 0, -2, 0, 7, 0
1503604144399,7, 3, 2, 1, 0, 0, 1, 1, 0
1503604144422,6, 4, -5, -8, -3, -2, -2, -4, 0
1503604144445,-12, 1, 7, 5, 0, 1, -1, -4, 0
1503604144459,-1, 1, 1, 2, 2, -2, -1, -3, 0
1503604144482,-8, -1, 0, 0, 1, -2, 0, -10, 0
1503604144504,-7, -21, -13, -3, -5, -3, 0, 0, 0
1503604144521,5, 11, 10, 5, 1, -2, -2, -2, 0
1503604144543,2, 2, 0, 1, 0, 0, 1, 5, 0
1503604144565,-1, -3, -1, 0, -1, -1, -1, -5, 0
1503604144588,10, 4, -4, -4, -1, 1, 1, 6, 0
1503604144603,-13, 6, -12, -3, -2, -2, -3, -5, 0
1503604144625,9, -18, -9, 0, 0, -3, -2, -3, 0
1503604144648,-10, 2, 0, -2, 0, 1, -4, -7, 0
1503604144663,3, -4, -6, -4, -1, -1, -2, 2, 0
1503604144685,-13, -3, -9, -5, -4, -2, -1, -2, 0
1503604144708,4, 3, 2, -1, 1, 1, 2, 2, 0
1503604144723,2, 3, 11, 5, 0, -1, 3, 0, 0
1503604144745,-2, -3, 5, 2, -1, 0, -2, 0, 0
1503604144768,0, -6, 2, 5, 4, 0, -2, -1, 0
1503604144783,3, -15, -13, -5, -3, -1, -1, 3, 0
1503604144790,8, -3, -2, -1, -1, 0, -1, -3, 0
1503604144812,-25, 8, 9, 1, -1, 0, 1, -5, 0
1503604144835,8, 1, 2, -1, 0, -1, -1, 1, 0
1503604144850,0, 11, 4, 2, -1, -2, -1, -4, 0
1503604144866,0, -19, -22, -6, -2, -1, 0, -2, 0
1503604144890,3, 5, -3, -4, -1, 0, -3, -12, 0
1503604144903,-12, 11, 3, -2, -3, -1, -1, 1, 0
1503604144925,-4, 4, 1, 0, -1, -3, 0, -2, 0
1503604144950,2, -3, -1, -1, -1, 0, 4, 0, 0
1503604144963,0, -3, 0, 2, -1, -2, 4, -1, 0
1503604144986,1, -11, -2, -1, 1, -1, -5, 8, 0
1503604145008,4, -1, 5, 4, 0, -4, -4, -6, 0
1503604145023,2, 10, 2, -2, -1, 0, 0, 2, 0
1503604145045,-1, 5, 2, 2, -1, -1, 1, 1, 0
1503604145068,-3, -7, 4, 0, -1, 1, 5, -1, 0
1503604145083,0, 3, 2, 2, 0, -1, -2, 1, 0
1503604145106,-2, -5, -6, -2, 0, 1, -10, -6, 0
1503604145127,4, -2, -8, -2, -3, -1, -8, -1, 0
1503604145143,-1, 5, 1, -1, 1, -2, -4, -3, 0
1503604145165,2, 11, 6, 0, -4, -1, 2, -1, 0
1503604145194,0, -7, -2, 0, 1, 1, 6, 3, 0
1503604145203,-4, -7, -7, -4, -2, -3, -1, -10, 0
1503604145225,3, -11, -3, -1, 0, 0, 2, 9, 0
1503604145247,-5, -1, 4, 0, -1, 0, 0, 2, 0
1503604145263,2, 8, 2, -1, 1, 0, 3, 0, 0
1503604145285,-2, 10, 3, -3, 0, -1, 3, -4, 0
1503604145308,2, 3, -11, -2, -2, -2, -9, -15, 0
1503604145326,-7, -6, -10, -2, -1, -2, -10, 2, 0
1503604145346,-8, 0, 4, 0, -2, 0, 2, 1, 0
1503604145367,-1, 0, -1, -1, -1, 1, 4, -1, 0
1503604145388,-7, 0, -1, 0, 0, 1, 2, -3, 0
1503604145405,1, 4, 4, 1, 0, 0, 19, 11, 0
1503604145427,-5, 12, 10, 1, 2, 2, -15, 3, 0
1503604145443,3, -20, -15, -2, 2, 0, -16, -4, 0
1503604145465,1, 4, 4, -1, -7, -3, -2, 0, 0
1503604145488,-4, -1, 1, -2, -2, -2, 5, -1, 0
1503604145503,3, 1, 3, -1, 2, 2, 4, -4, 0
1503604145525,-4, -9, -5, -1, -2, -2, 0, -1, 0
1503604145547,2, -13, -3, 0, 26, -1, 1, 2, 0
1503604145563,1, 3, 4, 2, -7, -1, -2, -3, 0
1503604145586,0, 8, -1, -1, -4, -2, -2, 2, 0
1503604145607,-7, -8, -6, -2, -8, -2, -1, -2, 0
1503604145623,3, -13, -3, 1, -1, -2, -4, 0, 0
1503604145645,-2, -9, -1, -2, -7, -1, -2, -1, 0
1503604145667,1, 2, -1, -2, 2, -1, 0, -3, 0
1503604145683,6, -4, -2, 0, -4, -2, 2, -1, 0
1503604145706,4, 5, 4, 2, -5, -3, -1, 1, 0
1503604145728,-1, -3, -3, -8, -2, -2, 1, 0, 0
1503604145743,-6, 5, 4, 2, -23, -4, 1, 0, 0
1503604145765,-3, 3, 0, -1, -7, -2, 1, -3, 0
1503604145787,-4, -2, 2, 0, 4, 0, -2, -2, 0
1503604145803,4, -3, -7, -5, 9, 2, -3, 0, 0
1503604145825,5, 4, -3, 3, -5, -7, 0, -1, 0
1503604145847,-5, -2, 1, -1, 8, 3, 2, 2, 0
1503604145863,-15, -4, -5, -4, -3, -1, -1, -3, 0
1503604145887,-2, -1, 3, -1, -3, -4, -3, -3, 0
1503604145907,7, 0, -7, -3, 15, 12, -1, -3, 0
1503604145925,6, 0, 2, 2, -7, -2, 0, 8, 0
1503604145945,4, -1, -5, 1, 6, 0, -2, -3, 0
1503604145968,1, 3, 5, 2, 6, 0, -1, -2, 0
1503604145975,-3, -3, -5, -1, -1, -2, 1, 0, 0
1503604145997,-2, -3, -3, 1, 6, -1, 3, -5, 0
1503604146012,5, -2, 2, -2, -23, 0, 7, 3, 0
1503604146035,-14, -4, 0, 3, 15, 2, -18, -10, 0
1503604146057,-6, -3, -1, -5, 3, -6, -5, 4, 0
1503604146065,2, 0, 0, 2, 0, -4, 3, 5, 0
1503604146089,-18, -8, -4, -2, -8, 2, 2, -1, 0
1503604146103,5, -1, -2, 9, 6, -1, -2, -7, 0
1503604146126,-5, 1, -2, -4, -8, -3, 2, 6, 0
1503604146148,1, -4, 0, -1, -13, -5, -5, -7, 0
1503604146163,-2, 1, 0, -2, 4, 4, 0, 3, 0
1503604146185,2, -4, -1, -2, 29, 0, 0, 0, 0
1503604146208,3, 2, -3, -1, -6, 0, -1, -6, 0
1503604146224,11, -6, -11, -7, -9, -1, 2, 14, 0
1503604146245,-12, -9, -11, -6, -4, -1, -1, -8, 0
1503604146268,25, 4, 0, -1, -4, 0, -1, 6, 0
1503604146290,1, 10, 16, 8, -3, -1, -3, -10, 0
1503604146305,-14, -4, 1, 7, 18, 5, 0, -4, 0
1503604146328,2, -6, 0, -4, -7, -4, -3, -4, 0
1503604146350,0, 0, -2, -2, -6, -3, -1, -1, 0
1503604146365,-21, 4, -4, 6, -2, 0, 0, -1, 0
1503604146389,-10, 0, -2, 0, -6, -3, 0, -6, 0
1503604146395,-7, 2, 0, 2, 6, 0, 1, 0, 0
1503604146417,6, -3, -4, -3, 74, 36, -1, -4, 0
1503604146440,2, -1, 0, 4, -13, 0, 0, -5, 0
1503604146457,10, -3, -1, -2, -20, -9, -1, 13, 1
1503604146478,4, 4, 2, 2, 3, -1, -4, 1, 1
1503604146500,25, 3, 0, 3, 10, 10, 2, 8, 1
1503604146515,-8, -2, -3, -3, -14, -1, -2, -6, 1
1503604146537,-10, -2, -3, -3, 18, -5, 1, -3, 1
1503604146560,1, 7, -4, 0, -14, -8, -2, 7, 1
1503604146575,-2, -12, -10, -11, -6, -5, 0, 4, 1
1503604146597,-2, 1, -2, -5, -15, -7, -3, -18, 1
1503604146620,7, 0, 2, 9, 1, 3, 0, 1, 1
1503604146635,0, 0, 5, 1, 1, -3, -1, -3, 1
1503604146657,3, 1, 2, 2, -1, -5, 2, 3, 1
1503604146680,-2, -4, -4, -1, 24, 0, -5, 1, 1
1503604146695,-9, 0, -4, -3, -8, 2, 1, -2, 1
1503604146717,-10, 1, 4, 2, -15, -7, 0, -2, 1
1503604146740,-12, -8, -7, -2, -8, -3, -2, -4, 1
1503604146755,-4, -2, -2, -3, -4, 11, -2, -1, 1
1503604146777,0, -2, -3, -3, 24, 9, -1, 6, 1
1503604146800,-4, 0, 1, -3, 4, -6, 0, -13, 1
1503604146815,5, 2, 3, -3, -19, -9, 1, -1, 1
1503604146837,9, 0, 1, 7, -4, -1, 1, 10, 1
1503604146860,-8, -3, -1, -5, -2, -1, -1, -2, 1
1503604146875,-1, -1, -3, -2, 20, 15, 1, -9, 1
1503604146898,16, 5, 9, 7, 26, 9, -4, 9, 1
1503604146920,2, -9, -7, -4, -19, -12, -2, -2, 1
1503604146935,0, -5, -8, -2, -8, -5, 0, 0, 1
1503604146959,-6, -8, -7, -3, -12, -6, -3, -8, 1
1503604146980,-11, 0, 0, -3, 6, -10, 0, -6, 1
1503604146995,-9, 3, 0, 1, -3, 2, 2, 5, 1
1503604147017,20, 4, 5, 0, -27, -11, -3, 6, 1
1503604147040,3, 0, 1, -1, -16, -13, -2, 5, 1
1503604147055,-25, 1, 1, 3, 9, 3, -1, -11, 1
1503604147077,-14, 3, 2, 1, -11, -1, 1, 1, 1
1503604147100,-12, -2, -5, -1, 44, 14, 0, 1, 1
1503604147115,19, 2, -7, -3, -4, 0, -3, -11, 1
1503604147137,15, -1, -1, -1, -5, 1, 2, 3, 1
1503604147162,16, 1, 3, 11, -10, -3, 3, 12, 1
1503604147175,-7, -3, 0, -3, -15, -6, -5, -8, 1
1503604147198,10, -4, 1, 2, 7, 6, 6, 7, 1
1503604147220,-14, -1, -2, -4, 1, 0, 1, -2, 1
1503604147241,6, 2, -5, -4, -12, -4, -3, -11, 1
1503604147250,-34, -9, -2, 0, 4, 3, -1, -25, 1
1503604147272,-12, -6, 2, 3, 6, 2, 1, -7, 1
1503604147288,-2, 1, 2, 11, 37, 7, 1, -6, 1
1503604147310,15, 0, -4, -1, 28, 23, 2, 5, 1
1503604147332,-23, -8, -3, 0, -15, -7, -2, -7, 1
1503604147348,-19, -3, -4, -4, -10, -8, -2, 3, 0
1503604147370,-16, 1, 7, -1, -9, -8, -1, -12, 0
1503604147395,33, 15, 23, -1, -12, -4, 1, -12, 0
1503604147407,-6, -6, -5, -2, -25, -13, 1, -15, 0
1503604147430,20, -1, -1, -4, -29, -12, 0, -2, 0
1503604147437,-25, -12, -7, -5, -1, -2, -5, -25, 0
1503604147462,22, -5, -6, -4, -3, -2, -2, -2, 0
1503604147468,21, -1, -5, -8, -14, 0, 2, 16, 0
1503604147490,13, -5, -11, -6, -7, 0, -3, 10, 0
1503604147512,21, 2, 0, 1, 5, 0, 1, -16, 0
1503604147532,-3, -4, -2, -1, -6, -2, -3, -13, 0
1503604147550,5, 0, 2, 6, 33, 8, 1, 7, 0
1503604147572,-38, -6, -7, 5, -13, -7, -1, -7, 0
1503604147588,-2, -6, -20, -9, -2, 0, -2, 4, 0
1503604147610,-8, -5, -8, -3, -5, 0, -1, 3, 0
1503604147633,50, 5, 5, -3, -26, -15, 0, 3, 0
1503604147656,24, 2, 2, 1, -3, -4, 2, 38, 0
1503604147670,-17, 0, 1, 1, -6, 1, -1, -15, 0
1503604147692,-42, -7, 0, -3, -13, -6, 1, 2, 0
1503604147701,25, -3, -3, -1, -2, -4, -2, 6, 0
1503604147722,6, 1, -2, 0, 6, 7, 2, 2, 0
1503604147738,-10, 9, 11, 2, 11, 4, -6, 12, 0
1503604147759,-11, -7, -8, 4, -5, 0, -1, -5, 0
1503604147775,-17, -10, -5, -6, -7, -2, -1, -13, 0
1503604147789,-3, 9, 7, -1, 0, 0, -2, -5, 0
1503604147797,-2, -3, -4, 1, 0, 0, -1, -20, 0
1503604147820,8, 1, 2, -9, -5, -2, 2, 1, 0
1503604147842,17, -4, -6, -1, -15, -6, 2, 9, 0
1503604147857,-3, -8, -6, -3, -5, -4, 0, 4, 0
1503604147880,-9, 5, 11, 16, 21, 10, -4, -14, 0
1503604147902,11, -3, -6, -6, 8, 8, -2, 1, 0
1503604147917,6, -3, -6, -4, -5, -7, -1, 0, 0
1503604147940,5, -3, -2, 0, 3, -1, -5, -6, 0
1503604147961,-11, 0, -2, -3, -2, 0, -1, 3, 0
1503604147977,-1, 1, -2, -4, 15, -2, 1, 13, 0
1503604148000,-12, -1, 0, -1, -4, -5, 1, -7, 0
1503604148021,-8, 2, 6, -2, -5, 2, 0, -13, 0
1503604148038,-7, -7, -5, -3, -4, -3, -4, 7, 0
1503604148059,-1, -2, -5, -6, -1, -3, 1, -1, 0
1503604148081,4, -5, -3, -3, -3, -1, 2, -3, 0
1503604148090,-14, 1, 6, 2, -2, 1, -3, -11, 0
1503604148113,7, 3, 6, 14, -14, -2, -1, 7, 0
1503604148135,12, 3, 0, -3, 20, -1, 0, 6, 0
1503604148150,-8, -5, -9, -4, -9, -2, -2, -6, 0
1503604148173,-2, 2, -1, 1, 2, 3, 2, -1, 0
1503604148194,2, 1, -6, -3, -1, -2, -2, -1, 0
1503604148210,-6, -4, 1, 6, -21, -1, 8, 37, 0
1503604148232,-10, -1, 2, -2, -3, -4, 0, 7, 0
1503604148254,-17, -3, -5, -2, 5, 4, 2, 26, 0
1503604148262,3, 1, 0, -9, 6, 1, 0, -13, 0
1503604148284,-1, 0, -1, -2, -7, 0, 1, 3, 0
1503604148300,-10, -3, -6, -6, -3, 0, 1, -23, 0
1503604148322,6, 5, 8, 18, 4, -1, -6, -6, 0
1503604148344,-12, 0, 1, -5, -5, -6, -3, 4, 0
1503604148360,-22, -7, -8, -5, -3, 1, 4, -16, 0
1503604148382,4, -2, 0, 4, 7, 2, 2, 21, 0
1503604148404,0, -6, -5, -4, -6, -3, -2, 15, 0
1503604148420,15, 8, 4, -3, -7, 0, -2, 11, 0
1503604148442,-8, 0, 3, -3, 8, 1, -1, -25, 0
1503604148466,29, -1, -5, -1, 1, 1, -3, 0, 0
1503604148480,-2, -5, -1, -3, -6, -4, -1, 31, 0
1503604148502,-1, 8, 2, 2, 3, 0, 2, -6, 0
1503604148524,1, -6, -8, -3, 0, -3, -7, 4, 0
1503604148540,-3, -5, -5, -1, -7, -3, -2, 8, 0
1503604148562,-7, -5, -2, -4, -22, 0, 0, 1, 0
1503604148584,-5, -2, -1, 0, -4, 2, 1, 3, 0
1503604148601,4, -2, -2, 0, 6, -2, -6, -18, 0
1503604148615,4, -6, -4, -1, 6, 9, 0, 34, 0
1503604148630,-13, -6, -6, -1, -8, -7, 2, -15, 0
1503604148652,-19, 10, 5, -2, 4, -4, 1, -7, 0
1503604148675,9, 2, -2, -5, -50, -30, -2, -13, 0
1503604148690,-3, 0, 2, 0, 11, -3, -6, -17, 0
1503604148712,-18, 0, 0, 3, 19, 15, 2, -16, 0
1503604148735,0, -11, -8, -5, -2, 0, -2, 8, 0
1503604148750,8, 1, 4, 3, 11, 6, -2, 7, 0
1503604148772,-2, -3, -4, -1, 15, 8, -3, 0, 0
1503604148794,-11, 0, -2, -1, 25, 1, -1, 0, 0
1503604148810,6, 1, -1, 1, -3, -1, 1, 15, 0
1503604148832,8, -7, -4, -2, -10, -5, 0, 14, 0
1503604148840,3, -6, -7, -2, -21, -5, 0, 3, 0
1503604148861,10, 3, -4, -6, -34, -9, 1, 16, 0
1503604148884,-10, 9, 7, 4, -11, -8, -2, -8, 0
1503604148902,-2, -5, -5, -4, 4, -5, -1, -12, 0
1503604148922,2, -2, 0, -2, 16, 4, 2, 30, 0
1503604148944,-2, -7, -2, 0, 10, 2, -1, 1, 0
1503604148969,0, 12, 11, 3, 7, 0, -1, -2, 0
1503604148982,-16, -12, -5, -3, 0, -1, -2, -18, 0
1503604149004,-15, -9, -4, -1, 3, 0, 0, -4, 0
1503604149020,16, 7, -5, 0, 1, -1, 0, 6, 0
1503604149043,-12, 23, 17, 2, 8, 3, 1, -1, 0
1503604149064,4, -10, -2, -1, -1, 0, 2, 5, 0
1503604149087,1, -7, -9, -3, -3, -2, 2, 1, 0
1503604149104,11, 15, 6, 0, 2, -1, -1, 2, 0
1503604149124,-8, -8, -10, -2, 1, 0, -4, 0, 0
1503604149146,-4, 5, -7, -1, 0, 0, -1, 2, 0
1503604149162,10, 4, 20, 12, -2, -1, 1, 0, 0
1503604149184,-5, -9, -9, -5, -2, 0, -3, 1, 0
1503604149207,0, -8, -7, 6, 1, 1, 0, -6, 0
1503604149222,-1, 5, -6, -7, 0, 0, -2, 2, 0
1503604149244,-4, -11, 0, -4, -3, -3, -3, 0, 0
1503604149266,1, 12, 15, 0, -1, -2, -2, -3, 0
1503604149282,6, -2, -5, 1, -1, -1, 0, -2, 0
1503604149306,-11, -34, -11, -2, -2, 0, -1, -1, 0
1503604149326,10, -7, -5, 0, -2, -2, 1, 1, 0
1503604149335,-5, -17, -15, -2, -2, 0, 0, 4, 0
1503604149357,-1, 13, 2, 9, 1, -1, 0, 3, 0
1503604149372,15, 19, -1, -3, 1, 2, 0, -2, 0
1503604149394,-10, 7, -5, -1, -2, -2, -1, 2, 0
1503604149417,-3, -6, 5, 0, 0, -1, -1, 0, 0
1503604149432,2, -4, 8, 8, 3, -1, -3, -1, 0
1503604149447,-8, -5, 0, -2, -1, -1, 0, -3, 0
1503604149462,-2, 9, 3, 0, 0, -1, 0, -4, 0
1503604149484,1, 3, -9, -2, -1, -1, -2, 1, 0
1503604149506,7, 11, -4, -3, -32, -4, -4, -4, 0
1503604149522,2, -5, 13, 6, 3, 0, 0, 3, 0
1503604149544,-6, -7, 13, 1, 1, -3, -1, -1, 0
1503604149566,7, 31, -1, -3, 6, 0, -2, 1, 0
1503604149582,-15, -15, -16, -3, 4, 0, -1, -7, 0
1503604149606,3, -15, -12, -3, 5, -1, 1, 0, 0
1503604149626,1, -12, -9, -2, 1, 0, -1, 0, 0
1503604149643,1, 2, -4, 0, 0, -1, 0, -1, 0
1503604149665,0, 11, 1, -3, -18, -4, -1, 0, 0
1503604149688,7, 23, 8, 1, -2, 0, -2, -1, 0
1503604149710,-8, -7, 21, 7, 9, 2, -2, -1, 0
1503604149725,-2, -5, -9, -1, 3, -1, 4, 4, 0
1503604149748,-1, -1, 0, -2, 3, -1, -3, 0, 0
1503604149770,2, 5, 17, 4, 5, 1, 0, -1, 0
1503604149785,2, 5, -9, -4, -3, 0, 0, 1, 0
1503604149808,8, 1, -5, -5, 2, -3, -1, 4, 0
1503604149830,-10, -8, 0, 1, 0, 2, 1, 1, 0
1503604149846,1, -2, 1, 1, -2, 0, -3, -2, 0
1503604149868,5, 4, -7, -3, 0, 0, -2, -3, 0
1503604149890,-6, -7, -4, -1, -1, -2, -1, -3, 0
1503604149907,-7, -4, -6, -2, -1, 0, -1, -3, 0
1503604149928,1, -6, 1, 0, -1, -1, 0, -7, 0
1503604149950,2, -2, 0, 0, -1, -1, 1, 0, 0
1503604149965,-1, -6, -4, 1, 8, 1, -2, 2, 0
1503604149974,-5, -6, -4, -2, 3, -1, 1, -1, 0
1503604149994,-2, -8, -10, -1, -6, 0, -3, -1, 0
1503604150017,-5, -5, -2, -3, -1, -1, -2, -3, 0
1503604150041,-2, -13, -2, 1, 0, 1, 1, 1, 0
1503604150054,-7, -9, 1, 1, 0, -2, -1, 1, 0
1503604150078,20, 18, -1, -1, 1, 0, -2, -1, 0
1503604150099,1, 7, 5, 0, -1, 0, -3, -2, 0
1503604150115,1, -4, -3, -4, -15, -2, 0, -4, 0
1503604150137,0, -2, -1, -1, -4, -2, -1, -1, 0
1503604150159,2, -4, -5, -1, -1, 1, -2, -2, 0
1503604150167,2, -5, 1, 2, 3, -2, -2, 0, 0
1503604150190,9, 8, -1, -3, -5, -2, 0, -2, 0
1503604150205,-2, -11, -5, 0, -4, 1, 0, 0, 0
1503604150227,-4, -19, -6, -2, 3, -2, -3, -7, 0
1503604150251,-23, 1, -10, -3, -1, 0, 1, -4, 0
1503604150266,-10, -20, -6, -4, -2, -2, 0, -4, 0
1503604150287,1, 13, 8, 0, 0, 0, -1, 3, 0
1503604150310,13, 9, 3, -1, -1, -2, -1, 0, 0
1503604150325,2, 6, 4, 1, 0, 0, -3, 1, 0
1503604150347,5, 0, -2, 0, -3, -1, -1, -3, 0
1503604150370,6, 2, -2, -2, -1, -3, 0, -3, 0
1503604150385,-4, -3, 5, 2, 2, 0, 1, 1, 0
1503604150409,-5, -2, 0, -2, -4, -1, 0, 3, 0
1503604150430,1, -6, -7, -1, -1, -2, 0, 2, 0
1503604150445,-12, 4, -7, -3, 0, -2, 0, 3, 0
1503604150478,-9, 14, 12, 3, -1, 0, 1, 5, 0
1503604150490,-5, -5, 7, 0, -3, -2, -4, -5, 0
1503604150505,-5, 8, -2, 0, 0, -2, -1, 2, 0
1503604150528,5, -7, 5, 2, 0, 2, -2, 0, 0
1503604150535,1, 2, -5, -2, -1, 0, 0, 2, 0
1503604150557,-1, 3, 0, -2, 0, 0, 0, 3, 0
1503604150581,-2, -3, -4, -1, -1, 0, -2, 0, 0
1503604150594,3, 8, 3, -1, -1, -1, -2, 0, 0
1503604150617,9, 5, -3, 0, -19, -4, 1, 0, 0
1503604150640,-2, -7, 1, -1, -1, -1, -1, 2, 0
1503604150654,-10, 20, 10, 1, 4, 1, -2, -7, 0
1503604150678,3, -20, -7, -1, 4, -1, 2, 5, 0
1503604150699,-2, 26, 0, -3, 2, 0, -3, -13, 0
1503604150714,-5, -4, -8, -1, 3, -2, 0, 0, 0
1503604150737,6, 5, 2, 2, -1, -3, -3, -12, 0
1503604150759,5, -5, -5, -2, 0, -2, 2, 0, 0
1503604150774,7, -1, 4, 0, 1, 1, 0, 9, 0
1503604150797,-1, 7, 9, 2, 1, -2, 0, 4, 0
1503604150820,-1, -6, -7, -1, 0, -1, -2, 0, 0
1503604150834,-1, -2, -3, -1, -1, 2, -1, 7, 0
1503604150857,0, 11, 5, 1, 0, 0, 0, -1, 0
1503604150880,-1, 1, 2, 0, -1, -2, 1, 5, 0
1503604150894,-3, -10, -3, -3, -3, -2, -4, -13, 0
1503604150917,1, -23, -11, -3, 1, 0, 1, 10, 0
1503604150940,-6, -18, -13, 1, 0, -1, -3, -8, 0
1503604150962,-4, -11, 0, -2, 0, 2, -1, -7, 0
1503604150979,-1, 6, -4, -1, 0, 0, -1, -3, 0
1503604150999,-3, 8, 10, 0, -2, -2, -2, -6, 0
1503604151022,-4, -9, -2, 0, 2, -1, 1, 1, 0
1503604151037,17, 19, 4, 2, 0, 0, -1, 0, 0
1503604151059,-3, -1, 1, -2, -2, -1, 1, 0, 0
1503604151082,-5, -8, -2, -2, -3, -1, 0, 0, 0
1503604151097,-4, 12, 7, 0, 0, 0, -3, 6, 0
1503604151120,-6, -7, -4, -2, -2, -2, 2, -2, 0
1503604151142,2, -4, -3, -1, -1, -1, 2, 3, 0
1503604151157,-5, -1, -5, -1, 0, 1, 0, -2, 0
1503604151180,-5, 3, -3, -2, 0, -2, 0, 5, 0
1503604151202,-3, 13, 8, 0, -3, -1, -2, -4, 0
1503604151217,6, 5, 2, 1, 1, 1, 1, -4, 0
1503604151239,-4, 10, 3, 0, -1, 0, -1, -8, 0
1503604151262,2, 2, 0, -2, -1, -1, -1, 5, 0
1503604151277,6, 4, 0, 2, -1, -2, 1, 1, 0
1503604151299,6, -5, 0, 0, -4, -1, -2, 2, 0
1503604151323,-6, -5, 1, -2, 1, -1, -3, -8, 0
1503604151337,7, 8, -1, -3, 1, -2, -1, -3, 0
1503604151359,-3, -6, -5, -1, -1, -1, -2, 4, 0
1503604151382,-9, -7, -2, -3, -26, -3, -5, -1, 0
1503604151397,-5, -3, 1, 1, 2, 0, 1, 1, 0
1503604151414,-6, 5, 8, 2, -3, -3, -1, -1, 0
1503604151427,-13, -7, 3, 0, -1, -1, 0, 2, 0
1503604151450,-6, -9, -10, -2, -7, -3, -4, -9, 0
1503604151472,4, -3, 0, 1, 21, 0, -2, -8, 0
1503604151488,1, -2, 1, -2, -8, -3, -1, -6, 0
1503604151510,-1, -3, -1, -2, -4, -3, -1, -5, 0
1503604151532,9, 5, 0, -1, -10, -2, -1, 5, 0
1503604151548,-1, 13, -2, -2, 0, -2, 2, 1, 0
1503604151562,-2, -2, -2, -1, 3, 3, 0, -3, 0
1503604151577,-16, -6, 2, 0, 0, 1, -3, -7, 0
1503604151599,-11, -6, -2, -1, -13, -6, -6, -5, 0
1503604151629,4, 1, 15, 4, -11, -6, 0, -2, 0
1503604151637,6, 2, -6, -3, 11, 6, -1, -4, 0
1503604151659,-4, -1, -5, 0, 6, -1, 3, 6, 0
1503604151682,-3, -2, -7, -3, 4, -1, -1, 1, 0
1503604151691,-1, -12, -10, -12, -17, -6, -3, -8, 0
1503604151712,-9, -4, -2, 2, 29, 17, -2, -2, 0
1503604151720,-25, -8, -9, -8, -10, -5, -1, -7, 0
1503604151744,-2, -1, -4, -3, -10, -6, 0, -14, 0
1503604151750,-7, 0, 2, 8, 5, 4, 0, -11, 0
1503604151758,-11, -6, -5, -5, 6, 0, 3, 5, 0
1503604151779,-10, 1, 2, 2, -13, -4, 1, -26, 0
1503604151802,-5, 4, 1, -1, -8, -1, 0, -14, 0
1503604151817,-16, 6, 5, 7, 9, 2, -5, 4, 0
1503604151839,12, -5, -10, -3, 11, 9, -2, 4, 0
1503604151862,-3, 3, 8, -3, -33, 0, -1, -14, 0
1503604151885,-21, -9, -10, -5, 11, -3, 0, -9, 0
1503604151899,2, 0, -1, 2, 17, 1, 0, 28, 0
1503604151922,14, -4, -4, 0, 27, 2, -1, -2, 0
1503604151944,16, 14, 18, 4, 1, -6, -1, -14, 0
1503604151959,-4, 1, -2, 1, 4, -3, -3, -4, 0
1503604151983,-4, -4, -2, 0, 2, -2, 1, 13, 0
1503604152004,-3, -2, 1, -1, -12, 3, -4, 0, 0
1503604152019,12, 3, -2, 1, 10, 0, 0, 7, 0
1503604152034,23, 13, 1, -3, -9, -6, -6, -3, 0
1503604152058,-2, -8, -4, -8, 4, 2, 1, 0, 0
1503604152075,1, 9, -3, -5, -4, -2, -1, 1, 0
1503604152080,4, 2, 0, -1, 59, 14, -1, 1, 0
1503604152102,7, 7, 3, -1, -17, -9, -2, -10, 0
1503604152125,3, 2, -1, -3, -16, -4, -3, 1, 0
1503604152139,4, 2, 1, 10, 10, 1, -4, -7, 0
1503604152162,-13, -2, 4, 3, 8, 3, 0, -11, 0
1503604152188,-4, -4, -5, -8, -16, 0, 2, -3, 0
1503604152199,-3, -1, -1, -4, -13, -6, -2, 0, 0
1503604152222,-13, 2, -3, -5, -10, 2, -5, -10, 0
1503604152252,6, -6, -2, -9, -23, -9, 0, 5, 0
1503604152261,2, 0, 2, -3, 33, 7, -9, 7, 0
1503604152282,6, -9, -4, -1, -14, -4, 1, 1, 0
1503604152304,12, 6, 2, 2, 3, 0, 1, -1, 0
1503604152319,8, -2, -3, -1, -5, -8, 5, 6, 0
1503604152342,-10, 3, 4, 5, -1, 1, 4, -7, 0
1503604152364,10, 10, 9, 9, 13, 10, 1, -14, 0
1503604152379,-1, -2, -5, -3, -9, -9, -1, 7, 0
1503604152402,-3, 0, 0, 5, 1, -1, -4, -7, 0
1503604152424,-2, 0, 2, 1, -4, 0, 2, 4, 0
1503604152439,-13, 0, -1, -2, -17, -7, -3, 3, 0
1503604152462,7, 0, -6, -8, 1, -1, 0, -3, 0
1503604152484,-5, -6, -3, 4, 4, 0, -3, -5, 0
1503604152499,35, 4, -7, -5, -9, -4, 2, 48, 0
1503604152524,-11, -3, 0, 1, 6, 0, -1, -7, 0
1503604152544,-16, -4, -4, -6, -25, -9, -3, -6, 0
1503604152559,-2, 0, 5, 1, 4, 2, -2, -13, 0
1503604152582,-1, 2, 4, 4, 17, 5, -4, -8, 0
1503604152604,-14, -4, -3, -6, 3, 8, -2, -9, 0
1503604152628,-3, 0, -1, -1, -5, -1, 0, -13, 0
1503604152635,7, -2, -1, -2, 6, 2, 1, 11, 0
1503604152651,20, 3, 1, -3, -32, -13, -1, 4, 0
1503604152665,-25, -10, 1, -3, -7, -7, 1, -17, 0
1503604152680,21, -1, -2, 0, 0, 1, 7, 21, 0
1503604152702,24, 3, 4, 4, 6, -3, -3, 1, 0
1503604152724,15, -1, -6, -6, -6, 3, -3, 11, 0
1503604152739,-8, -2, 0, -1, -39, -14, 0, -8, 0
1503604152766,-6, 0, 4, -1, -21, -7, 1, -1, 0
1503604152770,-9, -6, -5, 9, 12, 10, 1, 14, 0
1503604152792,-18, -8, -7, -8, -10, -9, -4, -8, 0
1503604152814,1, 1, 1, -4, -25, -5, 2, -11, 0
1503604152837,2, 1, 1, 0, -8, -1, -7, -30, 0
1503604152855,4, 6, 9, 7, 10, 5, 2, 4, 0
1503604152874,-12, 16, 27, 4, 12, 3, 4, -1, 0
1503604152897,-21, -8, -3, 0, 5, 3, 1, -4, 0
1503604152913,-2, -5, -13, -4, 4, -2, -6, -7, 0
1503604152934,-9, 6, -3, 0, 4, 0, 2, -1, 0
1503604152958,-4, -9, -11, -9, -25, -4, 2, 19, 0
1503604152972,38, 10, -1, -3, 6, 4, 0, 5, 0
1503604152994,49, -4, 4, -7, 2, -5, 2, 28, 0
1503604153017,11, -5, -7, -4, -8, -3, -4, -4, 0
1503604153032,-22, 3, 4, 6, 47, 20, 1, -5, 0
1503604153057,0, 0, -2, -7, -10, -1, -2, 12, 0
1503604153062,22, 3, -3, -4, -13, -4, 1, 22, 0
1503604153092,7, 1, 4, 4, -6, -8, -5, -12, 0
1503604153106,-11, -3, -6, -5, -16, -3, 2, -2, 0
1503604153115,4, -1, -3, -2, 0, 2, 0, 0, 0
1503604153137,-3, -9, -2, 5, -8, -4, 1, -1, 0
1503604153152,-25, -2, -4, -1, 2, 0, 5, -2, 0
1503604153174,-23, -4, -1, -2, -22, -10, -2, -16, 0
1503604153199,-6, 0, 1, -3, 8, 4, -2, -8, 0
1503604153212,7, 1, 1, -1, 27, 6, 0, 7, 0
1503604153234,20, 8, -2, 2, 16, 6, -2, 3, 0
1503604153259,-2, -5, -7, -7, -54, -20, -4, -2, 0
1503604153272,3, -2, -1, 1, 30, 17, 5, -3, 0
1503604153295,-10, 2, 9, -4, 3, -2, -3, -18, 0
1503604153317,-4, 13, 27, 4, 6, -2, -2, 0, 0
1503604153333,7, -9, -14, -5, -11, -5, -1, 6, 0
1503604153354,17, 8, -2, 3, -10, -8, 0, 6, 0
1503604153377,3, -4, 4, 2, 2, -10, -3, 6, 0
1503604153400,0, -7, -9, -1, -11, 3, 2, 9, 0
1503604153414,-5, 1, 4, 1, 8, 9, -3, -20, 0
1503604153437,2, -3, -8, -4, -17, -13, -1, 6, 0
1503604153452,-4, -8, -9, -3, 26, 3, 1, 7, 0
1503604153474,11, -2, -2, 0, 14, 5, 4, 24, 0
1503604153497,-9, -7, -5, -2, -12, -2, -3, -15, 0
1503604153512,-16, 9, 6, 0, -8, -3, -1, -4, 0
1503604153534,-4, 3, 4, 3, 22, 25, -3, -7, 0
1503604153558,-10, 0, 0, 0, 19, 3, 0, 0, 0
1503604153572,-75, -10, -11, -2, -16, -7, 2, -11, 0
1503604153595,20, -5, 7, 0, -5, -7, 3, 4, 0
1503604153617,8, 21, 23, 8, -17, -11, -6, -5, 0
1503604153632,4, -5, -6, -3, 26, 4, -3, -1, 0
1503604153654,-19, -4, -8, -2, -13, -4, -1, 8, 0
1503604153677,50, -6, -3, -1, -11, -3, 0, -11, 0
1503604153694,44, -13, -15, -6, -3, -4, -10, 10, 0
1503604153716,-21, -3, -4, 1, -3, -1, 3, -7, 0
1503604153737,-5, 0, -4, -3, -22, -7, 1, 25, 0
1503604153761,-7, 5, 16, 14, -9, -6, 3, 2, 0
1503604153774,-7, 0, -6, -9, -8, -3, 0, -8, 0
1503604153797,-5, -5, -8, -1, 10, 3, -1, -11, 0
1503604153819,8, 5, 1, 0, -20, 8, 1, 11, 0
1503604153835,-2, -3, -3, -5, 35, 15, 1, -1, 0
1503604153857,-7, -5, -5, -5, -1, -1, -1, -3, 0
1503604153879,29, 39, 43, 15, -3, -6, -4, -8, 0
1503604153895,-8, -4, -8, 3, 15, 4, 1, -2, 0
1503604153917,-28, -13, -11, -8, 11, 1, -7, 0, 0
1503604153940,9, -3, -8, 3, 4, -1, 0, -7, 1
1503604153954,-9, -10, -6, -6, -48, -10, -3, -3, 1
1503604153977,0, -11, -13, -8, 27, 4, 0, 0, 1
1503604154000,11, 6, 1, -5, -23, -9, -1, 5, 1
1503604154014,1, -1, -3, -3, 31, 13, 0, -14, 1
1503604154037,4, -4, -6, -3, -8, -4, 0, 1, 1
1503604154061,-14, -9, -9, -2, 38, 13, 5, -5, 1
1503604154075,2, 5, 1, 1, -25, -13, -2, -2, 1
1503604154097,-8, -8, 8, 5, -1, -6, 0, -1, 1
1503604154119,-5, 10, 10, 1, -2, -5, -3, 12, 1
1503604154135,15, 18, 22, 4, -3, -1, -1, 5, 1
1503604154149,41, -1, -7, 5, 16, 10, 2, 3, 1
1503604154165,-5, 3, 6, 3, -18, -16, 0, -11, 1
1503604154186,-7, 1, -2, -2, 0, -3, 0, -6, 1
1503604154209,2, -8, -3, -1, -21, -20, 0, 2, 1
1503604154224,35, -3, -4, -3, 10, 3, 1, -4, 1
1503604154246,-16, 2, 4, 0, 7, 11, -1, -9, 1
1503604154269,-38, -5, -10, -7, 8, 5, 3, -24, 1
1503604154284,-24, -14, 0, 0, 0, -2, 3, -1, 1
1503604154306,-4, 0, 2, -1, 16, 11, -1, 10, 1
1503604154329,39, 4, 5, 0, 6, 14, -3, -4, 1
1503604154344,0, -11, -5, 0, -3, 1, 0, 2, 1
1503604154366,7, 0, -2, 2, -4, 2, -4, 10, 1
1503604154388,20, 4, 2, 4, 28, 34, 3, 2, 1
1503604154404,15, 7, 2, -3, -25, -7, 2, 20, 1
1503604154426,-17, -12, -10, -3, 14, -6, -2, -5, 1
1503604154448,-45, -12, -3, -2, 13, 11, -5, -7, 1
1503604154466,2, 6, 2, 3, -39, -41, 2, -2, 1
1503604154487,37, 6, 2, -3, -14, -7, 11, 3, 1
1503604154509,-32, 1, 1, 1, 6, 0, -3, -15, 1
1503604154524,14, -6, -3, -5, 17, -6, -16, 23, 1
1503604154553,-20, -1, 6, 2, -11, -8, 0, 33, 1
1503604154556,7, 0, -6, -1, 21, 20, -3, 5, 1
1503604154577,12, 6, 1, -1, -6, -7, 3, 10, 1
1503604154600,-1, -2, 1, -1, 5, -1, -2, -2, 1
1503604154614,29, 3, 0, 0, -10, -1, -2, -31, 1
1503604154637,18, 17, 33, 30, 11, 3, 8, 5, 1
1503604154660,4, -9, -7, -7, 9, 2, -5, 11, 1
1503604154682,-17, 10, -2, -4, 3, 6, 3, 1, 1
1503604154698,-36, -11, -4, -1, -8, -11, -4, -23, 1
1503604154719,-48, -6, -9, -7, -19, -11, -1, -35, 1
1503604154742,-30, -15, -18, -12, -9, -5, -2, 3, 1
1503604154757,46, 3, -1, -9, -18, -6, 2, 63, 1
1503604154779,-78, -13, -2, 1, -18, -6, -5, -40, 1
1503604154802,50, -3, -3, -2, 14, 6, -1, 35, 1
1503604154817,2, -4, 1, 0, 11, 8, 3, 15, 1
1503604154840,-17, -5, -5, -7, 3, -1, -8, -10, 1
1503604154862,5, 6, 3, 0, 15, 1, -3, 14, 1
1503604154877,-17, 6, 5, 12, 2, -2, -3, -20, 1
1503604154900,40, 3, -1, -3, 32, 6, 2, 15, 1
1503604154922,11, -4, -5, -1, -4, -2, 2, 1, 1
1503604154937,-22, 3, -3, -1, -2, -2, -2, -17, 1
1503604154959,-44, -9, -6, -3, -28, -3, -1, -24, 1
1503604154982,24, 1, 2, 1, -5, 4, -1, -5, 1
1503604154999,17, 1, 2, 7, -23, -14, 0, -1, 1
1503604155019,3, 9, 8, 1, 18, 12, 0, 11, 1
1503604155042,-7, 4, -9, -6, 9, -4, 0, 11, 1
1503604155057,3, -8, -7, -4, -8, -2, 3, 17, 1
1503604155079,10, -4, -1, -3, 10, -9, -12, 7, 0
1503604155102,12, -3, 2, -5, -12, -20, -5, 2, 0
1503604155117,15, -4, -4, -8, -55, -12, 3, -1, 0
1503604155140,-14, -4, -5, -1, 7, 3, 2, -12, 0
1503604155162,22, 2, -1, 1, 8, 15, 4, 11, 0
1503604155177,9, 0, -6, -4, 18, -7, 1, -6, 0
1503604155202,-12, 0, 4, 3, -6, 1, 0, -7, 0
1503604155222,-30, -13, -6, -1, 1, -3, -8, -25, 0
1503604155237,3, -16, -7, -3, 12, 8, -1, -3, 0
1503604155259,-1, -9, -4, 1, 34, 15, 3, -1, 0
1503604155284,40, 1, 3, 0, -31, -15, -2, 20, 0
1503604155297,-4, 6, -1, -3, -20, -14, 1, 0, 0
1503604155319,5, 12, 4, 0, 14, 0, 0, -1, 0
1503604155342,-24, 6, 0, -1, -8, 1, 1, -13, 0
1503604155357,-18, -10, 1, 4, 12, 3, -6, -11, 0
1503604155379,17, 8, 8, 0, 11, 6, -2, 2, 0
1503604155402,-60, -4, -11, -5, -6, -7, 2, 22, 0
1503604155417,16, -17, -3, -2, -12, -4, 3, 4, 0
1503604155439,-14, 0, -12, -6, -2, -3, -9, 0, 0
1503604155462,42, 16, 3, 4, 12, 7, 0, 12, 0
1503604155477,-35, -5, 9, 3, 6, 14, 4, -14, 0
1503604155501,12, 8, 5, 3, 3, -1, 3, -2, 0
1503604155522,7, 7, 3, 0, 2, 11, 4, 6, 0
1503604155537,48, 2, 5, -3, -12, -10, -3, -1, 0
1503604155559,4, -1, 9, -3, -11, -5, -7, -11, 0
1503604155582,-11, 2, -1, 3, 27, 10, 2, 3, 0
1503604155605,-24, 5, -7, 1, -3, -6, -8, -24, 0
1503604155619,7, -4, -3, -2, -32, -15, 1, 12, 0
1503604155642,1, -4, -3, -3, -7, 7, -1, -19, 0
1503604155665,-17, -3, -2, -2, -7, -7, 7, -2, 0
1503604155680,12, -3, -1, 2, 12, 3, -4, -4, 0
1503604155703,3, 17, 12, -1, 0, 0, 0, 10, 0
1503604155724,28, 2, 3, 13, 4, 0, 1, 9, 0
1503604155739,-22, -10, -12, -10, 51, 13, -6, 0, 0
1503604155762,21, 1, -4, -4, -17, -6, 3, 21, 0
1503604155784,-3, -2, -3, -3, -7, -1, 3, -8, 0
1503604155799,-25, -10, -4, -3, -6, -5, -3, -26, 0
1503604155822,10, 1, 1, 1, -9, -3, 3, 11, 0
1503604155845,-38, -2, 0, 3, 3, -2, -5, -14, 0
1503604155860,-8, -1, -5, -1, -5, -4, 1, 1, 0
1503604155882,2, -6, -2, -7, -6, 1, -4, 3, 0
1503604155905,8, -1, -3, 1, -1, 0, 0, 7, 0
1503604155919,35, -3, 1, -1, -1, 0, -5, -21, 0
1503604155942,2, -1, -2, -1, -8, -10, -3, 4, 0
1503604155964,9, 1, 0, 3, 14, 5, 1, 4, 0
1503604155979,-17, 0, -2, -4, -14, -3, -4, -1, 0
1503604156003,0, 0, 1, 0, 26, -1, 2, 13, 0
1503604156010,-15, -2, 0, -3, -5, -1, -4, -15, 0
1503604156033,7, 0, 2, 1, -4, -3, 2, 17, 0
1503604156041,-4, -4, -4, -3, 4, 0, -1, -4, 0
1503604156062,9, 4, -4, 0, -3, -1, 1, 29, 0
1503604156084,-16, -3, -8, -4, -4, -2, 1, -15, 0
1503604156100,-7, 0, 7, 7, 1, -5, -4, 2, 0
1503604156122,15, 0, -2, -7, 3, 1, -1, 4, 0
1503604156144,3, 5, 11, 13, 1, 8, 5, 2, 0
1503604156159,-11, -5, -5, -7, -4, -3, -1, -6, 0
1503604156182,-2, -3, -8, -8, 0, -1, -1, -1, 0
1503604156205,-5, -5, -5, -5, -1, -1, 1, 8, 0
1503604156219,-4, 1, 4, 2, 1, 1, -2, 12, 0
1503604156242,-9, -3, -4, 1, -18, 3, 2, 6, 0
1503604156264,11, 4, 0, 0, -4, 0, 5, 38, 0
1503604156280,1, -4, 2, 6, 9, -1, -3, 5, 0
1503604156305,-4, -2, 1, -2, 5, -3, -3, 1, 0
1503604156324,6, 2, 0, -1, -4, -4, 2, -23, 0
1503604156341,8, 10, 7, -3, 3, -3, -1, -30, 0
1503604156362,-11, -5, -2, 0, 0, -2, -3, -20, 0
1503604156384,-10, -1, -1, 0, -4, -2, -3, -22, 0
1503604156399,-8, -2, -2, 1, 25, 7, 1, -16, 0
1503604156422,1, -5, -5, -6, -8, -4, -1, 12, 0
1503604156445,-17, 5, 3, 3, -1, -1, -3, 7, 0
1503604156460,41, 12, 1, -3, 0, 3, 0, 5, 0
1503604156482,-13, -7, -1, 0, -6, -4, -6, -30, 0
1503604156507,16, -5, -1, -3, -9, -2, 1, 40, 0
1503604156527,-11, 1, -4, 0, 4, -1, -3, -4, 0
1503604156542,24, -5, -4, 0, -7, 0, 2, 27, 0
1503604156564,-9, -5, 1, 0, 3, 1, -1, -7, 0
1503604156590,-22, 3, -1, -4, 1, 1, 2, 8, 0
1503604156602,-2, -4, -1, -3, 4, -2, -3, 2, 0
1503604156624,0, -4, 0, -1, -5, -1, 9, 23, 0
1503604156647,-11, -2, -5, -2, -18, -8, -2, -15, 0
1503604156662,5, 2, 2, 2, 3, -6, -2, -3, 0
1503604156684,7, 1, -2, -2, -18, -2, 2, 7, 0
1503604156707,-8, 0, -1, 0, -9, -6, 0, -10, 0
1503604156721,19, 3, -1, -1, 9, -1, 4, 0, 0
1503604156737,0, -4, -4, -3, -5, 0, 0, 17, 0
1503604156752,-12, -10, -9, -4, -1, -3, -5, -18, 0
1503604156776,8, 8, 4, 2, 29, 10, 5, 8, 0
1503604156797,-5, 0, 2, 1, -13, -5, -7, -53, 0
1503604156812,-2, 0, -4, -2, -3, 0, -3, -2, 0
1503604156835,-10, -12, 0, -1, 5, 3, 2, 3, 0
1503604156857,13, 7, 0, 1, 17, -5, -4, 7, 0
1503604156872,-11, -12, 4, -1, 0, 1, -2, 6, 0
1503604156895,18, 4, 2, -3, -67, -16, 3, 9, 0
1503604156917,5, 6, -1, -2, -8, -4, 5, 0, 0
1503604156932,-3, -4, -9, -16, -81, -22, -1, 2, 0
1503604156955,6, -1, 1, -15, -33, 14, 6, 7, 0
1503604156977,2, 6, -1, 20, 66, 14, -1, 2, 0
1503604156992,13, -21, -23, -7, 24, 6, -3, -3, 0
1503604157015,-7, 6, 5, 5, 27, 0, -3, 2, 0
1503604157037,11, 5, 7, 21, 62, 2, -1, -1, 0
1503604157052,-3, -2, -9, -12, -34, -7, -4, -2, 0
1503604157080,-18, -19, -3, 0, -23, -4, 0, 1, 0
1503604157097,-25, -11, -12, -7, -9, -2, -2, 1, 0
1503604157113,-20, -6, -6, 0, -17, -19, 2, 7, 0
1503604157127,-10, 24, -7, -2, -8, -5, -2, -16, 0
1503604157143,-6, 9, 3, 2, 39, 8, -2, 13, 0
1503604157164,3, 21, 12, 1, -66, -36, -3, 0, 0
1503604157187,-33, -11, -5, -3, -10, 1, -2, -16, 0
1503604157202,-10, -4, -8, -4, -5, 7, 1, 1, 0
1503604157224,-5, -10, -2, 0, -28, -20, -6, 1, 0
1503604157247,7, 8, -1, -6, -2, 6, 5, 6, 0
1503604157262,1, 6, -1, -8, -17, -5, -2, 2, 0
1503604157285,8, 2, 0, 2, 19, 8, 5, 13, 0
1503604157307,-12, -11, -7, -4, 11, 5, -2, 5, 0
1503604157322,-12, 0, 10, 4, 45, 23, 3, 5, 0
1503604157345,19, -13, -10, -2, -15, -3, 1, -7, 0
1503604157367,5, 14, 5, 2, -9, -22, -3, 0, 0
1503604157382,-3, -14, -6, -3, -3, -3, 2, 4, 0
1503604157404,2, -8, 0, 4, 15, 10, -2, -11, 0
1503604157427,-10, -6, -3, -5, 14, 3, -4, -5, 0
1503604157444,-9, -2, -14, -3, 5, 2, 2, 10, 0
1503604157464,1, -11, -6, -2, -33, -21, 5, 13, 0
1503604157487,2, 8, 0, 4, 3, 6, -3, -4, 0
1503604157509,6, 9, 2, 1, 3, 0, -3, 3, 0
1503604157524,10, 4, -1, 1, 56, 17, -2, 1, 0
1503604157547,7, 10, 47, 9, -21, -2, -1, -3, 0
1503604157569,-11, 11, 4, -2, -26, -8, 1, -7, 0
1503604157584,12, 2, -13, -8, -5, 5, -4, -9, 0
1503604157607,-5, 2, 7, 7, 42, 21, 5, 6, 0
1503604157628,-24, -14, -7, 5, 12, 3, -4, -7, 0
1503604157646,7, 3, -11, -7, -11, -7, 0, 10, 0
1503604157667,-9, -11, -6, -3, -22, -12, 4, -3, 0
1503604157689,0, 13, 33, 8, -25, -16, 5, -1, 0
1503604157704,18, 14, 24, 4, 15, 9, -5, 0, 0
1503604157726,-7, 10, 4, -2, -24, 2, 3, 6, 0
1503604157749,-24, -30, -31, -11, -8, -6, -21, -22, 0
1503604157764,-10, -17, -9, 0, 1, -9, 4, 5, 0
1503604157787,0, 1, -7, 1, 20, 14, 1, -3, 0
1503604157808,9, 9, -2, -4, 2, -1, -2, 0, 0
1503604157824,7, -14, -5, -2, 7, 3, -2, -3, 0
1503604157847,-28, -5, -9, 4, 64, 20, 5, 3, 0
1503604157869,8, 0, -2, 0, -11, 0, 3, 9, 0
1503604157884,3, 3, -13, -6, -22, -11, -3, -9, 0
1503604157907,-4, -2, -4, -2, -1, -3, 0, 4, 0
1503604157928,-1, 6, 6, -2, -12, -4, 0, -4, 0
1503604157944,0, -4, -8, -3, -27, -2, -2, -6, 0
1503604157967,6, -5, 0, 5, -7, 1, -2, -1, 0
1503604158004,6, 3, -1, -5, -7, -3, 2, 4, 0
1503604158006,-1, 5, 15, 9, 8, -2, 0, 3, 0
1503604158027,-15, -4, 2, 7, 1, -4, -3, -7, 0
1503604158049,2, -3, -5, -4, 5, 0, 0, 1, 0
1503604158064,1, -15, -5, -4, -2, 0, 0, 6, 0
1503604158087,16, 14, 2, 0, 0, 3, 1, 13, 0
1503604158108,9, 1, -5, -4, 1, -1, 1, -1, 0
1503604158124,0, 12, 8, -1, -2, -3, 0, -8, 0
1503604158148,-2, 19, -4, -7, -2, -4, -4, -7, 0
1503604158168,8, 44, 20, 4, -3, 3, -2, -5, 0
1503604158177,-3, -9, -3, -1, 0, -1, -2, -2, 0
1503604158199,7, -3, 10, 1, 0, -3, -3, 9, 0
1503604158215,3, 17, 13, 17, 4, 0, 5, -4, 0
1503604158236,5, 22, 11, -2, -4, -1, -1, -1, 0
1503604158259,-24, -84, -17, -5, 7, 5, 1, -18, 0
1503604158275,-7, 13, -8, -3, -7, -8, -4, -12, 0
1503604158297,32, 27, -4, -2, 0, 1, -2, 9, 0
1503604158319,-13, -19, -6, -4, 3, 0, -1, -1, 0
1503604158335,-1, 6, -2, -2, -7, 0, 1, 5, 0
1503604158358,-15, -3, -13, -3, -1, -2, 2, -6, 0
1503604158379,14, 20, 2, -4, -3, -1, 2, 7, 0
1503604158402,-11, 7, 7, 2, -5, -1, -5, -20, 0
1503604158417,-2, 2, -4, -3, -3, -1, 0, 2, 0
1503604158439,9, 11, -6, 1, 8, 1, 0, 4, 0
1503604158462,-9, 8, -3, 1, -6, -2, -1, -4, 0
1503604158477,7, 5, 13, 2, -1, -3, 2, 3, 0
1503604158499,7, -29, -7, -3, -8, -3, -1, 3, 0
1503604158522,-15, 2, 3, -1, 1, -3, -4, -3, 0
1503604158537,-9, -8, 16, 2, -26, -2, -1, 0, 0
1503604158560,20, -2, -6, -4, 3, -4, -1, -1, 0
1503604158584,0, 1, -4, 1, 12, 7, -3, -3, 1
1503604158597,22, 6, 3, 2, 31, -2, -1, -1, 1
1503604158621,-24, -6, -4, -4, 1, 12, -1, 13, 1
1503604158642,-18, -1, -4, -1, -7, -5, 0, -6, 1
1503604158657,10, 5, 3, 0, -11, -7, -1, -1, 1
1503604158679,3, 4, 1, 6, 18, 10, 4, -4, 1
1503604158701,9, -5, -3, 2, -9, -11, -3, 16, 1
1503604158718,-18, -6, -2, -4, -26, -5, 2, -16, 1
1503604158739,21, 0, -4, 13, 32, 11, 0, -1, 1
1503604158761,-28, -7, -4, -7, -21, -2, 1, -2, 1
1503604158777,13, -4, -6, -6, -22, -13, -4, -14, 1
1503604158799,-6, -6, -3, -4, 13, 9, -3, 6, 1
1503604158822,-6, 0, -2, 0, -1, -5, -3, -3, 1
1503604158838,31, 30, 3, -6, -3, -5, -3, 6, 1
1503604158860,-7, 4, 6, 0, -36, -7, 0, 1, 1
1503604158882,-4, 7, 3, -1, 18, 2, -1, -5, 1
1503604158897,0, -5, -7, -10, -29, -15, 3, -5, 1
1503604158920,-4, 0, 3, 2, -12, 3, 7, 5, 1
1503604158942,-9, -11, -3, 2, -4, -3, -6, -5, 1
1503604158957,-7, -1, 0, -5, -46, -22, -2, -5, 1
1503604158979,-4, -12, 0, 2, 88, 32, 5, 3, 1
1503604159002,-20, -1, 2, -3, 15, 0, -4, -30, 1
1503604159019,12, -6, -5, 0, 4, 3, 6, 5, 1
1503604159040,17, 11, 5, -2, 33, 8, 0, 8, 1
1503604159062,-27, -11, -3, 0, 7, -16, -5, 23, 1
1503604159077,-9, 2, -3, -3, -16, -6, 0, -9, 1
1503604159099,-3, 10, 4, 2, -19, -1, 1, 21, 1
1503604159122,12, 3, 1, 0, -2, 14, 2, 4, 1
1503604159144,9, -18, -9, -2, 22, 13, -6, 17, 1
1503604159159,14, -4, -1, -1, -22, -10, 1, -7, 1
1503604159181,57, 4, -7, -1, -3, -4, -9, -15, 1
1503604159189,13, 8, 4, 0, -21, 0, -4, -21, 1
1503604159211,36, -5, -3, -1, 12, 15, -9, -16, 1
1503604159227,24, -1, 2, -1, -2, -4, 0, 24, 1
1503604159248,-76, -15, -13, -5, -15, -25, -8, -3, 1
1503604159279,-25, 4, 1, 0, -5, -6, 2, -9, 1
1503604159294,-77, -25, -6, -2, -9, -10, 1, -10, 1
1503604159308,-18, 37, -1, -4, -17, -6, 3, 11, 1
1503604159331,25, -12, -10, -2, 12, 10, -1, 14, 1
1503604159356,45, 3, 1, -5, 6, 7, 4, 4, 1
1503604159369,6, -4, 2, -1, 4, 1, 2, 5, 1
1503604159391,27, 5, 3, 4, 33, 8, -1, 47, 1
1503604159413,-3, -10, -3, -2, 1, 3, -2, -24, 1
1503604159430,-10, -6, -10, -6, -1, -10, -12, -49, 1
1503604159451,-8, 7, 5, 0, 1, 6, 7, 20, 1
1503604159474,25, 4, -2, 0, -5, 3, 2, 17, 1
1503604159490,4, 3, -4, -3, -19, -13, -4, 7, 1
1503604159511,74, 1, -7, -2, -3, -1, -5, -26, 1
1503604159533,-32, -8, -3, 0, 37, 8, -4, -28, 1
1503604159549,-1, -10, 1, 5, 7, -9, -1, -5, 1
1503604159571,-31, -7, 2, -2, -18, 1, 0, -10, 1
1503604159593,-31, -3, 5, 3, 0, 7, -1, -2, 1
1503604159608,-22, 3, -8, -4, 0, -5, 2, -6, 1
1503604159631,-13, 8, -2, 4, 39, 22, -1, 2, 1
1503604159658,72, 9, 1, 1, -67, -20, 4, 17, 1
1503604159669,-6, 6, 8, 0, -8, 18, 2, -1, 1
1503604159691,-3, 1, 1, -4, -20, -7, 1, 6, 1
1503604159713,-29, -6, 3, 2, 22, 4, 6, -18, 1
1503604159729,22, -1, -1, 3, 19, 3, -3, 7, 1
1503604159751,-4, 48, 57, 15, -3, -11, 0, 12, 1
1503604159773,-14, -12, -14, -6, -16, 2, -4, -5, 1
1503604159790,13, -6, -14, -5, -9, -19, -3, -4, 1
1503604159811,-21, -11, -12, -11, -36, -22, -6, -32, 1
1503604159833,-4, -9, -6, -1, 27, 8, 0, -2, 1
1503604159849,18, 4, -4, -1, 14, 5, 2, 18, 1
1503604159871,33, -16, -11, -4, -6, 0, -7, -22, 1
1503604159894,-17, 1, -2, -1, -2, -5, -1, -11, 1
1503604159909,-22, 14, 20, 2, 11, -2, -2, 18, 1
1503604159932,-15, -7, -8, 2, 8, 2, -2, -3, 1
1503604159958,-12, -10, -10, -3, -18, -3, 3, 15, 1
1503604159977,13, 0, 1, -1, 1, 8, 2, 18, 1
1503604159993,6, -7, -6, -1, 10, -3, 2, 11, 1
1503604160014,7, -4, -5, -6, 10, -10, -4, 20, 1
1503604160037,-14, 4, -4, -6, 22, 5, -5, -6, 1
1503604160052,4, -3, -4, 1, 20, 6, 0, -12, 1
1503604160074,-16, -4, 0, 3, -4, 5, 0, -13, 0
1503604160097,-67, -20, -6, -4, -42, -17, 2, 2, 0
1503604160112,10, 0, 2, 1, -9, -10, -2, -7, 0
1503604160134,24, 10, 7, 2, -7, 10, 5, 17, 0
1503604160158,-11, 0, -1, -3, 5, -1, -5, -1, 0
1503604160172,-5, -4, 2, 0, 7, 7, 0, -6, 0
1503604160195,7, 0, 0, 1, -4, 7, 3, -4, 0
1503604160202,7, -4, -6, -2, 5, 1, 3, -6, 0
1503604160225,-8, -4, -5, -3, 9, 8, 3, -5, 0
1503604160239,17, 2, 4, 1, 12, 5, 6, 15, 0
1503604160255,35, 3, -5, -6, 13, -2, -2, 3, 0
1503604160277,13, 3, 2, -2, -10, -4, 3, 2, 0
1503604160293,-7, -4, -6, -2, 17, 2, -4, -21, 0
1503604160315,8, 5, 2, 0, 11, -3, -3, 31, 0
1503604160337,-17, -7, -9, -6, -5, 5, -2, -16, 0
1503604160352,5, -2, -1, -4, -16, -8, -3, -6, 0
1503604160374,16, 22, 9, 13, 7, 0, 0, -1, 0
1503604160397,4, -3, -5, -9, 3, 1, 0, -3, 0
1503604160412,-9, 0, 2, -2, -10, -6, -7, -9, 0
1503604160435,4, -4, -1, 0, 3, 13, 3, 5, 0
1503604160457,3, -1, 1, 3, -7, -2, 2, 2, 0
1503604160472,-12, -5, -2, -1, 14, 5, 0, -4, 0
1503604160494,-13, -6, -3, -3, 4, -2, 0, 10, 0
1503604160517,7, -6, -15, -6, -4, -3, 1, 6, 0
1503604160532,11, -3, -9, -6, -2, -4, -1, -15, 0
1503604160561,-22, -7, -6, -10, -7, -9, -5, -5, 0
1503604160577,-10, -1, 9, 3, 11, 0, 2, -2, 0
1503604160593,1, 2, 3, 3, -1, 0, 2, 14, 0
1503604160614,12, 1, 1, 3, 11, 0, -3, 1, 0
1503604160637,-38, -5, -1, -2, -3, 3, 0, -19, 0
1503604160652,20, 2, -2, -1, -8, -3, 1, 7, 0
1503604160674,12, -4, -6, -4, -26, -3, -2, 10, 0
1503604160681,-13, -2, -7, -3, -16, -7, 0, -12, 0
1503604160697,2, 6, 3, 0, -17, 0, 2, -16, 0
1503604160712,-3, -2, 3, 9, -7, -3, -1, 9, 0
1503604160735,4, -8, -15, -15, -8, -3, 0, 2, 0
