1503614529247,1, 0, -2, 1, -2, -1, -5, 0
1503614529268,-3, -1, -1, 0, -3, -1, -3, -2
1503614529283,-2, -1, 3, -1, 1, 1, 0, -2
1503614529316,0, -6, -2, -3, 1, -1, -2, -2
1503614529328,1, -1, -1, 1, 0, -2, 0, 0
1503614529343,-2, 2, -2, 1, -2, -3, 0, -1
1503614529366,1, -1, 1, -2, 1, 1, -1, -2
1503614529388,-1, 0, -1, 1, 0, 0, -1, -2
1503614529403,0, -3, -2, -2, -3, -2, 1, 1
1503614529427,0, 2, 0, 1, 0, 3, -1, -1
1503614529448,-1, -3, -1, -2, -2, -5, 0, 0
1503614529463,0, 1, -3, 1, -1, -1, -4, 1
1503614529492,-4, -5, -5, -4, -1, 1, 0, 0
1503614529508,-1, -1, 4, 0, 0, 2, 1, -2
1503614529523,0, -1, -1, -1, -3, -2, -3, -3
1503614529546,-2, 3, 0, -1, -2, 0, -1, 0
1503614529568,0, -1, -1, -3, -1, -1, 1, 0
1503614529584,-3, 0, 0, -1, 3, -1, 0, -1
1503614529606,0, 1, 1, 1, -2, -2, -1, 1
1503614529628,0, -4, 0, -1, -1, 2, 0, -2
1503614529643,0, -2, -2, 0, -1, -5, 0, -2
1503614529666,0, 2, 1, 1, 1, 1, -1, -1
1503614529688,-2, -3, -1, -1, -1, 0, 0, -2
1503614529703,-3, 4, 1, 1, 0, -1, 1, 0
1503614529726,-1, -4, -5, -2, -2, -2, -3, 1
1503614529749,2, 0, 1, 1, -1, 2, 0, 3
1503614529764,-2, -2, -2, -4, 0, 1, -2, -1
1503614529786,-1, -1, 0, 0, -1, -6, -2, 1
1503614529808,1, 4, -2, -1, 0, 1, 1, -1
1503614529823,0, 1, 2, 0, -1, 1, 0, 1
1503614529846,-2, -1, -1, -1, -3, 1, -1, -1
1503614529869,1, 6, 2, 2, -1, -2, -1, -1
1503614529884,0, -4, -2, -1, -1, 0, -1, -2
1503614529906,0, 1, -5, -3, -1, -1, 0, -2
1503614529928,0, -3, 0, -1, -1, -1, -2, 0
1503614529943,1, -3, -6, -1, -2, -2, -1, -1
1503614529966,-1, 5, 5, 0, 0, 2, -1, 1
1503614529988,-4, -8, -3, -1, -3, 0, -2, -3
1503614529995,0, 4, 7, 0, -3, 1, 1, 0
1503614530018,-3, -3, -3, -1, 0, -3, 1, -1
1503614530033,2, 2, 1, 0, 0, 0, 1, 0
1503614530058,0, 2, 0, -1, 0, -3, 1, 1
1503614530078,1, 0, 0, -2, 0, -1, -1, 0
1503614530093,-4, -10, -4, -1, -2, -1, 0, 1
1503614530115,-1, 1, 3, 1, 0, -1, -3, -2
1503614530138,0, 1, 1, -2, 0, 1, -1, -3
1503614530160,0, 0, -3, -1, 0, 0, -1, -2
1503614530175,1, 2, -6, 0, -2, -3, 1, 0
1503614530198,-3, 0, 3, -1, 0, -1, -3, -3
1503614530219,1, 7, -1, 0, 0, 0, -2, 0
1503614530235,-2, -7, -5, -2, -1, -2, -2, 1
1503614530267,1, 4, 2, 1, -1, 0, -2, 0
1503614530288,-1, -1, -1, -2, 0, -4, -1, -2
1503614530310,0, 0, 1, 1, 0, -1, -1, -2
1503614530326,0, 1, 3, 1, -1, -1, -1, 0
1503614530349,-1, -5, -1, -4, -1, 1, -1, -1
1503614530370,-2, 1, -5, -1, -3, -3, 0, -1
1503614530385,-1, 1, -2, -1, 0, -1, -1, -1
1503614530400,0, 0, 2, -1, 1, 0, -3, 0
1503614530415,1, -2, -2, 0, -2, -2, 1, -2
1503614530438,-2, -5, -1, -2, -2, 1, -2, -1
1503614530460,-3, -7, -3, -2, 0, 0, 1, 2
1503614530475,-1, 2, 3, 2, 1, 0, -1, -1
1503614530498,-2, 0, -2, -1, 0, -1, 1, -2
1503614530519,2, 3, 0, -1, 0, -1, -1, 0
1503614530536,-2, -2, -1, -2, -2, -2, -2, -2
1503614530558,0, 0, 5, 2, 1, -2, 3, 2
1503614530580,-2, -2, -5, -2, -2, 0, -4, -2
1503614530595,-1, -6, -4, -2, -1, -2, -2, -2
1503614530618,-1, 2, 0, 0, -3, -2, 1, 1
1503614530640,1, 2, 5, 1, 0, 1, -1, -1
1503614530655,-2, 0, -1, 0, 0, -1, -1, -3
1503614530678,1, 3, -4, -2, -1, -1, 1, 3
1503614530700,-2, -10, -5, -2, -1, -2, -2, 0
1503614530715,0, -2, -1, -1, -1, -1, -2, -1
1503614530738,-2, 0, -4, -2, -1, 1, -1, -3
1503614530762,0, 1, 0, -1, -1, -1, 0, -1
1503614530790,-1, -1, 5, 1, -2, -1, -2, 1
1503614530798,-2, 0, -4, 0, -2, 0, 1, -4
1503614530820,-2, 2, 0, 0, -2, -2, -1, -2
1503614530836,1, -2, 0, -1, -1, 1, -2, -1
1503614530857,-2, -4, -1, 0, 0, -1, 0, 1
1503614530880,0, 3, 6, 0, 0, 1, 0, -3
1503614530897,-1, 1, -1, -1, 0, -1, -1, 0
1503614530917,0, -4, -2, -2, -3, 1, -1, 0
1503614530940,-2, -5, -7, 0, 0, -4, 0, -1
1503614530955,-1, -5, -1, -1, -4, -2, -1, 0
1503614530978,-1, -1, -3, 1, 1, -1, -3, -1
1503614530986,-1, -3, -1, -2, -3, -1, 0, 0
1503614531001,1, 2, -1, -3, -1, 0, -1, 1
1503614531015,0, 2, 2, -1, 0, 0, -1, -1
1503614531038,2, 6, 4, 4, 0, -1, -1, 0
1503614531060,-1, -6, -3, 0, -1, 1, 1, -1
1503614531082,-1, -3, -4, -1, 0, -1, -2, 0
1503614531098,-1, -1, -3, -3, -2, -1, 0, -2
1503614531120,-2, 0, 0, -1, -1, 0, 2, 0
1503614531142,0, -1, -3, -1, 0, 0, -2, -2
1503614531157,1, 1, 3, 1, -1, 0, -2, -1
1503614531180,-2, -4, -3, -1, -2, -1, -3, -1
1503614531203,0, 0, -1, -2, 0, -1, -2, -2
1503614531217,-2, 1, 0, 0, 1, 0, 0, 0
1503614531241,-2, -3, -2, 1, -1, -4, 1, 1
1503614531262,3, 2, 0, 0, -1, 1, 0, 0
1503614531278,0, -4, -2, -4, -2, -1, -1, -1
1503614531300,-1, 0, 1, 1, 1, -2, 0, -1
1503614531322,-1, 2, 2, -1, -1, 2, -1, 1
1503614531338,-2, -3, -3, 0, -2, -3, -1, -2
1503614531360,-2, 8, -1, 0, 0, -2, -1, -1
1503614531382,1, 1, 0, 0, 0, 1, 1, 0
1503614531398,1, -3, -2, 0, -1, -3, -3, -4
1503614531413,-2, -1, -2, -3, 0, -1, 0, -1
1503614531428,-3, 0, 0, -2, -1, -1, -2, -3
1503614531450,0, -3, -3, 0, 0, -3, -3, 0
1503614531473,-3, -1, 0, -4, -2, 0, 0, -1
1503614531488,2, 4, -2, 3, -2, -2, 0, -2
1503614531510,-1, -2, -1, -2, -1, -1, 0, -3
1503614531518,0, -3, -2, -2, -1, 0, 0, 2
1503614531540,-2, -1, 1, -1, 0, -2, -1, -1
1503614531562,-1, -2, 0, 0, -1, -1, 0, -1
1503614531578,0, 1, -1, -3, -1, -2, -1, -2
1503614531602,-1, -2, -3, -1, 0, -1, -2, -4
1503614531622,0, -7, -2, -2, -3, -2, 0, 0
1503614531638,2, -2, -1, -2, -1, 0, 0, 0
1503614531654,1, -3, 0, -2, -2, 1, -2, -2
1503614531670,-3, -1, -4, -1, -2, -2, -2, -1
1503614531690,-3, -3, -4, -1, -2, -4, 1, -1
1503614531720,-1, -1, 3, -1, 1, 1, 0, 0
1503614531729,0, -3, 0, 3, -1, -1, -1, -1
1503614531750,-3, -1, -1, -4, -1, 0, -1, -1
1503614531773,1, -4, -1, 0, -3, -2, 0, -3
1503614531788,1, -1, 0, 1, -1, 2, -2, -1
1503614531811,-3, 0, -1, 1, -1, -3, 0, 2
1503614531832,0, 0, 0, -1, 2, 1, -1, 2
1503614531840,0, -1, -2, -2, -1, -1, 0, 0
1503614531862,0, -7, -4, 0, -2, -4, -2, -2
1503614531879,0, 4, 2, 3, -1, -2, -1, 2
1503614531900,1, 0, -1, -3, 1, 1, -3, 0
1503614531922,-3, -8, -2, -1, -1, -1, 0, -1
1503614531938,-2, -3, 0, -1, -3, -1, -1, -1
1503614531960,2, -1, 1, 1, -2, -3, -1, -4
1503614531982,2, -3, 0, -1, -1, 1, -2, -1
1503614532004,-8, 2, -2, -2, 1, 0, -1, 2
1503614532013,-4, -1, -2, -1, -2, 1, 0, -1
1503614532037,1, 7, 6, 0, 0, 1, -3, -2
1503614532051,-2, -5, -6, -2, -1, -4, -1, -1
1503614532073,1, -2, -6, -2, 0, -1, 0, -3
1503614532095,1, 0, 2, -1, -1, 0, -2, 0
1503614532110,-1, -4, -3, -4, -1, 1, 1, -1
1503614532133,0, 1, -1, 0, -2, -2, 1, 0
1503614532155,-3, -1, -3, 0, -1, 0, -5, -1
1503614532172,-1, -2, -2, -3, -2, -1, 1, -1
1503614532192,-1, 1, -1, 1, -1, -1, -1, 0
1503614532215,2, -2, -1, 0, 0, 0, 1, 1
1503614532230,-1, -3, -2, -3, -1, 0, -2, 1
1503614532252,0, 0, 1, 0, 0, 0, 0, -3
1503614532275,-2, -4, -3, -3, -2, 0, -2, 2
1503614532290,-1, -4, -4, -1, 0, -3, 1, -1
1503614532312,-2, -1, 0, 1, 0, 1, -3, -3
1503614532320,-1, 1, -1, -1, 0, -3, -4, -1
1503614532344,-2, 1, -5, -2, -4, 1, -2, -1
1503614532364,-4, -7, -6, -3, -1, 1, -3, -2
1503614532380,0, -6, 0, 0, -2, -1, -4, -2
1503614532402,-1, 1, 2, -2, -1, -2, 1, 1
1503614532424,-1, 0, 1, 2, 0, 0, -1, -2
1503614532441,-1, 1, 1, 0, 0, -4, 2, 2
1503614532462,0, -7, -3, -1, 0, 2, -1, -1
1503614532484,0, 4, 0, 1, 0, -4, 0, 2
1503614532500,-1, -2, 1, 0, -2, -1, -1, -1
1503614532522,0, -1, -1, -1, 0, 1, 0, 1
1503614532544,1, -4, -2, -1, -1, 0, -1, -1
1503614532560,-2, -1, 0, 0, 0, -1, -1, -4
1503614532582,-2, -3, -2, -3, 0, -1, 0, 1
1503614532604,0, 2, -1, -2, -1, 0, -2, 0
1503614532620,1, 2, 1, 0, -1, -1, -1, -1
1503614532642,-1, 0, 0, -1, 0, -2, -1, 0
1503614532664,-1, 0, -3, -1, -1, 2, -1, 0
1503614532680,-1, -6, 0, 0, -2, -1, 0, -1
1503614532702,-3, -3, -3, -3, -1, 0, -1, -2
1503614532724,-1, 0, -1, -2, -1, 0, 2, -1
1503614532741,-3, -3, -1, -1, -1, -1, -3, -3
1503614532755,0, 0, 2, -1, 0, 0, -3, -3
1503614532770,-1, -3, -2, -1, -3, 0, -1, -2
1503614532792,-1, -3, -1, -2, -2, 0, -1, -1
1503614532815,-1, -1, -4, -2, -1, -2, -2, -2
1503614532830,0, -3, 0, -1, 1, -1, 1, 1
1503614532852,2, 10, 6, 3, -1, -1, 1, -1
1503614532877,0, 2, 2, -1, 1, 1, -1, 1
1503614532890,-1, 0, -1, -1, -2, 1, -1, 0
1503614532913,-3, -5, -2, 0, -3, -1, 0, 0
1503614532935,2, 1, 0, 0, 2, -2, -2, 0
1503614532957,1, 5, 6, 2, 0, 0, 0, -4
1503614532964,0, -2, -2, -3, 0, -3, 0, 0
1503614532987,-1, -4, 0, 1, 0, -2, -2, -1
1503614533002,0, -1, 4, 1, -1, 3, 1, 0
1503614533024,-1, 2, 2, 1, -1, -2, 0, 0
1503614533047,2, -1, -2, -1, 0, 0, -2, 0
1503614533062,-2, 2, -2, -1, -1, -2, -2, -3
1503614533084,-1, -2, -1, -1, -1, 2, -1, 3
1503614533093,-1, -1, -2, 0, -2, 0, -2, 0
1503614533116,-2, 2, 1, 0, -1, 1, 0, -4
1503614533138,0, 5, 0, -1, 0, 0, 1, 5
1503614533153,-2, -3, -1, -1, -1, 0, -2, 0
1503614533175,-2, 0, -1, -1, -2, -4, -2, -3
1503614533198,-1, 0, 2, -2, 0, -2, -1, -4
1503614533213,1, -2, 2, -1, 1, -1, 1, -3
1503614533235,0, -4, 1, 1, -1, -1, -2, 1
1503614533258,1, 0, 2, 0, -1, 1, 1, 0
1503614533273,-1, 4, 3, 0, -1, -2, -1, -1
1503614533295,-2, -3, -4, -3, -1, -1, -1, -1
1503614533312,0, 3, 4, 0, 0, 0, -1, 0
1503614533332,-1, -1, -7, 1, 2, -5, 0, 0
1503614533334,0, -2, 1, 2, 0, -2, -3, -1
1503614533356,0, -1, -1, 0, 0, 0, 0, 0
1503614533377,-2, -6, -2, -2, -3, -1, -2, -1
1503614533392,-2, 0, -4, 0, 0, 3, 0, 0
1503614533415,-1, 0, 0, 0, 0, -1, -1, -3
1503614533437,0, -2, -2, -1, -3, -2, -1, -3
1503614533453,-4, -10, -4, -2, -1, -2, -2, 1
1503614533475,0, 2, 3, -1, -1, 0, 0, -1
1503614533497,-2, -1, -3, -4, -1, -2, 1, 1
1503614533513,2, 3, 2, 0, 0, 0, 0, -1
1503614533535,0, 4, -1, 3, 1, 0, -2, 0
1503614533558,-3, 0, 3, 1, -2, 1, -1, 0
1503614533572,0, -2, -3, 0, 0, 0, -1, -2
1503614533595,-2, -2, -3, -1, -1, -4, -1, -2
1503614533618,1, -1, -1, -3, -4, -1, 1, 4
1503614533632,0, -2, 1, 0, 2, 1, 0, 0
1503614533655,0, -5, -3, -1, -1, -3, -1, -3
1503614533677,-1, 1, 1, 0, -1, -1, -3, -1
1503614533692,-3, -1, 3, -1, 1, -2, 0, -2
1503614533708,-2, -2, 2, 0, -1, 1, -2, 0
1503614533730,1, 0, 2, 1, 0, 0, 1, 0
1503614533745,0, 5, 6, 0, 0, -1, -1, 0
1503614533768,2, 1, -1, -1, -2, 0, 1, 0
1503614533790,-2, 2, 2, -2, -1, -3, -3, 0
1503614533805,-1, -2, -3, -2, -1, 1, -1, -1
1503614533828,-1, -5, -2, -1, 1, -1, 0, 0
1503614533852,0, 0, -1, 1, -1, -3, -4, -1
1503614533865,-1, -7, -3, -3, -2, -2, -1, -1
1503614533891,0, 4, 5, 0, -2, 1, -1, -2
1503614533910,0, 2, 0, 1, -1, -1, 3, -2
1503614533926,0, -2, -5, -2, -1, -2, -1, -1
1503614533948,-1, -1, -3, 0, 0, -1, -1, -2
1503614533970,-1, -1, 1, 1, 0, -1, -3, 2
1503614533986,2, 5, 3, 1, -2, 0, 0, 0
1503614534008,-3, -3, -4, -2, -2, 2, -1, -2
1503614534030,-2, -3, -5, 1, 1, -4, -1, -2
1503614534045,1, 2, 1, 1, -1, 0, 1, -2
1503614534068,-2, 0, -2, -3, -3, 1, -1, 0
1503614534091,-2, -3, -5, -3, -4, 1, -2, 0
1503614534105,0, -2, 0, -1, 2, 1, -2, -2
1503614534129,0, 1, 0, 0, -1, 0, -2, -1
1503614534153,-1, 5, 0, 1, 1, 0, 3, 2
1503614534165,1, -3, 1, 1, -1, -2, -1, -2
1503614534188,1, 3, 7, 1, 0, -1, -2, 0
1503614534196,-2, 0, 0, 0, -1, 0, -1, -1
1503614534219,1, 1, 3, 0, 0, -2, -1, 0
1503614534240,-2, 0, -2, -1, 1, 0, 0, -1
1503614534255,1, 2, 1, 3, 1, -1, -2, -2
1503614534277,-1, -3, -1, 0, 0, 3, -1, -3
1503614534300,-3, 0, 0, -2, -3, -1, -1, -1
1503614534315,0, -1, -5, -1, -1, -2, 0, -1
1503614534337,-1, -3, -1, -1, -1, 1, 0, -1
1503614534360,0, 2, 0, 0, 0, -3, 0, 0
1503614534375,0, 3, 2, 2, 0, -2, 1, -1
1503614534398,2, -1, 1, 0, -2, 0, -2, 0
1503614534423,0, 0, 0, -1, -1, -1, -2, -1
1503614534435,0, 4, 3, 3, -1, 0, 0, 0
1503614534458,-2, -2, -3, -1, -2, 1, -2, -2
1503614534480,0, -1, -2, -2, 1, -3, -1, 1
1503614534495,-2, -2, -1, -1, 0, 2, 0, 1
1503614534517,2, 6, 4, 1, -1, -2, -3, -2
1503614534540,-1, -4, -2, -1, 15, 1, 0, -1
1503614534555,-2, -3, -1, -3, -12, -4, -2, -1
1503614534577,-1, -2, -1, -2, -8, -1, 0, 1
1503614534600,-2, 1, -3, 0, -3, 1, -1, 0
1503614534616,0, -4, 1, -1, 1, 2, 1, -1
1503614534637,-1, -7, -4, -1, -1, -3, 3, -2
1503614534660,-3, 1, -2, 0, -1, 0, -1, 0
1503614534675,0, -5, -3, -4, -2, -1, 0, 0
1503614534698,0, 1, -1, 0, -1, -2, 0, -1
1503614534706,0, 1, 1, -3, -1, -1, 1, -1
1503614534728,-1, -1, -2, 3, -1, -2, -2, -1
1503614534750,0, -2, -3, -2, -1, 2, 0, 1
1503614534767,-2, 0, -2, 0, 1, 0, -2, -2
1503614534791,1, -5, -5, -3, -3, 1, 1, 0
1503614534810,2, -2, -4, -1, 0, -2, 1, 1
1503614534833,-1, -1, -1, 0, 0, 2, -3, -4
1503614534848,-2, 2, 4, 1, -1, -3, 0, -1
1503614534871,-2, 3, 3, -1, -1, -3, -1, 0
1503614534893,1, 1, 1, -1, 1, 7, -3, 1
1503614534908,0, -1, 1, -2, -1, -3, 1, 0
1503614534930,-1, 4, -1, -1, -1, -1, -4, -3
1503614534952,-3, -2, 4, 1, -1, -3, -4, 1
1503614534968,0, -5, -2, -3, -1, 1, 2, 0
1503614534992,1, 2, 0, 1, 0, -5, -1, -2
1503614535012,1, 0, -1, 0, -1, 1, -1, -2
1503614535028,-2, 1, 3, 0, 0, -2, -1, -2
1503614535050,-2, -4, -10, -4, 0, 1, -1, -2
1503614535072,-3, 0, 1, -1, -4, -2, 2, 2
1503614535088,-2, -4, -3, 0, -1, 0, -1, -2
1503614535110,0, -2, -1, 1, 0, -2, -2, 0
1503614535132,-1, -1, -1, -1, -2, -3, -1, -2
1503614535148,-1, -3, -5, -3, -2, 0, 0, -2
1503614535171,-1, -4, -4, 0, 0, 2, -2, -1
1503614535194,1, 0, -3, 0, 0, -2, -2, 1
1503614535208,-1, 1, 2, 0, 0, -1, 0, 1
1503614535230,-1, 1, 1, 2, -1, 1, 0, -2
1503614535237,1, 0, -2, -2, 0, -3, -1, 0
1503614535261,-1, 4, 3, 3, 0, 1, 3, 2
1503614535282,-1, -4, -3, -1, 1, -1, -3, -2
1503614535297,0, -2, -6, -2, 0, 1, -2, -1
1503614535320,0, 1, 0, 1, 0, -2, -1, -1
1503614535342,-1, -5, 0, -1, -3, -1, -3, -1
1503614535357,0, 0, 0, 0, -1, -1, -2, -2
1503614535380,-5, 1, -3, -4, -3, 1, -2, 1
1503614535404,-1, 1, 0, -1, -1, -2, 0, 1
1503614535418,-1, 0, 3, -2, -1, 0, 1, 1
1503614535440,0, 0, 4, 1, 0, -1, -1, -1
1503614535463,-1, -2, 0, 1, -1, 0, 0, -1
1503614535477,1, 0, -3, -1, 0, -3, 0, -2
1503614535500,-1, 0, -2, -1, -2, 0, 0, -1
1503614535523,1, -2, 1, -1, -1, 0, 0, 0
1503614535538,-4, -3, -3, -1, 0, -3, -1, 0
1503614535563,-1, -3, -1, -1, 0, 0, 1, -1
1503614535583,1, -3, -4, -1, 1, 1, -3, -1
1503614535597,0, 0, 1, -1, -2, 1, 0, -1
1503614535620,-1, -2, -5, 0, 1, -3, -1, 0
1503614535643,-2, 0, 1, 2, -1, 0, 0, -1
1503614535657,0, -5, -3, -2, 0, -1, -1, 0
1503614535680,0, 0, -1, 0, 0, 0, -3, 0
1503614535703,-2, 0, -2, -2, 1, -3, -1, 0
1503614535724,-2, -1, -2, -2, -3, -1, 1, -2
1503614535733,0, -1, 0, 0, 0, 0, -1, -1
1503614535755,-2, -6, -3, -3, -2, 1, -2, 1
1503614535765,0, 7, 4, 1, 2, -3, 3, -2
1503614535784,-1, -5, -8, -2, -5, -1, -2, -1
1503614535800,0, -4, 0, 0, 1, -1, -1, -1
1503614535822,-4, 0, -1, -1, -4, 0, 0, -2
1503614535844,0, -3, 0, -1, -1, -1, -4, -2
1503614535860,0, 6, 5, -1, -1, 0, -1, -1
1503614535889,2, 2, -2, -1, 0, 2, 3, 3
1503614535904,-1, -4, -2, -1, 0, 0, -2, -1
1503614535920,0, 2, 3, 3, 1, -2, -3, -1
1503614535942,-2, -2, 2, -1, -1, 0, -1, -1
1503614535965,-1, -2, -5, -2, -2, -2, 1, 0
1503614535983,-2, -1, 1, 0, 0, 0, -3, 0
1503614536003,-1, -2, 0, 0, -2, 1, -3, -2
1503614536024,2, 0, -1, 1, -2, -2, -1, -2
1503614536042,0, 0, -2, 0, 0, -3, -1, -1
1503614536062,-3, 1, 0, 0, -2, 0, -2, -2
1503614536084,-1, -4, -1, -2, 0, -1, 0, 0
1503614536100,-1, -6, -1, -1, -2, -3, -3, -3
1503614536123,0, -4, -3, -2, 0, 1, 1, 0
1503614536144,0, 2, -3, -3, 0, -2, 0, -1
1503614536160,0, 4, 4, 2, -2, -1, 0, 1
1503614536182,0, -3, -1, -3, 0, -1, -1, -1
1503614536204,0, -1, 2, 1, 1, 1, -1, -1
1503614536220,-3, -2, -3, -2, -3, -1, -2, -1
1503614536242,0, 0, -1, 1, -1, 0, -1, 0
1503614536264,-4, 5, -2, 1, 1, -2, 1, -3
1503614536280,1, 8, 10, 1, 2, 1, 0, -18
1503614536302,6, 37, 66, 15, 4, 2, 1, -3
1503614536324,-8, -14, -30, -10, -6, -4, -5, -8
1503614536340,31, 0, -31, -6, -3, 0, 1, 7
1503614536362,-17, -39, -16, -9, -5, -3, 1, 5
1503614536384,7, -1, -8, -3, -1, -3, -2, 5
1503614536402,-1, 20, 19, 8, 0, 0, 1, 5
1503614536422,-7, -28, -19, -5, -1, -2, -3, -5
1503614536445,-2, 4, 5, 4, 1, 4, 1, 4
1503614536460,1, 0, 2, -1, -1, -1, -1, 2
1503614536482,-3, -7, -11, -6, 0, -2, -1, -1
1503614536506,2, -10, -5, -2, 0, 1, 2, 2
1503614536520,3, 4, 0, 1, 0, -2, 1, -2
1503614536543,-10, -1, 0, -2, -2, -1, -1, 2
1503614536565,-2, 0, 2, -1, -2, -1, -2, -3
1503614536580,-26, -15, -12, -2, -1, -1, -1, 2
1503614536604,8, 4, -4, 1, 0, -3, -1, 1
1503614536625,-16, 1, 5, -2, -2, -3, -3, -3
1503614536647,13, 26, 7, 3, 4, 2, 1, -1
1503614536662,12, 14, 18, 7, 1, 2, 3, 3
1503614536685,-4, -18, -10, -4, -1, -1, -2, -5
1503614536708,24, -1, -5, -1, -3, -6, 0, 3
1503614536722,1, -6, -4, -4, -3, 3, 1, 7
1503614536745,-7, -3, 0, -1, -1, 0, -2, 1
1503614536767,4, 13, 5, 1, -2, -4, -2, -1
1503614536782,-6, -3, 14, 3, 3, -1, -2, -3
1503614536806,-6, -4, -9, -4, -3, -1, -4, -7
1503614536827,-13, -16, -22, -5, -1, -1, -1, -9
1503614536842,0, 13, 5, -3, -2, 1, 1, 6
1503614536865,2, -4, -8, -4, -2, -1, 1, -7
1503614536887,-14, -55, -44, -7, 3, 0, -5, 0
1503614536905,4, 35, 37, 11, 13, 13, 1, -11
1503614536925,-12, 13, 0, -7, -38, -22, -9, -26
1503614536948,-9, -16, -14, -10, 9, -3, -5, -11
1503614536962,-17, -14, -15, -8, 4, -17, -8, -39
1503614536985,-10, 8, 23, 29, 103, 62, 12, 29
1503614537007,-9, -9, 4, 22, 85, 81, 27, 12
1503614537022,11, 6, 0, -9, -64, -35, -10, -3
1503614537045,4, 3, -2, -5, -21, -30, -45, -4
1503614537067,18, 14, 7, -3, -33, -44, 4, 24
1503614537076,-4, 1, 2, 7, 40, 23, -4, -10
1503614537097,0, 5, 6, 8, 28, 14, 18, -8
1503614537113,2, -3, -1, 3, 12, 16, 6, 0
1503614537135,-3, -5, -6, 0, 3, -4, -4, -4
1503614537157,-3, -12, -5, -2, 2, -3, -1, -5
1503614537177,-5, 4, 0, 4, 6, 5, -3, -7
1503614537195,-8, -1, 12, 3, 6, 5, 1, -6
1503614537217,10, 11, 4, 1, 3, 6, 2, 5
1503614537233,1, 0, 0, 0, 0, -2, -3, 1
1503614537255,-7, -5, -3, -1, 0, 0, 0, -1
1503614537277,-28, -3, -1, -4, -1, 12, 2, -4
1503614537293,27, 7, -4, 0, -3, -6, 0, 3
1503614537315,20, -1, 1, 3, 1, 0, 5, 4
1503614537337,8, 6, 0, -3, -4, 13, -15, 0
1503614537353,-23, -12, -1, 3, 2, 3, 2, 0
1503614537375,-32, -8, -6, -4, 1, -12, 0, -10
1503614537398,7, -3, 1, -2, -1, 0, 11, 62
1503614537413,18, 13, -2, 4, 1, -4, -2, -13
1503614537435,-28, -14, -4, -6, -6, -3, -2, -5
1503614537464,-13, 2, 10, 0, -2, -5, 7, -9
1503614537473,8, -10, -13, 2, 3, -1, 1, 1
1503614537495,10, -14, -5, -5, 0, 2, -3, -1
1503614537518,18, 12, 7, -2, -1, 3, 1, -15
1503614537533,11, 13, -3, -1, 0, -1, -5, -6
1503614537555,-8, 12, 1, 3, 0, -4, -1, -8
1503614537581,-1, 13, 24, 4, 6, 5, -1, 0
1503614537600,-8, -2, -4, -2, -1, -1, -3, -7
1503614537615,17, -16, -24, -1, 0, -3, 0, -8
1503614537638,-8, -9, -10, -4, -4, -1, -5, -3
1503614537660,4, 8, 12, -1, -1, -3, -4, -5
1503614537681,10, 21, 48, 6, -1, -2, 2, 7
1503614537697,-13, -17, -17, -6, -6, -4, -5, -3
1503614537720,-15, -12, -24, -5, -1, 0, -2, 1
1503614537735,-58, -11, -6, -4, -3, -4, -8, -18
1503614537757,8, -10, -15, -5, -6, -8, 0, 0
1503614537780,17, 11, 13, 9, 3, 5, 2, 1
1503614537795,13, 22, 22, 7, 0, 2, 3, 8
1503614537818,12, 3, -2, 0, 0, 1, 2, 5
1503614537840,11, -6, -9, -2, -2, -2, 1, 4
1503614537855,-2, 2, 1, -1, 2, 0, -1, -1
1503614537879,-4, -3, -8, -6, -3, -3, -3, -7
1503614537900,19, 6, 1, 0, 13, 7, 2, 5
1503614537915,-1, 15, 26, 2, -6, -2, -2, -1
1503614537929,0, 2, -1, -3, 0, 0, 1, 2
1503614537946,-5, -8, -11, -6, -15, -8, -2, -2
1503614537966,5, 6, 7, 13, 20, 11, 5, 5
1503614537989,-4, 0, 0, -3, -7, -4, -1, -2
1503614538005,-4, 0, 6, 0, -2, -9, -4, -3
1503614538021,3, 8, -4, 4, -1, 0, 1, -1
1503614538035,0, -3, -1, -4, 2, -4, -3, 0
1503614538057,-2, -1, 2, 5, -3, 4, 0, 2
1503614538088,-1, -7, -5, 5, -1, 1, 0, -1
1503614538109,-3, -2, -3, -1, -1, -1, -1, -3
1503614538125,6, 1, 0, -1, 0, -1, 0, 0
1503614538147,1, 4, 0, -1, -4, -4, -4, -3
1503614538169,-8, -11, -9, -3, -2, 1, 3, 4
1503614538185,6, 1, -4, -7, -5, -2, -1, 1
1503614538206,-4, 14, 9, 2, 0, 2, 2, 0
1503614538229,-12, -12, -9, -4, -2, -3, -9, -16
1503614538245,-4, -10, -1, -1, -3, -4, -1, 2
1503614538267,-15, -8, -6, -4, -9, -3, 2, 3
1503614538290,14, 9, 16, 4, 4, 4, 1, 0
1503614538305,-5, -1, 2, 2, 2, -1, 0, -3
1503614538327,4, 2, 0, 3, -8, -1, 2, 2
1503614538349,-1, -15, -16, 1, -4, -4, -7, -9
1503614538365,-1, -7, -12, -4, 0, -4, -2, -7
1503614538386,-2, -8, -10, -8, -10, 1, 1, -5
1503614538395,-6, 0, 0, 0, -4, -3, -4, 2
1503614538418,-10, -16, -8, 5, 0, -5, -9, -24
1503614538448,0, 0, 7, 1, -7, 0, 1, 2
1503614538463,16, 27, 26, 7, 6, 3, 3, 10
1503614538477,-1, -6, -2, -1, 2, -1, 3, 2
1503614538500,-6, -8, -7, -8, -3, 0, -2, -5
1503614538523,-3, 14, 8, -2, -7, -3, -5, -24
1503614538537,-8, -14, -10, -1, -2, -5, -4, -5
1503614538560,3, -7, -9, 1, 1, 1, 3, 5
1503614538584,4, -6, -8, -3, 2, 4, 2, 6
1503614538598,7, 26, 28, 16, 6, 2, 3, 8
1503614538620,-8, -9, -11, -7, 2, -6, -4, -5
1503614538642,-5, -3, -5, -6, -4, -1, -3, -1
1503614538658,-3, 16, 7, 0, -3, 0, -2, -12
1503614538680,-3, 10, 12, 0, -3, -2, 0, 1
1503614538702,2, -1, 1, 0, -3, -2, 2, 7
1503614538719,5, -5, -6, 0, 0, 0, 0, 1
1503614538740,-1, -6, -7, -1, 1, -1, 1, -1
1503614538762,3, 5, -6, -3, 0, 1, -1, 8
1503614538770,0, 10, 10, 2, -1, -2, 1, -4
1503614538794,-2, 2, 0, 0, 0, 1, -1, -3
1503614538808,2, 4, -2, -2, -1, 0, 2, 2
1503614538830,0, -1, 0, -2, -3, -1, 0, 1
1503614538853,-2, 0, 4, 3, 3, -2, -5, -2
1503614538875,0, -6, -8, -3, -1, 0, 1, 0
1503614538891,5, 14, 8, 0, 1, 2, -4, -10
1503614538913,0, 3, 3, 1, 1, -2, -3, -3
1503614538935,-1, -5, -4, -1, -3, -1, 0, 4
1503614538953,0, -6, -7, -3, -2, -3, 1, 3
1503614538958,-4, -3, -1, -3, -3, -2, -2, -5
1503614538980,-11, -7, -4, -5, -2, -2, -2, -13
1503614539002,-4, -5, -3, -4, -2, 0, -5, -13
1503614539020,2, 7, 10, 0, -2, -1, 0, 1
1503614539040,4, -6, -9, -6, -2, -1, 2, 5
1503614539063,8, -2, 1, 1, 2, 2, 3, 4
1503614539078,2, 23, 16, 5, 3, 1, -1, -2
1503614539100,-2, -14, -13, -2, -1, -2, -3, -2
1503614539123,-1, 7, -6, -5, -5, -3, -7, -16
1503614539137,-1, -1, -2, 3, -1, -4, 0, 29
1503614539160,-1, -2, -3, -1, -1, 2, 4, -4
1503614539182,13, 4, 6, 1, -2, -1, -1, 5
1503614539198,-14, -6, -3, -9, -1, 0, -2, -12
1503614539221,2, -5, -3, 2, -1, 0, 0, -3
1503614539243,2, -12, -6, 0, 0, 1, 3, 15
1503614539259,-2, 1, 3, 4, 0, -3, -3, -7
1503614539280,-5, -17, -7, 1, -1, -2, 3, 9
1503614539302,-6, 1, -1, -7, -2, 0, -4, -10
1503614539318,2, 8, 6, 6, 0, 1, 0, -4
1503614539340,-4, -12, -7, -6, -4, -1, -3, -6
1503614539363,7, 10, 5, 6, 2, -1, 4, 4
1503614539377,0, 1, 0, 0, -1, 2, 0, -2
1503614539400,10, 20, 10, 1, 0, -1, 1, 5
1503614539423,-1, 1, -2, -10, -6, 0, -1, -1
1503614539431,2, -2, -1, -3, -2, 0, 2, -6
1503614539453,-5, -5, 1, 0, -2, -2, -3, -2
1503614539475,8, 9, 10, -1, -1, 3, 1, 4
1503614539491,0, 1, 0, 0, -1, -1, -1, -8
1503614539513,-1, 0, -7, 1, 0, -1, 0, 1
1503614539535,-2, -2, -6, -6, -5, -2, -1, -4
1503614539550,-6, -5, -3, -3, 0, 2, 3, 4
1503614539573,-1, -12, -9, -7, -2, -3, -7, -3
1503614539595,1, 4, 3, 2, 2, 2, 2, 4
1503614539610,-2, -6, -6, -3, -3, -4, -1, -3
1503614539633,-6, 7, -1, -4, -1, 0, 4, 2
1503614539655,-7, -6, -6, -5, -3, 0, 0, -1
1503614539662,-4, -9, -3, 2, 0, 0, -2, 1
1503614539685,0, 3, 0, -7, -1, -1, -3, -6
1503614539700,0, 7, 4, 1, -4, -2, -3, -3
1503614539729,-2, -6, -2, 3, 2, -1, 2, 1
1503614539745,1, -2, 1, 3, 0, 1, 1, 1
1503614539760,-3, 2, -3, -10, -5, -1, 1, -5
1503614539782,4, 6, 7, -1, 3, 1, 0, -1
1503614539805,2, -6, -4, -9, -6, -5, -5, -2
1503614539820,-3, 7, 1, 1, 1, -2, 1, -6
1503614539842,1, -7, -11, -4, -3, 0, -4, 0
1503614539865,-6, -7, -10, -5, -2, 0, -1, -3
1503614539880,-2, 4, 4, -1, -3, -1, -3, -2
1503614539902,-1, 1, -3, -2, -2, -2, -1, -2
1503614539927,-4, 0, 1, 2, 2, 1, 2, 4
1503614539940,-1, 1, 0, 3, 0, 1, -1, -1
1503614539962,-1, -3, 1, 0, 4, 0, 2, 2
1503614539985,-3, 1, 0, -1, 1, -1, 0, 0
1503614540000,-4, -11, -5, 0, -4, 0, -2, -1
1503614540022,1, -6, -1, 3, 0, -3, -3, 0
1503614540045,-5, 3, 4, 2, -1, -1, -1, -7
1503614540060,3, 5, 0, 4, 1, -2, -1, -2
1503614540082,3, 9, 2, 0, 0, 1, 1, 1
1503614540105,1, -1, -2, 2, -1, -1, 2, 16
1503614540120,-2, -5, -2, -3, -3, -1, -5, -12
1503614540142,1, -5, -4, 1, 0, 0, -1, -1
1503614540165,23, 42, 23, 8, 4, 3, 6, 6
1503614540180,-13, -8, -2, -2, -3, -2, -3, -7
1503614540203,-2, 1, 0, 0, -1, -3, -1, 1
1503614540225,3, 0, -1, 1, -2, 1, 1, 2
1503614540240,-9, -20, -9, -5, -1, -4, -3, -1
1503614540264,-16, -15, -11, -3, 0, 1, -1, -6
1503614540285,6, -4, 3, 1, -1, -1, 0, 2
1503614540300,-4, -11, -8, -5, -1, -3, -3, -25
1503614540322,-4, -14, -11, -5, -2, 0, 5, 10
1503614540345,8, 12, 6, 1, -1, -1, 2, 5
1503614540360,3, 8, 4, 2, 0, 0, -6, -4
1503614540382,7, 12, 4, 6, -2, -1, 0, 9
1503614540405,-11, 1, 7, -2, -3, -3, -4, -2
1503614540430,-5, -4, -2, -3, 11, -2, -3, -7
1503614540442,5, 15, 8, 4, -8, 2, -2, -2
1503614540466,1, -7, -9, -4, -4, 0, -3, -4
1503614540473,-4, -3, -4, -5, -2, -4, -3, -1
1503614540499,0, 2, 3, 5, 6, 1, -2, -3
1503614540517,-5, 7, 3, -3, -1, -2, -4, -12
1503614540533,-4, -4, -5, -2, -1, 0, 1, 5
1503614540555,0, 2, 5, 1, -2, 1, -1, 3
1503614540577,3, -7, -6, -2, 0, -1, 0, 7
1503614540593,1, -5, 0, 5, 2, -1, 2, -3
1503614540615,-3, 1, 0, -4, -3, 1, -2, -11
1503614540637,17, 42, 31, 4, 0, 2, 9, 42
1503614540653,-5, -18, -14, -3, -2, -4, -10, -17
1503614540675,-3, -15, -15, -2, 1, -2, -1, -10
1503614540699,-5, -6, -1, -6, 3, 0, -2, -10
1503614540713,-1, -2, -4, 0, -5, -4, -6, -6
1503614540735,4, 7, 2, 2, 2, -1, -3, -6
1503614540757,-16, -5, -1, -1, -4, -1, -1, -9
1503614540773,-1, 0, -2, -7, -3, -5, -3, -5
1503614540802,-1, -5, -2, -5, -3, -2, 0, 2
1503614540818,1, -1, 0, 5, 3, 2, 0, -4
1503614540834,6, 3, 0, 2, -3, -2, 2, 19
1503614540856,-3, -1, 0, -1, 1, -1, -2, -3
1503614540877,-6, 0, 0, 2, -1, -2, -3, -8
1503614540893,2, -7, -4, -5, -4, -4, -1, -3
1503614540916,-5, -3, -3, 0, 0, 1, 1, 0
1503614540938,-3, -2, -2, -1, 1, 1, -2, -13
1503614540953,2, -12, -6, 0, -3, -3, 0, 3
1503614540976,5, 8, 3, -2, 1, 4, -2, -7
1503614540997,0, 1, -6, -4, 0, -2, -3, -1
1503614541013,-3, 1, 4, 0, -2, 0, 5, 3
1503614541036,-1, -1, -3, 0, -2, 0, 0, 2
1503614541057,4, -2, -3, -4, -6, -6, -3, 0
1503614541073,-1, -2, 2, 3, 1, 2, 0, -2
1503614541095,4, 11, 9, -1, 2, 4, 10, 12
1503614541118,-3, 5, 3, 3, 2, -1, 0, 0
1503614541135,3, 0, -4, -1, -2, -1, 0, 2
1503614541156,-4, 9, 2, 0, -1, 0, -5, -12
1503614541177,-4, -7, -5, 2, 2, 0, -4, -8
1503614541185,-10, -7, -6, 0, 0, -2, -3, -31
1503614541207,-1, 2, 4, -3, 1, 1, -1, -6
1503614541223,6, 14, 10, 5, 2, 2, 3, 5
1503614541245,2, 1, 1, 3, 1, 0, 0, 8
1503614541270,-1, 6, 6, -2, -2, 2, 1, 10
1503614541282,-5, -6, -4, -1, -2, 1, -1, -12
1503614541305,-1, 2, 4, 0, 1, 1, 0, -2
1503614541320,1, 2, 2, 3, 0, -3, -4, -5
1503614541349,3, 3, -6, -4, -3, -1, 0, -3
1503614541365,0, -1, 2, 1, -1, 1, 6, 21
1503614541387,-1, -15, -11, -4, -1, -2, 0, -3
1503614541409,-8, -3, 0, 0, 0, -4, -14, -37
1503614541424,-5, -4, -6, -3, -2, -2, 0, 1
1503614541447,3, 6, 3, 1, -1, 0, 4, 11
1503614541470,0, -6, -6, 0, 2, 1, -1, 3
1503614541484,-6, -1, 2, 0, -2, 1, -3, -6
1503614541507,-1, -7, -6, -5, -4, -5, -3, -6
1503614541529,10, 1, 1, 1, -1, 0, 4, 18
1503614541545,-4, 4, -2, -2, -1, -2, -2, -7
1503614541568,-2, 3, 1, -3, -3, -1, -3, 1
1503614541589,6, 2, 3, 0, -2, 0, 8, 30
1503614541605,12, 16, 6, 2, 0, 2, 13, 37
1503614541627,-17, -12, -4, -2, -1, -1, -6, -31
1503614541649,0, -5, 2, 0, 1, 0, -1, -6
1503614541665,5, -2, -4, 0, -1, -3, -4, -9
1503614541687,3, 4, 1, 1, 0, 0, 0, -2
1503614541709,-6, 0, 0, -4, -4, -2, -7, -15
1503614541724,-4, -7, -1, -3, -3, -3, -5, -5
1503614541747,-8, -12, -13, -4, 1, 0, -1, 0
1503614541769,-3, -2, 2, 0, 0, 2, -3, -3
1503614541784,-4, -3, -2, -1, 0, 0, 0, -4
1503614541807,4, 3, 1, -3, -4, -2, 1, 10
1503614541829,-3, 9, 2, 0, -1, -3, -2, -4
1503614541845,1, 15, 9, 4, 2, -1, -2, 1
1503614541867,2, 33, 18, 4, 1, -1, -2, -15
1503614541875,0, 9, 6, 4, 0, 1, -2, -4
1503614541898,-10, -30, -17, -8, -3, -3, -1, -29
1503614541919,-8, 1, 3, 0, -4, -2, -2, -16
1503614541935,4, 17, 6, -2, -3, 0, -2, 8
1503614541957,6, 14, 12, 0, 0, 1, 1, 17
1503614541980,1, -10, -8, -5, -4, 0, 6, 8
1503614541995,-1, -13, -4, -4, -2, -1, -7, -18
1503614542018,-1, 4, 1, 3, -2, -1, -2, -1
1503614542041,0, -4, -4, -2, 1, 0, -2, 8
1503614542056,3, -6, -5, -1, -1, -2, 0, 10
1503614542077,2, -1, 0, 0, 1, -2, 2, 16
1503614542101,1, 0, -5, -4, 0, -1, 0, 4
1503614542115,-3, -8, -3, -1, -2, -1, 1, -21
1503614542137,-4, 10, 3, 2, 2, -3, -8, -36
1503614542160,-2, -3, -3, -4, -1, -1, 3, 6
1503614542176,-5, 5, 5, 10, 1, 0, -6, -12
1503614542197,-1, 12, 6, -5, -5, 0, 1, 1
1503614542220,4, -3, -2, 1, 24, 4, 4, 30
1503614542242,13, 7, 2, 3, -11, -2, -3, -3
1503614542259,-6, 2, 8, 0, -3, -1, -1, 6
1503614542280,0, -8, -12, -7, -5, 0, 4, -2
1503614542302,-1, 0, -2, 5, -4, -3, -5, -17
1503614542318,-5, -6, -7, -13, -6, -5, 0, -5
1503614542340,7, 3, 5, 4, 1, 1, 1, -3
1503614542362,-8, -6, -3, -2, -2, 2, 4, 19
1503614542377,-1, -6, -1, -1, 2, -1, -2, -13
1503614542399,0, -4, -6, -11, -10, -3, -5, -9
1503614542407,-1, -1, 0, -2, -1, -3, -5, -2
1503614542429,1, 2, 0, -4, 1, 0, 3, 20
1503614542452,7, 7, 0, 8, 7, 4, 0, -7
1503614542467,4, -3, -3, -6, -6, -1, -4, 1
1503614542489,4, -4, 1, -3, 2, 1, 4, -5
1503614542511,-5, -13, -3, 3, 0, -1, -6, -5
1503614542527,-7, 1, 0, 8, 6, 2, 2, -8
1503614542549,-5, 2, 2, -6, -2, -5, -3, 6
1503614542571,-7, -9, -3, -9, -2, -1, 0, 10
1503614542587,7, 29, 6, 0, -3, 0, -4, -11
1503614542611,6, -4, -3, -2, 1, -2, 4, 2
1503614542631,-7, 1, -6, -10, -5, -2, -3, -14
1503614542648,1, -1, -1, -1, -3, -2, -2, -10
1503614542662,9, 28, 8, 2, 0, 2, -1, 4
1503614542679,0, -5, 0, 0, -3, 3, 1, 9
1503614542699,-3, 3, 5, -3, -1, -3, -3, -6
1503614542707,2, -9, -6, 1, 3, 3, 3, 17
1503614542729,0, -7, -1, -1, -4, -2, 2, -9
1503614542751,1, 26, 16, 3, 3, -2, -2, -1
1503614542767,0, 12, -1, 0, 1, 2, 1, -1
1503614542789,-5, -5, 0, -1, -3, -3, -4, -8
1503614542814,-2, 8, 1, 1, -2, -1, -2, -1
1503614542827,0, 14, 4, 3, 1, 2, 0, 1
1503614542851,-16, -9, -4, -1, -1, 1, -1, -4
1503614542871,-9, -8, -2, -3, 1, -2, -1, -7
1503614542888,-14, 14, 9, 0, -2, 0, -2, -9
1503614542909,5, 3, -2, 0, 1, 0, -2, -18
1503614542931,-9, -9, -6, -2, -1, 0, -1, 42
1503614542947,9, -1, 0, -3, -3, -5, -6, 3
1503614542970,-10, -11, -9, 0, -1, 0, 1, 0
1503614542992,23, -3, 3, 0, 1, 4, 2, -11
1503614543007,-3, -12, -7, 1, -2, -2, 3, 14
1503614543029,3, -6, -2, -1, 0, 0, -1, -1
1503614543052,8, 5, 6, 2, 0, 0, -1, -12
1503614543067,0, 0, -1, -3, -2, 0, -1, -3
1503614543089,0, 1, 3, 3, 2, -1, 1, 4
1503614543097,-1, 8, 10, 0, -1, -1, 1, 6
1503614543120,3, -4, -4, 0, -2, 0, -2, 3
1503614543142,-4, 2, 3, -3, -3, -2, -4, 1
1503614543164,-4, -9, 2, -2, -2, -3, 1, -1
1503614543180,9, 17, 0, -1, -2, -3, -1, 9
1503614543202,6, -4, -7, 0, 3, 3, 0, -8
1503614543225,0, -8, -7, -2, -3, 0, 1, 12
1503614543239,6, 7, 3, -1, 21, -1, 5, 12
1503614543254,-5, -7, -4, -2, -7, 0, 0, 1
1503614543269,7, 10, 0, -3, -8, -2, -2, -3
1503614543291,-2, -4, -3, -2, -1, -1, 0, 1
1503614543314,3, -1, 0, 1, 3, 1, 0, 7
1503614543329,-4, 2, 0, 0, -1, -3, -1, -1
1503614543352,-3, -9, -11, -3, -1, 1, -1, 1
1503614543374,-1, 8, 12, 2, 0, -1, 0, -2
1503614543389,4, 0, -4, -2, 0, -1, 1, 0
1503614543411,-1, -2, 1, -1, 2, 0, -3, 0
1503614543434,-4, 0, 0, 0, 1, 0, -1, -4
1503614543451,2, 7, 2, -1, 1, -2, -1, 0
1503614543471,-3, -8, 1, 2, -2, -2, -3, -1
1503614543494,1, 1, -1, -1, -2, -1, 2, -2
1503614543519,2, 12, 11, 2, 3, -1, -1, 1
1503614543531,-1, 1, -2, -2, -2, 2, -1, 0
1503614543556,1, -7, -6, -1, -2, -3, -1, -2
1503614543576,1, -3, -3, 1, 1, 0, 0, -3
1503614543599,-3, 0, -1, -4, -2, 1, -1, -1
1503614543615,-1, -6, -3, -2, -5, 0, 1, 2
1503614543637,1, 3, 2, 2, 2, 1, 0, 1
1503614543653,4, 10, 6, 0, -1, 0, 2, 0
1503614543675,-8, -10, -7, -4, 0, -1, -3, -3
1503614543698,-2, 4, 3, -1, 0, -2, -3, -3
1503614543712,-5, -9, -8, -1, -1, 1, -1, 0
1503614543735,-1, 1, -1, -3, -2, -2, -1, 0
1503614543758,-5, -6, -7, -3, -2, -3, -3, -5
1503614543773,0, -2, -3, -2, 0, 0, 0, 0
1503614543796,2, 1, 4, -2, 0, -2, 2, 0
1503614543821,0, 0, -2, 2, 0, 0, -1, 0
1503614543833,-6, -6, -1, 1, -1, -2, -2, -3
1503614543857,-4, -5, -3, -3, 0, -1, -3, 2
1503614543862,0, -6, -2, -1, -2, -1, 0, 0
1503614543887,1, 2, 1, 1, -1, 0, -1, -2
1503614543899,-10, -9, -6, -3, 0, -1, -1, -5
1503614543922,3, 2, 4, 1, 0, 0, 0, 1
1503614543938,1, -10, -6, 0, 0, 1, -1, 6
1503614543954,0, -3, -3, 0, -1, -2, -2, -5
1503614543975,-6, -9, -8, -4, -2, -1, 0, -9
1503614543997,-5, 7, 3, 1, 0, -1, -6, -18
1503614544012,-3, -4, -2, -4, -5, -5, -3, 4
1503614544035,-1, 12, 9, 1, 0, 0, -1, -5
1503614544058,1, 1, 0, -1, 2, 0, -2, -8
1503614544072,0, -3, -2, -1, -1, -2, 0, 3
1503614544096,0, -5, -6, -3, -1, 1, 2, 7
1503614544117,8, 21, 15, 5, 1, 2, 1, 2
1503614544125,0, -4, -1, -1, 0, 1, -2, -1
1503614544147,-3, 0, -4, 0, -1, 0, -1, 2
1503614544162,-1, -2, -4, -3, -2, 0, 0, -5
1503614544185,3, 0, -4, -1, 0, -1, 1, -1
1503614544207,-3, -3, -8, -8, -5, -3, -2, -3
1503614544224,-2, -2, -2, -2, 19, -1, -1, 1
1503614544244,-1, 7, 9, 1, -13, 0, -3, 0
1503614544267,2, -2, -3, -1, -9, 0, 1, -1
1503614544282,0, 1, 3, 3, -2, -2, -1, 1
1503614544304,-4, -5, -1, 2, 1, -1, 0, -5
1503614544327,-2, 4, 5, 0, 0, 0, -1, -2
1503614544342,0, -6, -18, -3, -1, 1, 0, -15
1503614544365,-8, -10, -6, -4, -5, 2, 0, -7
1503614544387,2, -3, -3, -2, 1, -1, -2, 5
1503614544402,0, -1, 10, 2, 2, 0, 3, 2
1503614544425,-5, 0, 2, 0, 1, -3, -1, 7
1503614544447,2, -4, -7, 1, 7, 0, 0, 1
1503614544462,8, -5, -3, 0, -1, 0, 0, 3
1503614544485,-3, 3, -4, -1, -4, -3, -1, -3
1503614544507,2, 8, 13, 3, 0, -1, 0, 1
1503614544522,4, 4, -1, 0, 1, 1, 1, 1
1503614544551,-5, 0, 2, 0, -1, 1, -1, 0
1503614544567,-7, -2, -1, 0, -1, -2, -6, -7
1503614544582,25, 8, 1, -1, 1, 1, 6, 50
1503614544605,-2, -1, -3, -3, -4, 2, -3, -12
1503614544627,-10, -9, -15, -5, -4, -2, -3, -11
1503614544642,2, -9, -7, 1, 3, 0, 0, -5
1503614544664,-4, -2, 2, -3, -2, -5, -1, -7
1503614544687,-3, 8, 12, 2, 1, 1, -1, -6
1503614544702,2, 2, -9, 1, 4, -1, -1, -3
1503614544726,-9, -7, -1, -5, -7, -5, -1, -6
1503614544747,-2, 0, -2, -2, -1, 2, 0, -15
1503614544762,-1, 3, 3, -2, -5, -1, -3, 5
1503614544785,-2, 3, 3, 1, 0, -1, -3, 4
1503614544807,5, 2, 5, 1, 1, 1, 3, 7
1503614544822,-9, -6, -3, -1, -3, -6, -7, -12
1503614544844,9, 4, 7, 0, -1, 1, 2, 8
1503614544867,-8, -4, -2, 0, -3, 1, 1, -10
1503614544883,5, 6, -2, 1, -4, 2, 0, 7
1503614544904,-3, -2, -1, -3, -1, -2, 0, -3
1503614544928,-14, -10, -3, -1, 0, 1, -2, -5
1503614544942,3, -2, -2, -1, -4, -5, -2, 3
1503614544965,-5, 0, 1, -2, 2, -1, -3, -1
1503614544987,3, -3, -5, -1, 0, -1, 0, -1
1503614545007,-4, 2, -2, -4, 0, 1, -2, -7
1503614545025,6, -1, 1, 3, 1, -3, 1, -6
1503614545047,-2, -3, -1, -3, -2, -1, 1, -7
1503614545070,1, -1, 2, 0, 0, 0, -1, 4
1503614545084,-9, -6, -6, 0, 0, -1, -4, -8
1503614545100,1, -5, -4, -3, -2, -3, 1, 11
1503614545115,-2, -6, -7, -7, -1, 0, -2, -8
1503614545138,-8, 2, -1, 1, 1, 2, -1, -11
1503614545159,-3, 0, -1, -1, 1, -1, 0, -9
1503614545175,22, 5, 5, 1, -1, 3, 4, 47
1503614545199,-23, -4, 1, 1, 2, -1, -3, -12
1503614545219,-2, 0, -5, -4, -2, -1, -1, 25
1503614545230,18, 19, 12, 1, -1, 1, -1, -3
1503614545250,-6, -16, 0, -3, -1, 0, -1, -6
1503614545265,-14, -18, -4, 1, 7, 1, 1, -1
1503614545287,5, 5, -6, -3, -10, -4, -3, 2
1503614545309,2, -10, -4, -1, -9, -1, -2, -18
1503614545317,3, 6, 6, 5, -2, 0, -1, -10
1503614545339,-2, -7, 4, 0, -3, 1, 1, 12
1503614545347,6, 29, 34, 7, 5, 5, -3, -1
1503614545371,-4, -2, -6, -3, -2, -3, -1, 5
1503614545384,3, -5, -6, -5, -3, -1, -2, -4
1503614545407,1, -3, -4, 1, -2, -2, -1, -1
1503614545431,-8, -7, -9, -3, 0, -4, -3, -5
1503614545444,-8, -11, -13, -1, 0, 0, -2, -8
1503614545467,-4, -5, -6, -4, 2, 0, 4, 14
1503614545489,-10, -8, -1, -3, -1, 1, 1, 0
1503614545505,-6, -1, -3, -2, 0, 2, 4, -8
1503614545527,3, -15, -14, 0, -3, -2, 1, 49
1503614545549,5, -9, -8, -1, -1, 2, 0, -16
1503614545565,-10, 4, 3, 5, -1, -1, -2, -12
1503614545587,0, 4, 4, -3, 1, -3, -5, -12
1503614545609,4, 5, 6, 2, 0, -1, -2, -4
1503614545624,5, 20, 14, 4, 3, 1, 2, -3
1503614545647,1, 0, 0, -4, -4, -1, 0, -4
1503614545670,23, 19, 4, -3, 0, -4, 0, 19
1503614545684,4, -1, -1, 7, 4, 1, 1, 8
1503614545708,-10, 0, 1, 0, 0, -2, -4, -10
1503614545729,-5, -20, -14, -5, -1, -2, 1, -7
1503614545744,-6, -9, -4, -4, -4, -1, -1, -7
1503614545767,-7, -14, -5, 0, -4, -1, -7, -25
1503614545790,-16, -15, -18, -5, -3, -2, -3, -4
1503614545805,6, -2, 1, -1, -1, -2, 0, -1
1503614545827,2, 9, 3, -1, -2, -1, -1, 8
1503614545850,22, 16, 4, 0, 0, 2, 12, 45
1503614545864,-5, -14, -1, -1, -4, -1, -4, 0
1503614545887,-4, -4, -4, -1, 1, -2, -1, -2
1503614545910,-3, -3, 1, -2, -1, 1, -4, -21
1503614545925,11, 27, 11, 2, -1, -3, 0, 4
1503614545947,0, 1, 8, 2, 1, 1, 0, 9
1503614545970,-7, -12, -11, -5, -3, -2, -1, -3
1503614545991,-4, -3, 0, 0, -2, -2, -1, -3
1503614546007,5, 7, 0, -1, -2, 0, -3, -8
1503614546030,-1, -7, -4, -2, 1, -2, -1, 5
1503614546051,-9, -3, 0, -4, -1, 1, 1, -28
1503614546069,-5, -12, -7, -1, -1, -1, -2, 0
1503614546089,1, -10, -14, -1, -2, -1, -1, 2
1503614546111,-2, -11, -2, -2, 1, -2, -2, -10
1503614546135,-6, 0, 1, 2, 1, 1, -2, -2
1503614546157,-1, 0, 0, -1, -2, -2, 1, 2
1503614546171,13, 4, -1, 0, -2, 0, 5, 27
1503614546187,-6, 11, 10, 5, 2, -4, -7, 6
1503614546209,3, -9, -6, -1, -2, -1, 1, 15
1503614546217,-1, 3, 5, -1, -1, -2, 1, -1
1503614546241,2, 12, 6, 1, -1, 1, -3, -6
1503614546262,-1, -5, 1, 3, 0, -2, 0, -1
1503614546277,-14, -21, -8, -4, -3, -1, 1, 4
1503614546300,5, -1, 0, 4, 1, -1, 1, 16
1503614546322,1, 9, 5, 1, -3, -1, -7, -12
1503614546339,9, 19, 4, 1, 20, 1, 1, -3
1503614546359,1, -7, 1, 1, -12, 1, 1, 7
1503614546382,6, -8, -6, -3, -7, -1, 1, 2
1503614546397,-6, -1, 4, 0, -2, -2, -2, -8
1503614546419,3, 8, 3, 1, -2, 1, 5, 13
1503614546442,-2, 2, -6, -2, -2, 1, 0, -3
1503614546457,-7, -5, -2, -6, -4, -2, -8, -12
1503614546480,-11, 2, 4, 2, -2, -2, -2, -18
1503614546502,0, -14, -6, 0, 1, 2, -1, 0
1503614546517,-5, -6, -7, -5, -8, -3, -5, 6
1503614546547,3, -1, 3, 0, 5, -3, -2, -6
1503614546569,-4, -5, -9, -3, 0, 1, -1, -11
1503614546592,-4, -13, -13, -9, -2, 0, 0, 15
1503614546607,2, -4, -1, 0, -2, 1, -1, 9
1503614546629,2, 19, 17, 2, 2, 0, 1, -14
1503614546652,-3, -2, -1, -4, -5, -2, -2, -9
1503614546667,3, 10, -2, 3, 3, -1, -3, -12
1503614546689,3, 2, 2, 2, -2, 1, -2, 4
1503614546712,6, -1, 2, -5, -2, -4, 1, 38
1503614546727,-5, -6, -6, -3, 1, -1, 0, -13
1503614546749,-4, 0, -1, 2, -2, -2, -4, -17
1503614546772,-4, -19, -11, -4, 2, -2, -2, 1
1503614546779,-1, 2, 1, 3, 3, 2, -3, -13
1503614546787,2, 14, 8, 5, 2, -2, -9, -27
1503614546810,-3, -11, -7, -5, -2, -3, 3, -10
1503614546832,4, 9, 6, 5, 1, 1, 0, 1
1503614546847,-4, -11, -8, -6, -2, -1, -3, -12
1503614546869,-2, -1, 0, -2, -2, 0, 2, -1
1503614546892,-11, -17, -11, -3, -1, -1, -2, 4
1503614546914,11, 25, 2, 2, 1, -1, 1, 28
1503614546929,6, 8, 9, 2, 2, 2, 5, 45
1503614546952,1, -19, -9, -3, -1, -2, 2, 11
1503614546975,-7, -5, 0, 0, 0, -1, -1, -20
1503614546989,-6, -7, 2, -1, 1, 0, -3, -15
1503614547012,11, -8, -13, -2, -2, -1, 4, 31
1503614547034,-13, -25, -12, -4, -4, -3, -1, -20
1503614547049,-2, -15, -12, -4, -3, 0, -1, -5
1503614547065,3, 7, 8, 5, 1, -1, 0, -5
1503614547080,-7, -8, -9, -4, -1, -1, -3, -3
1503614547102,2, 8, -1, 0, 2, 0, 1, 3
1503614547124,-4, -20, -8, -2, -3, -4, -3, -1
1503614547140,8, 56, 32, 6, 0, 4, 5, 13
1503614547162,4, 14, 8, 2, 2, 3, -1, -2
1503614547185,-18, -35, -20, -3, -1, -4, 0, -4
1503614547200,5, 14, 7, 0, 1, 1, -2, 5
1503614547222,6, -17, -13, -3, 1, 1, 1, 0
1503614547245,-1, -3, 4, 1, -4, 3, -2, 2
1503614547260,9, 23, 5, -3, -4, -1, -1, 2
1503614547282,2, 0, -3, -1, -2, -4, 1, 1
1503614547304,12, -8, 7, 4, 3, 3, 3, 3
1503614547321,-11, -28, -28, -4, 1, -1, -5, -9
1503614547342,3, -8, -8, 2, 2, -2, 2, -7
1503614547364,16, 10, 3, -4, -1, -3, 0, 16
1503614547387,-1, 13, 12, 1, -4, 1, 1, -2
1503614547402,5, 21, -2, 2, -2, 1, -1, -28
1503614547424,-6, -35, 2, -1, 2, -4, -5, -10
1503614547440,5, -30, -9, -7, 0, -3, 0, 6
1503614547462,-6, -23, -31, -6, -4, -5, -3, -11
1503614547491,-8, 64, 49, 5, 0, 4, -1, -4
1503614547500,-9, 3, -2, -2, -2, -3, -2, 13
1503614547522,-13, -16, -7, -2, -3, -2, -2, -3
1503614547546,8, 6, -3, 1, 1, 0, -1, 7
1503614547560,3, -14, -13, -4, 2, 3, 1, 7
1503614547582,2, 44, 36, 8, 0, 1, 0, -4
1503614547604,-6, 0, -1, -2, -1, -1, -1, 0
1503614547620,4, -7, -1, 1, 0, -2, 1, 24
1503614547642,-8, -12, -7, -2, -2, -1, -4, -9
1503614547665,-6, -4, -2, 1, -1, 2, -1, 0
1503614547683,-7, -12, -12, -5, -1, -2, -2, -4
1503614547702,2, -12, -18, -3, -2, 0, 0, -1
1503614547724,-1, 14, 11, 1, 1, -3, -3, -3
1503614547741,5, 3, 1, -1, -5, -4, 0, 11
1503614547762,-12, -41, -26, -7, -1, 0, -1, -4
1503614547785,0, -1, -2, -1, 0, -3, -3, -2
1503614547800,-2, -1, 0, -4, -3, -1, 0, 1
1503614547822,0, 19, 20, 4, 2, -1, 1, -8
1503614547844,3, 2, 5, -3, 1, -1, 0, 14
1503614547867,13, 23, 13, 5, 0, 3, 3, -1
1503614547882,-2, -9, -9, -3, -2, -1, -2, -4
1503614547904,-7, -5, -6, -3, -2, -1, -3, -4
1503614547927,-5, -7, -1, -2, 0, -2, -1, -1
1503614547942,-3, 0, -2, 0, -1, 2, 1, -8
1503614547964,-3, -7, -9, -4, -3, -3, -3, -3
1503614547989,-4, -14, -9, -2, -1, 1, 0, -4
1503614548003,2, 1, -1, -2, -2, -3, -3, 3
1503614548024,1, 3, 5, 3, -1, 0, 0, -1
1503614548049,0, 5, 0, 3, 0, -2, 1, 0
1503614548069,-2, -2, -3, -1, 1, 0, 0, -3
1503614548085,-2, -15, -18, -4, 1, -2, -2, -1
1503614548120,1, -2, 4, -1, -1, 2, 0, -2
1503614548122,-3, -1, -2, -2, -2, 0, -1, 2
1503614548145,1, 0, 2, -1, 0, -3, -1, -1
1503614548167,-1, -2, -2, -1, -1, -3, -3, -1
1503614548183,1, 4, 4, 1, 2, 0, 0, -1
1503614548205,-2, -7, -14, -1, -8, 2, 0, -1
1503614548227,13, 19, 8, 0, 1, -1, 2, 4
1503614548242,-6, -10, -7, -2, -1, -2, -3, 0
1503614548264,-1, 1, 2, -2, 1, -1, -1, -5
1503614548287,-2, 2, 6, 2, 1, -1, -2, -1
1503614548302,0, 3, 3, 0, -2, 0, -2, 1
1503614548326,-4, -31, -14, -4, -3, -4, 2, -1
1503614548347,1, 4, 6, 3, 0, 1, 0, -6
1503614548362,-6, -5, -7, 0, 0, -1, 0, -3
1503614548385,-2, 2, 1, -7, -5, -2, -2, 2
1503614548407,4, 7, 4, -2, -1, 2, 2, 4
1503614548422,1, 3, -5, 0, 1, -3, -3, 0
1503614548444,-5, -5, -13, -4, -1, -2, -2, -14
1503614548468,4, 11, 23, 6, 3, 3, 3, 8
1503614548482,-7, -3, -1, 1, 2, -1, -2, 3
1503614548507,-3, -3, -7, -6, -3, -4, -4, 2
1503614548512,3, 13, 26, 9, 3, 1, 1, 2
1503614548534,-1, 3, -6, -1, -3, -1, 2, 2
1503614548557,1, 10, -2, -4, -1, 0, 0, 9
1503614548566,-2, -10, -14, -5, -4, -3, -3, -4
1503614548587,1, 4, 2, -1, 1, -3, 0, 0
1503614548602,-1, -5, -3, -5, -2, 0, -2, 0
1503614548624,0, -1, -8, -2, 0, -2, 0, 3
1503614548649,2, -3, 0, -1, -3, -1, -2, 7
1503614548664,-3, 6, -7, -3, -1, 1, -4, -9
1503614548692,0, -4, 1, 2, 1, -3, -1, 3
1503614548707,-7, -5, -5, -4, -2, -2, 1, 1
1503614548727,-2, 8, 0, 0, 0, 2, -1, -5
1503614548745,3, 3, 12, 3, 1, 1, 0, 1
1503614548769,2, 2, 0, -2, 1, -1, 2, 2
1503614548789,0, 3, 5, 4, 1, 3, 0, -2
1503614548804,2, 0, 1, -1, 0, 1, 5, 5
1503614548827,4, 2, -11, -1, -3, -4, -2, 2
1503614548855,-7, -10, -5, 0, -1, -2, -3, -15
1503614548869,0, -8, -5, -2, -1, -3, -1, 7
1503614548890,-4, -1, -2, -2, -3, -1, -3, -9
1503614548910,8, 5, 11, 3, 0, 0, -2, -1
1503614548924,11, 13, 6, 1, -2, -1, 0, 16
1503614548947,-1, -8, -14, -7, -2, -1, -2, 0
1503614548969,-5, 10, 20, 5, 1, -2, -4, -3
1503614548984,-5, -3, -8, -3, -1, -2, -3, -13
1503614549008,-1, -2, -5, -2, -2, 1, -1, -11
1503614549030,5, 8, 9, -3, -1, -3, 2, -3
1503614549037,8, 26, 25, 7, 3, 3, 2, 3
1503614549061,-5, -6, 10, 0, 0, -4, -1, -5
1503614549075,-5, -15, -14, -7, -5, -1, 2, -9
1503614549098,0, -3, -5, 2, 0, 0, -2, 1
1503614549120,4, -1, -8, 0, -3, 0, -1, 5
1503614549136,7, 10, 1, 3, 0, -3, -3, -16
1503614549158,-2, -4, 2, -4, -1, -1, 0, 4
1503614549180,-4, -4, -7, -4, -4, -2, -3, -3
1503614549197,1, -2, -6, -2, -1, -4, -2, 1
1503614549218,-14, -15, -8, 0, 2, 1, -1, -5
1503614549240,0, -7, -2, -2, 3, 3, 0, -1
1503614549263,0, 12, 7, 3, -2, -2, 1, 8
1503614549278,2, -10, -16, -8, -6, -4, -5, -2
1503614549301,-1, 4, 8, 4, 1, -5, 0, -24
1503614549315,-1, -4, -4, -1, 0, 2, 0, 0
1503614549337,-9, -8, -1, -1, 1, 2, -4, -4
1503614549360,-6, 8, 16, 0, -1, -1, -1, -6
1503614549375,-4, -6, -6, 2, -1, 5, 2, 6
1503614549397,2, -5, -8, -1, 3, -3, 2, 13
1503614549420,0, 8, 7, -1, -3, 2, 1, 6
1503614549427,-1, -7, -3, 2, 1, 0, 2, -1
1503614549449,1, -8, -11, -1, -1, -1, -3, -2
1503614549465,3, 6, 2, -1, 1, -3, 1, 1
1503614549487,-3, 5, 3, 2, 0, -2, -1, -15
1503614549509,-1, -4, -5, 1, 1, 2, 1, 4
1503614549526,-2, 0, 0, -2, -2, 0, -1, 6
1503614549547,13, 8, 9, 1, 1, 0, 2, 12
1503614549569,-3, -4, -4, -1, 0, -3, -3, 2
1503614549584,-6, 2, -5, -5, -1, 0, -6, -9
1503614549607,-6, -7, 2, -4, -4, -6, -2, -6
1503614549630,-1, 2, 1, -1, -1, 2, 1, 2
1503614549644,2, -3, -1, 0, -2, 2, -6, -7
1503614549663,-3, -5, -2, -5, -2, -1, -5, -7
1503614549682,5, 1, -6, -3, -2, -5, -3, -3
1503614549698,2, 5, -3, 3, 1, 0, -1, -4
1503614549720,-12, -8, -6, -3, -4, -3, 0, -4
1503614549742,2, 2, 5, 4, 15, -2, -1, 5
1503614549757,0, -1, 3, -1, -11, -1, -2, 0
1503614549780,-3, 1, 0, -2, -4, 1, 0, -4
1503614549803,2, 0, 4, 1, 0, 0, 1, -7
1503614549818,5, 0, 4, 0, -4, -1, 1, 0
1503614549840,-8, 8, -7, -2, -2, 1, -2, -15
1503614549866,-4, -7, -11, -4, -2, -2, -1, 0
1503614549877,-5, -22, -9, -3, -1, 1, 2, 24
1503614549900,7, -2, 1, -3, 2, 2, 4, 9
1503614549922,-12, 6, 2, 1, 0, -4, -7, -25
1503614549939,7, -3, -2, -2, -3, -3, -6, 1
1503614549969,-13, -9, -8, -5, -2, 0, -2, -31
1503614549989,6, 0, -1, -2, 0, 2, 2, 13
1503614550012,-1, -15, -9, -5, -4, -3, -1, 9
1503614550028,-6, -10, -7, -5, -2, -1, -3, 0
1503614550049,-6, -4, -6, -2, 0, 2, 0, -4
1503614550059,2, -5, -8, 1, 0, 3, 0, -5
1503614550080,-6, -8, -2, 3, -3, -8, -11, -30
1503614550102,9, 4, 5, 3, 3, 3, 3, 12
1503614550117,7, 13, 1, -5, -3, 0, 4, 7
1503614550140,9, 10, 6, -2, -1, -1, -2, -13
1503614550164,-4, -16, -10, -3, -2, -4, 0, 12
1503614550177,1, 11, 12, 0, -2, 1, 1, -3
1503614550206,-4, 0, -1, -3, -2, 1, 3, 1
1503614550222,-1, -6, -2, -5, -2, -3, -3, -9
1503614550237,-6, -8, -9, -3, -1, -3, 0, 9
1503614550260,-2, -11, -9, -2, 0, 1, 1, -1
1503614550282,2, 3, -5, 0, 0, -2, -3, 5
1503614550298,-1, -13, -14, -2, -4, -2, -2, -7
1503614550320,-6, -3, 3, -2, 1, -1, 1, 1
1503614550342,-11, -13, -7, -2, -3, -5, -1, -20
1503614550357,6, 3, 1, 0, -2, -2, -2, -4
1503614550380,4, 8, 3, 3, 2, 2, 0, -1
1503614550402,9, 13, -2, 2, 2, 3, 5, 6
1503614550418,4, 1, -1, -1, 0, -1, 0, 16
1503614550434,2, -9, -5, -2, 1, -1, 0, 1
1503614550447,-5, -13, -10, -4, 0, -2, -2, -4
1503614550471,9, -4, -1, -2, -2, 3, 4, 28
1503614550492,-8, -7, -4, 3, 3, 1, -1, -11
1503614550507,-10, 9, 1, 0, -2, 1, -3, -37
1503614550529,-3, 3, 4, 1, -1, -3, -5, -12
1503614550552,1, -2, 2, 0, 0, -3, 1, 0
1503614550568,1, 2, 2, 0, 0, -1, -1, 5
1503614550589,-2, 4, 1, -1, 6, -2, -2, -1
1503614550612,3, -2, 0, -2, -9, 0, 0, 5
1503614550636,-1, -6, -5, -2, -5, 1, -1, 2
1503614550649,5, 0, 4, 3, 2, -1, 1, -4
1503614550673,2, 0, -8, -3, -1, -3, -1, -4
1503614550695,2, -6, -8, -2, -2, -2, -2, 2
1503614550710,1, 8, -5, -1, -4, -1, 2, 4
1503614550732,7, 8, -3, 1, 2, 0, 1, 3
1503614550740,-9, 4, 6, 3, 1, 2, -1, -2
1503614550762,-1, -5, 2, -1, 0, -3, -4, -7
1503614550785,-5, -6, 1, 0, -3, -3, -1, 3
1503614550802,0, 3, -1, -2, -1, 1, 1, 3
1503614550822,-3, -5, -3, -3, 0, 1, 4, 10
1503614550844,7, 30, 9, 4, 1, 1, 0, 4
1503614550860,4, 3, 0, -1, -2, 1, -1, -5
1503614550882,-2, 1, 6, 4, 1, 1, 0, 5
1503614550905,-3, -17, -7, 0, 1, -1, 0, -1
1503614550920,-6, -4, -6, -5, -3, -4, -4, -31
1503614550942,0, 0, 3, -1, -2, 0, -2, -5
1503614550964,2, -6, -4, 0, 1, -2, -1, 3
1503614550980,11, 25, 20, 8, 3, 3, 2, 11
1503614551004,-7, -10, -6, -3, 0, -3, -2, -6
1503614551024,-3, -3, -3, -5, -5, -2, 2, 5
1503614551040,-1, -2, 0, -1, 2, -1, 0, 10
1503614551063,-1, 9, -3, 1, -2, 0, -4, -6
1503614551084,-5, -9, -7, -4, -2, -1, -3, -1
1503614551100,-2, 6, 9, 3, -1, -1, -4, -4
1503614551122,1, 2, 0, 0, 1, -1, 1, 10
1503614551130,1, -9, -15, 0, -4, -2, -2, 19
1503614551152,-6, -2, 6, -1, 1, 0, 0, -26
1503614551174,-4, -2, -4, -3, -2, -2, -5, -7
1503614551189,3, -13, -2, 0, 3, -2, 4, 5
1503614551205,-9, -18, -10, -4, -2, -2, 0, -10
1503614551220,0, 5, 3, -1, 0, 0, 0, -7
1503614551249,3, -17, -6, -2, -5, -3, -2, 13
1503614551265,-3, 10, 14, 0, 1, -2, -5, -1
1503614551280,-7, -5, -10, -3, -5, -2, -1, -5
1503614551303,-1, 14, 7, 3, 2, 0, -2, -18
1503614551324,3, 6, -3, 2, 2, 2, 0, -2
1503614551332,-4, 15, 6, -1, -1, -3, -3, -12
1503614551354,-1, -4, 0, -1, -1, -1, -1, 7
1503614551369,1, -9, -4, -1, -3, -2, -4, -7
1503614551391,1, 0, 1, -7, -4, -5, 1, 11
1503614551415,-6, -10, -1, 3, 1, 1, -1, -18
1503614551430,-4, -3, -2, 1, 1, 0, -3, -21
1503614551452,6, 22, 11, 0, -1, -1, 0, -3
1503614551474,-8, -7, -8, -4, -1, -1, -3, -11
1503614551489,0, -4, -4, -4, -1, 1, 0, 3
1503614551512,-6, -14, -6, 1, -3, -2, 2, 7
1503614551534,14, 20, 9, 0, 1, 0, 8, 37
1503614551550,-5, -14, -11, -1, 0, -1, -6, -10
1503614551574,0, -6, -3, -2, -2, -4, -1, 1
1503614551594,2, 6, 1, 3, -2, -4, 0, -9
1503614551616,-3, 17, 8, -2, -4, -3, -4, -3
1503614551631,1, -9, -5, -1, -1, 0, 0, -6
1503614551654,1, 1, 5, 1, -1, 2, 0, 9
1503614551676,-7, -7, -4, 1, 1, 3, -2, -8
1503614551692,-2, -3, -1, 0, 3, -3, -1, 15
1503614551714,-8, -12, -6, -2, -6, 0, -1, -10
1503614551736,4, -2, 0, 0, -2, -1, 0, 18
1503614551752,-9, -8, -9, -4, 0, 0, -4, -2
1503614551782,-3, 3, -5, 0, -4, -3, -1, -26
1503614551804,0, -4, 0, 1, 0, 1, -3, -2
1503614551827,4, 8, 2, 1, 2, -2, -2, 17
1503614551844,6, 0, 1, -3, 0, 0, 2, 14
1503614551864,1, 0, -1, -2, -3, -3, -5, 1
1503614551887,1, 8, 0, -1, 0, 0, 3, 8
1503614551902,-5, -9, -5, 2, 0, -3, -6, -45
1503614551924,3, 8, -1, -1, -1, 1, 3, 1
1503614551949,-3, 0, 1, -2, -3, 0, 1, 17
1503614551962,0, 9, -1, -1, -1, -1, 2, 10
1503614551985,-6, -15, -8, -4, -2, 0, 3, 6
1503614552007,-2, 4, 8, 4, 3, 1, -2, -12
1503614552022,-3, -4, -4, -2, 1, -1, -4, -6
1503614552045,0, -9, -1, 0, 0, -3, -1, 10
1503614552067,22, 10, 3, 2, 2, 1, 3, 41
1503614552087,-7, -6, -3, -3, -3, -1, -10, -29
1503614552104,3, 40, 19, 4, 0, 1, 2, -5
1503614552127,-5, -3, -4, 0, -1, -1, -2, -7
1503614552145,-6, -13, -9, -7, -4, -2, -1, -6
1503614552164,3, -8, -6, -6, -5, -4, 2, 22
1503614552187,0, -9, -7, -2, -2, -1, 3, 1
1503614552202,-2, 3, 0, 0, 0, 0, 2, 9
1503614552224,-4, -2, 0, -2, 0, 0, -6, -13
1503614552248,5, -6, -2, 0, 0, 2, 1, 14
1503614552262,0, 0, 6, 2, 0, 2, -1, 0
1503614552284,-13, -14, -9, -3, 0, -3, -7, -28
1503614552307,-9, -9, -4, 3, 2, 0, -6, -4
1503614552322,8, 1, -5, -4, 3, 1, 7, 39
1503614552346,0, 3, 4, 3, 0, 0, 2, -29
1503614552367,-1, -2, -2, -3, -4, -3, 2, 30
1503614552383,-1, -2, 1, -1, -1, -2, -1, -7
1503614552404,0, 4, -3, -3, -4, -2, -1, -21
1503614552426,0, 12, 11, 5, 1, 1, 0, -9
1503614552442,-10, -14, -7, -3, 0, -1, -4, -7
1503614552464,-6, -19, -1, -2, -2, -3, -3, -3
1503614552487,14, 24, 13, 5, 5, 3, 0, -9
1503614552509,-3, -6, -10, -5, -2, -1, -2, 11
1503614552525,-3, -7, -6, -3, -4, -1, -1, -7
1503614552539,5, 13, 2, -2, -1, -3, -1, 3
1503614552555,-8, -18, -5, -1, -1, -1, 0, -11
1503614552576,-3, 3, 0, -1, -2, -2, -2, -7
1503614552599,3, 13, 6, 3, 1, 1, 3, 2
1503614552615,3, 13, 11, 5, -1, -4, -2, -3
1503614552636,6, 0, -4, 1, -1, 0, 3, 0
1503614552658,-16, -37, -14, -11, -7, -2, -5, 1
1503614552674,10, 13, 22, 7, 5, 4, 4, 3
1503614552696,-30, -58, -33, -13, -6, -5, -6, -4
1503614552719,18, -2, -26, -6, -4, -4, -1, 3
1503614552735,-8, -53, -28, -2, -1, -1, -2, -4
1503614552756,12, 31, 36, 6, 3, 3, 0, 1
1503614552778,1, 28, 12, 2, 1, -2, 0, -1
1503614552794,0, 10, 1, 1, 1, -1, 2, 0
1503614552817,1, -11, -3, 0, -3, 0, -1, 1
1503614552839,2, 69, 38, 4, 3, 1, -1, 0
1503614552847,15, 38, 16, 2, -2, -1, 0, 2
1503614552869,-1, -12, -12, -4, -1, 0, 0, 1
1503614552884,-13, -25, -5, -3, -3, -3, 1, -10
1503614552907,-7, -13, -21, -1, 3, -3, -3, -9
1503614552929,-3, 3, 6, -3, -1, 0, -1, 1
1503614552944,-4, -11, -7, -6, 10, -3, 0, 3
1503614552967,0, -3, -2, 0, -9, 2, -1, 4
1503614552989,2, -1, 1, 1, -5, -2, -2, 4
1503614553004,0, 6, 7, 1, -1, -2, 1, 1
1503614553027,0, 0, 5, 0, -2, 0, 0, 1
1503614553051,6, 15, 12, 5, 1, 3, -1, 0
1503614553064,-2, -9, -7, -2, -1, -3, 0, 3
1503614553087,1, -4, -7, -4, -3, -2, -1, 3
1503614553109,0, -4, -2, -3, -2, -1, -1, 0
1503614553124,-4, 0, -7, -4, -3, -3, 0, -4
1503614553147,-3, 3, 2, 2, 0, 1, -1, 1
1503614553170,3, -5, -1, 0, 1, -4, 1, -1
1503614553185,-1, 2, 2, 1, -1, -1, -1, -1
1503614553207,1, -2, -4, -4, -1, -2, -2, -1
1503614553230,-1, 3, 5, -1, 0, 0, -1, 0
1503614553245,-6, -10, 0, 0, -2, -1, -3, -2
1503614553267,-1, -4, -3, -2, -3, -2, -1, 0
1503614553289,-2, 3, 3, -1, 2, 0, -1, 0
1503614553305,0, -1, -3, 0, 0, -2, 0, -2
1503614553327,1, 6, -1, -3, -3, 0, -1, -1
1503614553349,-2, -2, 2, -1, 1, 2, -3, -2
1503614553365,0, -9, -7, -3, -1, -1, 1, 0
1503614553387,1, 3, -2, 0, -2, -2, -1, 0
1503614553409,-2, 4, 1, 1, 0, -2, -1, 0
1503614553432,-2, -7, -3, -3, -2, 1, -4, -2
1503614553447,-4, 1, -1, -5, -2, 0, -1, 0
1503614553462,0, -1, 4, 2, 0, -2, -3, 1
1503614553476,-1, -6, -4, 1, 2, -4, 0, -2
1503614553499,1, 2, -2, 0, -2, 1, 0, 1
1503614553522,-3, -5, -5, -2, -2, 3, -1, -3
1503614553544,-2, -4, -1, -1, 0, -1, -3, -2
1503614553558,-1, -6, -10, -2, -2, -2, -3, 0
1503614553581,-2, -4, 0, 1, -1, -2, -1, -4
1503614553597,0, -4, -7, -4, -1, -1, -1, -4
1503614553619,-6, -9, -5, -1, 0, -1, 0, -2
1503614553641,0, 9, 9, 1, 1, 1, -2, 3
1503614553657,2, 1, 1, -1, 1, 1, 2, 2
1503614553678,-2, 5, -7, -4, -4, -3, -4, -4
1503614553701,0, 1, 1, -1, -2, 0, -1, -3
1503614553716,-1, 0, 7, 0, 1, 2, -1, -1
1503614553738,-4, -11, -9, -4, -4, -2, 2, 1
1503614553761,0, -3, -3, -3, -2, -1, -2, -3
1503614553776,2, 1, -4, 0, 1, -2, -2, 1
1503614553806,-5, -1, 2, -1, 0, 2, -3, -3
1503614553808,-1, -3, 4, 1, 1, 3, 3, 2
1503614553829,1, 1, 1, 1, 1, 1, 2, -2
1503614553859,-1, 2, 4, 7, 7, 0, 1, 2
1503614553866,-2, -6, -2, -4, -6, -3, 0, 1
1503614553890,-6, -7, -9, -7, -5, -2, -4, -5
1503614553911,-3, -9, -2, -1, 2, 2, 1, 1
1503614553927,0, -4, -5, 1, -3, 1, -1, 2
1503614553949,3, 6, 12, 12, 7, -2, -4, -5
1503614553971,-4, -5, -1, -10, -7, -2, -1, 0
1503614553987,0, 1, -1, -2, -4, 0, 1, 0
1503614554009,1, 4, 1, 1, -1, -1, 1, -2
1503614554032,-1, 2, -1, -10, -11, -2, -2, 0
1503614554046,-2, -5, -4, -3, 1, -3, -3, -2
1503614554069,0, 3, -9, -2, 0, -1, -1, -2
1503614554092,2, 8, 15, 6, 10, -3, 3, 3
1503614554106,4, 7, 12, 2, -8, -1, 0, 2
1503614554129,-2, -3, 0, 2, -1, 1, -2, -2
1503614554151,0, 2, 4, 0, 4, 1, 3, 3
1503614554168,-1, -5, -2, 1, -2, 0, -3, -3
1503614554189,3, 8, 15, 6, 2, 1, -1, 2
1503614554211,-3, -13, -8, -3, -2, -4, 0, -2
1503614554227,-3, -2, -7, -3, 4, -1, -3, -8
1503614554249,-7, -15, -10, -1, 1, 2, 0, 6
1503614554271,-3, -23, -17, -1, -1, -2, 1, -1
1503614554287,-2, -5, -9, -3, -5, -2, -2, -4
1503614554309,3, 22, 6, -4, -2, 3, 1, 1
1503614554332,2, 11, -15, -2, -3, -2, -1, -1
1503614554347,-5, -13, -15, -11, -5, -4, -3, -3
1503614554370,1, 6, 10, 3, 0, 0, -2, 0
1503614554395,-4, 0, 2, -1, -3, -2, -3, -1
1503614554414,1, -1, 4, 3, 1, 0, 0, -2
1503614554429,2, 4, 4, 0, -3, -3, 1, 2
1503614554451,-3, -18, 5, -1, 1, -2, 1, -2
1503614554474,1, -5, -10, -4, -4, -2, 1, -1
1503614554490,0, 0, -7, 0, 2, -1, -6, -18
1503614554512,-3, 0, -7, -2, -3, -2, -3, 8
1503614554534,-2, 0, 2, 2, 0, 1, 0, 3
1503614554549,-1, 2, -3, 2, -1, 0, -3, 1
1503614554573,0, 4, 5, -4, -3, -1, -2, 6
1503614554580,0, -3, -5, -2, -1, -1, 2, 0
1503614554603,-1, -2, -4, -1, -1, 1, -1, -5
1503614554625,3, 8, 7, -2, -2, -2, -1, -1
1503614554640,-6, -16, -6, -4, -5, 2, -2, -2
1503614554663,-1, -4, -3, 0, 1, -2, -4, -1
1503614554685,2, 3, 7, 4, -1, -2, -2, 0
1503614554705,2, 11, 0, -3, 2, -3, -2, -1
1503614554722,0, 6, 4, -6, -3, 1, -3, 0
1503614554745,-2, -3, -10, 0, -3, -1, -1, 1
1503614554760,-3, -7, -3, -2, -2, -3, 2, -2
1503614554782,1, 0, -21, -4, 0, 1, 0, 1
1503614554806,-3, 5, 2, -2, -4, -3, 0, -2
1503614554820,-4, -2, -1, -1, -6, -2, -4, -2
1503614554842,1, -2, 2, -2, -1, -2, -3, -3
1503614554865,3, 7, 12, 2, 1, 2, 2, 2
1503614554880,-1, -4, 1, 6, -9, 0, 1, 2
1503614554895,5, 11, -2, -3, 2, -3, -2, 0
1503614554909,-7, -12, -6, -6, -12, -1, -1, -8
1503614554932,2, 1, 2, 5, 6, -2, -2, 5
1503614554954,-1, -6, -2, 5, 8, 1, -2, -2
1503614554970,-1, -1, -1, 0, 17, 2, -1, 3
1503614554992,-2, 1, 3, -2, -7, -2, 3, 4
1503614555016,0, 4, 2, -3, -4, 1, 0, -5
1503614555032,-2, -2, -2, 3, 0, 0, -1, -4
1503614555052,0, 0, 3, 0, -2, -2, -1, 2
1503614555074,-1, 8, 0, -1, 0, -3, -5, 0
1503614555090,-3, -9, -8, -3, -3, -1, 1, -1
1503614555112,-1, -2, 4, 2, 0, 0, -1, -2
1503614555134,-2, 2, -3, -4, -5, -3, -1, -3
1503614555149,3, 3, 1, -2, -3, 1, 0, 0
1503614555172,1, -2, 1, 0, 8, -1, -1, 2
1503614555194,-1, -1, -2, -2, -5, 1, 1, 2
1503614555209,-4, -1, 3, 6, -5, 3, 1, 0
1503614555233,1, 4, 3, -3, -3, -2, 1, -4
1503614555254,-2, -1, 1, -5, -3, 3, 3, -1
1503614555271,0, 2, -4, 2, 1, -4, -3, -2
1503614555291,6, 11, 11, 3, 2, 1, 2, 1
1503614555308,2, 1, 5, 3, 3, 2, -2, 1
1503614555322,-2, 9, 2, 0, -1, -1, -1, -4
1503614555338,-1, 0, 3, 1, 3, 2, 1, 12
1503614555351,-5, -3, -12, -8, -4, -3, -1, 3
1503614555368,2, 1, 4, 0, 1, 1, 2, 5
1503614555382,-1, 3, -3, -1, -4, -3, -3, 0
1503614555405,-1, -6, -2, -3, -2, 0, 3, 3
1503614555427,-6, -10, -7, -3, 0, 0, -3, -12
1503614555444,2, 1, -3, 3, 1, 0, 0, -3
1503614555465,4, 9, 7, 3, -1, -1, -1, 2
1503614555486,-5, -8, -8, -9, -2, -4, 0, 0
1503614555504,1, -6, -3, 1, 0, 1, 1, 2
1503614555525,0, 1, 7, 2, 4, 0, -3, -2
1503614555547,2, 10, 7, 1, -2, -4, -3, -4
1503614555562,-3, -6, 2, 3, 0, -1, -2, -8
1503614555584,0, 8, 2, 1, 3, 3, 0, 0
1503614555607,3, 20, 11, 5, -1, 1, 1, 2
1503614555622,0, -14, -3, -4, -4, -3, -2, 0
1503614555645,-4, -7, -6, -5, -3, 0, 1, 0
1503614555652,12, -3, -3, -3, 0, -1, 1, 0
1503614555675,-4, 2, -3, -2, 1, 2, 2, -3
1503614555697,1, -3, 2, 3, 2, -2, 0, 2
1503614555712,-13, -11, -10, -3, -3, -1, -2, -6
1503614555736,-3, -5, -21, -4, -2, -4, -2, 7
1503614555757,-3, -7, -12, -7, -8, -2, -1, 2
1503614555765,-2, -9, 0, 2, 1, 3, 1, 5
1503614555787,0, -3, -3, -1, 0, 0, 4, 5
1503614555804,0, -3, 4, -1, -7, -3, -3, 0
1503614555825,1, 2, 7, 2, -4, -3, -3, -1
1503614555847,-1, -3, -1, 1, 0, 1, -2, -7
1503614555862,-8, 5, -3, 0, 1, 1, 1, -4
1503614555885,2, -4, -2, -3, -3, -4, -3, -2
1503614555907,1, -3, -2, -2, 2, 0, 2, 4
1503614555923,1, 9, 5, 5, 2, 1, -2, 1
1503614555951,1, -4, -5, -9, -6, -2, -1, -3
1503614555966,4, 13, 15, 8, -4, 3, 1, 3
1503614555975,-3, -1, 2, -1, -3, -2, -3, -7
1503614555997,-1, 6, -11, -1, 0, 1, 0, -1
1503614556012,-6, -24, -18, -7, 18, 3, 2, 1
1503614556034,-2, 0, 7, 4, -2, -2, -3, -2
1503614556057,-3, 14, 2, -1, -5, -1, -1, -4
1503614556073,7, 11, 14, 9, -2, 1, -3, 2
1503614556094,3, 3, 6, -1, -1, -3, -4, 1
1503614556117,2, -4, 6, 2, -4, -1, 1, 8
1503614556132,-1, 12, -6, 3, 3, 0, 0, -16
1503614556154,2, -11, -5, -4, -2, 0, 4, 13
1503614556177,-6, -21, -15, -4, -4, -2, -2, 3
1503614556192,-2, 1, 4, -6, 0, 0, -6, -5
1503614556215,24, 4, -4, -7, -6, -2, 0, 0
1503614556236,-19, -10, -2, 3, 1, 2, 2, 6
1503614556259,-1, 1, 2, -2, 2, 0, 0, -4
1503614556276,-1, 1, -4, -4, -1, -2, -1, -5
1503614556297,0, -3, -4, -5, -3, -2, 1, 2
1503614556306,0, 3, -5, -3, -1, -2, -2, -5
1503614556327,-1, 0, 1, -4, -3, -5, -6, -5
1503614556349,-1, 3, 1, -4, -3, -4, 0, 2
1503614556365,-1, -14, -8, -6, 10, 1, 1, 3
1503614556387,-7, -3, 1, -2, -7, 0, 1, 7
1503614556410,-2, -3, -3, -3, -4, 2, 0, -8
1503614556425,1, 0, 3, 7, -3, -3, -5, -3
1503614556447,-2, 1, -9, -3, 0, -5, -1, -5
1503614556469,8, -7, 8, 3, -1, -1, 2, 5
1503614556485,-15, 2, 7, 2, -2, 2, 2, 10
1503614556509,-1, 0, -6, -6, -2, -2, -3, -13
1503614556529,3, 5, -1, 0, 1, 1, 2, 0
1503614556545,-3, 6, 10, 5, 4, 3, 0, -11
1503614556577,-3, 0, 5, 3, 3, 2, 1, 2
1503614556596,-9, 2, -3, -2, -1, -1, 0, -6
1503614556619,5, 7, 1, 1, 2, 1, 1, -2
1503614556634,-3, -6, -14, -4, -5, -3, -6, -4
1503614556657,-3, -3, 7, 2, 2, 1, 1, 4
1503614556665,-3, -2, -3, -1, -3, 0, 0, 0
1503614556687,-3, -1, 0, 0, 1, -1, -1, -4
1503614556711,1, -7, -5, -2, 2, -1, 0, -2
1503614556724,-4, -3, 3, 0, -2, 0, -3, -8
1503614556740,0, 2, -5, -2, -2, 0, -3, -20
1503614556754,1, -3, -3, -1, -2, -2, -1, 6
1503614556777,-4, -5, -2, -1, -2, -1, -2, 1
1503614556799,-13, -12, -6, -1, -1, -3, -4, 1
1503614556814,-11, -10, -5, 0, 0, 0, -1, -4
1503614556836,2, 4, 10, 2, 1, 2, 4, 6
1503614556859,3, 17, 10, 3, 1, 1, -4, -4
1503614556874,3, -4, -9, -4, -4, 0, 0, 2
1503614556896,-1, 0, -4, -1, -3, 1, 0, -7
1503614556920,2, 12, 7, 4, 1, -2, -1, 1
1503614556934,12, 2, 0, -4, -3, -6, -1, -6
1503614556956,-5, 0, -5, 1, 3, 2, 2, -7
1503614556979,-10, -8, 0, -4, -3, 0, -1, 9
1503614556994,-1, -8, -3, -3, 0, -3, -2, -2
1503614557017,-5, 0, -1, 1, 0, 0, 1, 1
1503614557039,1, -6, -11, -2, -1, -5, -5, -1
1503614557054,2, -1, -1, -4, -4, -2, -1, 6
1503614557078,5, 8, 12, 5, 3, 2, -1, -4
1503614557099,9, 8, 2, -3, -6, 0, 0, 4
1503614557114,5, 13, 6, 1, 0, -3, 2, 0
1503614557137,-6, -3, -3, -3, 1, -1, -1, -2
1503614557159,0, -14, -5, 0, -3, -2, -4, 0
1503614557181,-5, -6, 0, 0, 2, 0, -1, -1
1503614557196,-9, -6, -3, -2, 0, 0, 0, -2
1503614557219,2, 3, 3, 1, 2, 0, 1, 3
1503614557241,1, 1, -5, 0, -3, 0, 1, 2
1503614557257,4, -9, -7, -1, 2, -2, -4, -3
1503614557281,-6, -7, -3, 2, 3, -2, -1, -4
1503614557301,-5, -12, -11, -4, -3, 0, 1, -8
1503614557317,-5, -1, 1, -1, 4, -2, 0, 4
1503614557338,8, 15, -2, -3, -2, -1, -1, 5
1503614557361,-12, -14, -5, -1, -3, -2, -3, -6
1503614557377,-1, 5, 0, -2, -5, -1, -1, 3
1503614557392,-7, -8, -7, -2, 1, -2, -1, 1
1503614557415,-10, -11, -9, -4, -1, -1, -3, -8
1503614557429,-3, -3, -2, 0, 1, -2, 0, -2
1503614557452,0, 2, 4, 0, 1, 1, -1, -1
1503614557467,-2, 7, 6, 4, 2, -3, -2, 2
1503614557489,3, -5, 3, 0, 0, 0, 1, -2
1503614557519,-5, -8, -5, -2, -1, 0, 1, -3
1503614557527,6, 12, -5, 3, -1, -3, -2, 0
1503614557549,-9, 23, 22, 1, 1, -2, 1, 2
1503614557571,3, 27, 20, 2, -1, 1, 1, 8
1503614557587,25, 37, -13, -3, 0, 5, -1, -3
1503614557609,-6, -26, -21, -2, -4, -2, -5, -5
1503614557631,-6, -34, -18, -7, -3, -5, -5, -7
1503614557650,-2, -24, -17, -2, 0, -1, 3, 13
1503614557669,-4, -6, -2, -2, -4, -1, -1, 0
1503614557677,-8, -6, -6, -4, -4, -2, 1, 5
1503614557699,9, 22, 1, 2, 1, 1, 1, -3
1503614557721,5, 12, 6, 1, 0, 0, 1, -4
1503614557729,-2, 5, 2, -3, 0, -2, -4, -12
1503614557752,9, 10, 17, 2, 2, -2, 1, -9
1503614557767,-4, -6, -1, -1, -1, 0, 0, 3
1503614557789,-3, -3, 3, 0, -2, -1, 0, 8
1503614557811,-3, -3, -3, -1, 11, 0, 1, -3
1503614557828,0, -6, -4, -2, -8, 0, -1, 0
1503614557851,2, 2, -2, 2, -3, 10, 1, -2
1503614557871,-2, -1, 1, -2, -3, -3, -3, -14
1503614557887,0, 0, 2, 1, 0, -4, -4, 1
1503614557909,5, -1, 3, 2, 0, -1, 0, 2
1503614557931,-2, -1, 4, -1, 0, 1, -2, -1
1503614557939,0, 8, 8, 0, 0, 1, -1, -2
1503614557961,-3, -22, -16, -4, -2, 0, -1, -4
1503614557976,5, -3, 1, -2, -1, -1, 0, -3
1503614557999,2, 25, 9, 6, 1, -2, 0, -8
1503614558022,3, 4, 9, 0, 0, 1, 0, 10
1503614558037,-4, -4, -8, 0, -1, -2, 2, -3
1503614558060,-5, 6, 2, 0, 1, 0, -3, 2
1503614558081,-1, -4, -2, -1, -5, -2, -2, 0
1503614558103,-3, -17, -13, -4, -1, -4, 0, -2
1503614558119,-2, 1, 11, -2, 2, 4, 1, 1
1503614558149,2, 2, -1, 1, -1, -3, -3, 0
1503614558171,-4, -4, -3, -2, 0, -5, 0, -4
1503614558195,0, 2, -2, 0, 1, -1, -2, 2
1503614558209,-2, -4, -2, -1, -4, -1, -1, 2
1503614558231,-2, 2, 7, 2, 1, 1, -2, -2
1503614558254,2, 7, 8, 3, 2, -1, -1, 4
1503614558261,-4, -4, -8, -2, -1, 0, -3, 1
1503614558283,-3, -5, -5, 0, -1, 0, 0, -2
1503614558299,2, -9, -1, 1, 0, -1, 1, 7
1503614558322,0, 13, 3, 0, 0, -1, -1, -2
1503614558343,-9, -8, -8, -4, -3, 1, -5, -8
1503614558360,-3, 0, 3, 0, 0, 0, 0, -5
1503614558381,-2, -4, 4, 1, 0, -1, -1, 2
1503614558403,5, 0, -2, 1, 0, 0, 2, 7
1503614558422,-3, -5, -4, -3, 1, 0, -2, -5
1503614558441,-2, -3, 3, 3, -1, -2, -3, 3
1503614558464,3, -1, 7, 1, -1, 0, -1, -1
1503614558479,-3, 0, -11, -3, -2, 1, 0, -3
1503614558501,-2, 1, 1, -2, -1, -1, 0, 1
1503614558523,9, 3, -1, -1, -1, 0, 2, 15
1503614558539,4, 8, 4, 1, -1, -4, 4, 6
1503614558561,-3, 21, 9, 1, -5, -3, -5, -13
1503614558583,-7, -19, -13, -6, -1, -1, -2, -4
1503614558595,4, 10, 3, 3, -1, 3, 1, 5
1503614558614,-2, -3, -2, -1, -3, -2, -2, -2
1503614558629,-2, 1, -2, 3, 1, -3, 1, 1
1503614558651,0, -3, 0, -3, 0, 0, -2, -2
1503614558674,-4, -3, -10, -3, -1, -1, -1, 2
1503614558691,-3, -6, -7, -3, -3, -3, -2, 7
1503614558711,-4, 11, -6, -3, -2, -1, -1, -14
1503614558734,-1, -2, 2, 2, -1, 1, 0, -8
1503614558749,1, -1, 0, -1, 0, 2, 0, 2
1503614558771,-2, 7, 2, 0, 2, 0, -3, 2
1503614558794,1, -9, -3, 0, -2, 2, 2, 16
1503614558809,-2, -5, 2, 0, 1, -4, -3, -7
1503614558835,-1, 0, 7, 1, -1, -2, -2, -2
1503614558854,5, -1, 3, -1, -2, -1, 1, 2
1503614558869,-1, -6, -9, -4, 1, 1, 0, 0
1503614558892,-3, 4, 2, 1, -1, -2, -1, -4
1503614558930,-3, -7, -3, -2, -1, -3, -3, 4
1503614558943,-2, 2, 7, 0, -2, 0, 1, -1
1503614558959,2, 0, 1, 0, -2, 1, -1, 3
1503614558981,-23, -6, -4, -2, -2, 2, 1, -3
1503614559003,0, 0, 6, 0, 1, -3, 3, -1
1503614559026,6, 0, -1, -1, -2, -1, 0, 3
1503614559044,1, 7, 14, 1, -1, 2, -5, -4
1503614559060,0, -6, -13, -4, -1, -2, -3, 5
1503614559072,-7, -3, 1, 1, 12, -3, -6, -37
1503614559096,-2, 4, 3, 0, -6, 2, 2, -4
1503614559118,0, 4, -2, -2, -6, 2, 2, 1
1503614559132,8, 2, 2, 1, 0, 2, 1, 14
1503614559154,-1, -1, 2, -2, -3, 0, 2, 4
1503614559177,-10, -7, -2, -1, -3, -3, -2, -8
1503614559192,-2, -6, -8, -2, 0, -2, 0, 3
1503614559214,2, -2, -1, 0, 1, 1, 0, 8
1503614559237,1, 0, -1, -3, 0, -2, -3, -6
1503614559251,-3, 0, 2, 0, -1, -1, -2, -3
1503614559274,-15, 1, 7, 3, -1, -2, 1, -6
1503614559297,-1, -3, -9, -2, -2, 2, -4, -14
1503614559311,-2, 0, 2, -1, -2, -2, -4, -12
1503614559331,3, 1, 4, 1, 2, -1, -3, -4
1503614559350,4, 2, 1, -3, 0, -4, -2, -5
1503614559366,0, -3, 2, 1, -1, 1, 5, 8
1503614559399,2, -10, 0, -2, -2, -1, -1, 8
1503614559417,12, 3, 6, 0, 1, -2, 1, 13
1503614559432,0, -8, -4, -3, -1, -1, 2, 6
1503614559454,0, -3, -2, -4, -2, 1, 1, 6
1503614559476,-8, 18, 5, 3, 2, 1, 0, -12
1503614559491,-2, -13, -9, -2, -5, 0, -1, -1
1503614559514,2, -5, 8, -1, 0, -1, -2, 7
1503614559537,-2, 8, 5, -1, -3, -4, -1, -6
1503614559551,-2, 2, 5, 2, 3, 1, -3, -4
1503614559574,1, -4, -2, -2, -2, -4, 0, 1
1503614559602,-4, -11, -7, -4, 0, 1, -1, -1
1503614559611,4, -5, -4, 1, 0, -1, -3, -1
1503614559634,3, 13, 3, 1, 1, -1, -4, -10
1503614559656,0, -9, -1, -1, -1, -2, 1, 9
1503614559672,1, -2, 0, 0, -1, 0, 1, -3
1503614559694,-4, -8, -10, -3, -1, -3, -5, -5
1503614559716,2, 11, 9, 0, 0, 0, 2, 1
1503614559731,11, 10, 21, 5, -2, 0, 2, 22
1503614559747,-7, -5, 6, 3, -1, -1, -4, -9
1503614559765,-6, -1, -2, -2, -3, -3, -3, -9
1503614559784,11, 16, 16, 3, 1, -2, 2, 2
1503614559807,-7, -22, -15, -6, -2, 0, -4, -7
1503614559829,5, 0, 4, -1, -1, -3, -1, 11
1503614559844,-6, 6, -9, -2, 0, 0, 1, 5
1503614559867,-4, -7, -11, -2, 1, 1, 0, 3
1503614559889,6, 13, 9, 3, -1, 1, 1, 0
1503614559904,6, 16, 2, 0, 3, -3, 0, 22
1503614559927,-7, -14, -4, 0, -2, 0, -1, -12
1503614559949,-6, -14, -3, -2, 0, -3, -4, -18
1503614559957,6, 15, 9, 4, 2, 5, 5, 14
1503614559979,-9, 0, -4, -1, -1, -2, -2, -13
1503614559995,-2, 1, -1, 1, 3, -1, 1, -1
1503614560009,-1, 0, 3, 0, -1, 0, -3, -8
1503614560024,0, -7, 3, -3, -1, 0, 2, 1
1503614560047,-2, 9, 6, 0, -4, -3, -4, -12
1503614560069,-6, -3, -4, 3, -1, 1, -1, -15
1503614560084,-5, -14, -12, -4, 0, 0, -2, -5
1503614560108,5, 6, 4, 2, 1, -1, -3, 1
1503614560129,-1, -7, -6, -2, -2, 1, -1, 3
1503614560144,2, 3, -1, -3, 1, -2, 0, -6
1503614560168,-2, -6, -2, -4, -1, -1, 1, 9
1503614560189,-2, 3, 3, -3, -3, -2, -1, -4
1503614560212,2, 24, 8, 4, -1, -1, -2, 4
1503614560236,5, 1, 5, 3, 2, 1, 2, 21
1503614560257,-4, -3, -3, -2, -3, 0, -4, -14
1503614560279,7, 7, -7, -1, 0, -1, 0, -1
1503614560294,0, -19, -12, -3, -5, -1, 2, 11
1503614560316,1, 14, 14, 3, 8, 1, 1, -4
1503614560339,-2, -1, 0, -2, -7, 1, -4, -7
1503614560354,3, 14, 6, 1, -3, 1, 1, -1
1503614560377,-1, 3, -4, -5, -1, -5, -5, -8
1503614560399,2, -11, -5, 1, 1, 0, 4, 2
1503614560414,-5, -3, 1, 0, -3, -2, -4, -10
1503614560437,-1, 0, -2, -2, -3, 1, -1, 3
1503614560459,5, 2, 0, -1, 1, -2, 0, 19
1503614560474,-3, 4, -2, -2, 0, 0, -1, -1
1503614560497,-5, -11, -7, -1, 1, -1, 1, -5
1503614560519,-4, 4, 8, 0, 1, -1, -5, -25
1503614560534,-5, 0, 3, 4, -1, -1, 1, -2
1503614560556,4, -4, -4, -1, -3, -1, -2, 0
1503614560580,0, 6, 1, 1, -1, 1, -1, -4
1503614560594,0, 1, 2, 0, 1, -3, -2, -6
1503614560616,-7, -4, -4, -1, -1, 2, -2, -9
1503614560639,1, -1, 4, 1, 3, 1, 4, 8
1503614560654,-2, -6, -4, -2, -2, -2, -2, -2
1503614560676,0, -1, -4, -5, -4, -1, 1, 17
1503614560699,-4, 3, 0, 1, 1, -1, 1, -8
1503614560714,1, 0, -3, -3, -2, -1, 1, 1
1503614560738,-2, 5, 9, 0, -1, 0, -3, 0
1503614560759,-3, -12, -8, -2, -1, 0, 0, 0
1503614560777,-1, -5, -4, -1, 0, 0, -2, 4
1503614560796,1, -5, -5, -1, -1, -3, 1, -4
1503614560819,8, 2, -1, 0, -2, 1, 2, 8
1503614560834,4, 3, 2, 1, 0, 0, 1, 18
1503614560857,-7, 6, 4, -2, 1, -1, -3, -16
1503614560880,-5, -5, -6, -1, -1, 0, -4, -13
1503614560901,-5, -6, -2, -3, -2, -2, 0, -4
1503614560916,0, -1, -3, -1, -3, -3, -3, -9
1503614560943,0, 4, 4, 0, -1, -2, -3, -11
1503614560962,3, 9, 14, 4, 4, 3, 3, 12
1503614560977,3, 11, 11, -2, -3, 0, -2, 9
1503614560999,4, -7, -18, -3, -4, 0, 0, -8
1503614561021,-4, -14, -13, -3, -2, -2, 0, 1
1503614561036,0, 1, -5, -2, -2, 0, 0, 22
1503614561066,-5, -7, -1, 4, 3, 1, 0, -3
1503614561082,0, -1, 1, -1, -2, 1, 2, -1
1503614561098,0, 2, 3, -2, 3, -2, -2, -14
1503614561119,3, 9, 6, -1, 0, 1, -3, -3
1503614561142,-3, 0, 0, -2, -2, 0, -2, -2
1503614561156,1, -6, -9, -3, 0, -5, 0, 16
1503614561179,1, 3, 4, -4, -4, -4, -1, -15
1503614561201,-3, -5, 1, 1, 1, 1, -1, 3
1503614561217,-5, 2, 1, 4, 1, 1, 0, -4
1503614561241,1, -9, -4, -2, -2, -2, -2, -5
1503614561262,-1, -1, -11, -3, 0, 0, -3, 0
1503614561277,-3, -10, -9, -4, 0, -3, 0, 8
1503614561299,-2, -4, 2, 2, 1, -2, 1, 1
1503614561321,-1, 3, 0, 0, -2, 2, 1, 4
1503614561336,-5, 0, 5, 1, -6, 1, -2, 3
1503614561359,3, -3, -1, 0, 4, 1, 0, 7
1503614561382,-3, 1, 3, 1, 0, -3, -1, -6
1503614561396,0, 8, -3, -3, 0, 1, -1, -10
1503614561419,-4, 0, -3, -2, -2, 0, -3, -7
1503614561443,4, 3, 7, 3, 0, -2, 1, 3
1503614561456,-2, -4, -3, -3, -3, -3, -2, 5
1503614561487,-5, -12, -4, -1, -3, -1, -2, 6
1503614561489,4, -2, -6, -3, 1, 0, 2, 12
1503614561515,-4, 13, 9, 1, -3, 0, 1, 2
1503614561531,-5, -9, -4, -1, -4, 1, -1, -11
1503614561548,6, 3, 4, -1, 1, 0, -1, 4
1503614561569,-1, 8, 4, 1, 0, 0, -1, 1
1503614561591,-13, -12, -8, 0, -2, -5, -3, 2
1503614561607,-2, 1, 2, 1, -6, 2, -4, -4
1503614561629,2, -2, -5, -4, 5, -2, -3, -4
1503614561651,-2, -2, -5, -1, 3, -3, 0, -4
1503614561667,0, 4, 3, 0, -2, 0, -1, -3
1503614561689,5, 0, -3, -2, 1, 1, 3, 9
1503614561712,-1, -13, -6, -1, 0, -1, 1, 2
1503614561727,2, 3, 6, 1, 0, -1, 2, 6
1503614561749,-4, 3, 4, 2, -1, 1, -2, -7
1503614561757,-3, 0, -1, -2, -1, 0, 1, -2
1503614561779,-1, -3, 0, 0, -1, 3, -1, 13
1503614561801,-3, 3, 10, 1, 0, 0, -2, -14
1503614561823,-7, -5, -7, -3, -2, 1, -2, -13
1503614561839,5, 1, -4, -1, -3, -3, 0, 5
1503614561861,-4, -2, 6, 3, -1, -1, -3, -10
1503614561883,0, -5, -4, 0, 1, 1, 0, -4
1503614561899,0, -4, -7, -3, -2, -2, 1, -2
1503614561921,-3, -3, -3, -1, -1, -1, -2, -2
1503614561943,4, 5, 3, -1, 1, 1, 2, 8
1503614561959,-2, 3, 5, -1, 9, -3, 1, 1
1503614561982,-5, -9, -8, -1, -10, -3, -2, 9
1503614562003,1, 5, 4, 0, -2, -2, -1, -10
1503614562019,-1, -6, -3, -2, -3, -2, -1, 1
1503614562041,4, 8, 7, -1, -3, -3, -2, -3
1503614562063,-3, -4, -3, 1, -1, -1, 0, 0
1503614562080,-2, 3, 4, 2, 3, 0, -4, -11
1503614562101,-7, -9, -6, 0, 2, 2, 1, 3
1503614562123,-3, -1, 8, 1, -1, -2, -1, -4
1503614562139,-2, -6, -3, -1, -3, -1, -3, -6
1503614562161,0, -5, -6, -3, -1, -1, 2, 4
1503614562184,7, -1, -6, -3, -4, 0, -1, -1
1503614562199,0, -1, -4, -3, -1, 0, 4, 18
1503614562222,7, 17, 6, 0, -1, 0, 1, -17
1503614562243,-2, -6, 1, 1, 1, 1, -3, -11
1503614562259,-3, -9, -3, 0, 1, 0, -1, -2
1503614562282,-3, 2, -6, -3, -2, -2, -1, 3
1503614562303,0, -1, -2, 0, -1, -4, -3, 2
1503614562319,1, -2, -3, -1, -4, -1, 2, 6
1503614562341,-3, 2, 4, -1, 0, -2, -7, -8
1503614562363,0, -7, -4, -1, 0, 1, -1, 3
1503614562379,2, 0, -3, -3, -2, 1, 0, 0
1503614562401,3, -1, 4, 2, 2, 2, 2, 9
1503614562424,-1, 1, 0, 1, -2, -3, -2, -11
1503614562439,-5, -6, -8, -4, -4, -2, -4, 1
1503614562461,1, -3, -2, -1, -1, 3, 3, 14
1503614562484,-2, -2, 2, 3, 0, 0, 1, -2
1503614562499,2, 4, 7, -1, -3, -3, -1, -7
1503614562521,-7, -5, -3, -2, 3, -1, -2, -7
1503614562543,7, 10, 0, 2, 0, -2, 1, 12
1503614562559,-7, -8, -1, -1, 0, -2, -3, -27
1503614562574,1, 1, 1, -2, -1, 0, 1, -9
1503614562589,-3, -2, 0, 2, 0, -2, -3, -2
1503614562611,8, -1, -1, -3, -2, -5, -4, -3
1503614562634,-8, -8, -8, -2, -1, 3, 0, -9
1503614562652,-3, 7, -2, -3, -1, -1, -4, -6
1503614562671,-1, -6, 3, 2, 2, 1, 0, 3
1503614562694,-1, 4, 3, 1, 0, -1, 0, 1
1503614562709,-1, -5, -2, -3, -3, -1, 1, 5
1503614562731,4, 6, 3, 0, 1, -1, -1, 2
1503614562761,2, -2, -2, 0, -4, -4, 1, -5
1503614562786,-2, 1, 8, 3, -1, 0, -3, 2
1503614562792,4, 2, -4, -3, 0, -1, 2, 2
1503614562814,-3, -2, 2, 1, -3, -1, -1, -6
1503614562836,-1, -2, -4, -5, -3, 1, 1, 11
1503614562853,-4, 0, -3, -4, -5, 0, -2, -6
1503614562874,0, 5, 1, 2, 62, 1, -1, -9
1503614562896,0, 13, 4, 1, -33, 1, -1, -1
1503614562911,2, -4, -1, 0, -20, -4, -3, 4
1503614562934,-3, -7, -1, -2, -1, 2, -1, -1
1503614562956,0, -2, -2, 1, 1, 0, -1, -1
1503614562971,9, 7, 6, 1, -3, -2, 1, 9
1503614562994,-6, -13, -11, -5, -4, -3, -3, -6
1503614563016,0, 3, 9, 2, 1, 1, 1, 1
1503614563031,3, 0, -3, -1, -1, -4, -3, -1
1503614563054,-3, -2, -5, -1, -3, -1, 0, 2
1503614563076,-5, -8, 1, 0, 0, 1, 1, -1
1503614563092,-4, 2, 1, 0, 0, 1, -4, -10
1503614563114,-3, -6, -8, -2, -4, -1, 0, -1
1503614563137,2, 4, 0, 0, -1, 0, -1, -1
1503614563151,8, 38, 25, 5, 2, 1, 2, 3
1503614563174,0, 5, -3, -2, -3, 1, -1, 0
1503614563197,-4, -11, -9, -4, -2, -2, -2, -1
1503614563211,-1, -1, 4, 1, 3, 1, 1, 4
1503614563234,-5, -10, -5, -2, -2, -2, 3, 1
1503614563262,-4, -13, -12, -2, 0, -1, 0, -1
1503614563271,5, -9, -11, -4, -6, -2, 0, 13
1503614563286,3, 14, 8, -2, -1, -2, -5, -3
1503614563301,-2, -5, -4, 0, -1, 0, 0, 2
1503614563324,-8, 6, 5, 1, 0, 1, -1, -14
1503614563346,-5, -15, -9, 1, -1, -1, -5, -2
1503614563363,-3, -13, -6, -3, 1, -1, 1, 11
1503614563383,0, 2, -2, 1, 0, -1, 1, -1
1503614563406,4, 11, 12, 1, 0, 0, 2, -12
1503614563423,2, -4, 2, -1, 4, 1, 1, 3
1503614563437,-1, -7, 1, 4, 0, -2, -2, -6
1503614563451,-2, -6, -7, -3, -2, 1, 1, 6
1503614563474,-6, -24, -11, -1, -3, -4, -4, -15
1503614563497,-9, -29, -22, -4, -2, -1, -5, -5
1503614563511,-7, -6, 2, -7, -4, -1, -4, -8
1503614563534,29, 71, 51, 14, 7, 4, 7, 13
1503614563558,-11, -56, -45, -16, -10, -7, -7, -8
1503614563571,1, 7, 10, 1, -1, 0, 2, 1
1503614563594,15, 24, 10, 1, -1, 0, 1, 6
1503614563616,-11, -12, -9, -1, 0, -1, 1, 4
1503614563633,-9, -20, -12, -1, -2, 0, -1, -9
1503614563646,6, 19, -1, -3, 0, 1, 2, 2
1503614563662,-4, -10, -3, -1, 0, -3, -2, -8
1503614563684,6, -6, -1, -2, 1, 4, 0, -1
1503614563705,4, -1, -1, 2, 0, 1, 2, 16
1503614563728,-4, -1, 0, 0, -3, -4, -2, -7
1503614563744,-8, 4, 3, -1, 1, 0, -2, -6
1503614563766,10, 6, 5, 1, 1, 2, 1, 11
1503614563788,-3, -3, -1, 0, -1, -1, 2, 5
1503614563804,-4, -14, -12, -3, -3, -2, -1, -18
1503614563826,-6, 1, -1, -2, -3, 0, -3, -9
1503614563848,1, 9, 7, 0, -2, -1, -2, 2
1503614563864,-1, -1, -2, -2, -1, -2, -2, 0
1503614563894,23, -7, -8, -4, -3, -5, -2, 12
1503614563916,-3, 3, 4, 3, 2, 2, -2, -2
1503614563939,-15, -5, -3, -3, -5, -1, 0, 5
1503614563954,-7, 0, 1, 1, -2, 0, -3, 4
1503614563976,11, 0, -7, -2, 1, -1, 2, 2
1503614563999,-5, -3, 2, 0, 2, -1, 0, 0
1503614564006,26, 10, 2, 1, -1, -1, 5, 37
1503614564014,-12, -3, -2, -1, -2, -1, -1, -4
1503614564037,4, 6, -4, 0, 1, -1, -2, -1
1503614564051,10, 4, 4, -1, -1, -1, 1, 4
1503614564073,-19, -5, -10, -3, -2, -3, -1, -1
1503614564088,25, 8, 9, 2, -2, 0, -6, -23
1503614564104,-14, -7, -9, -3, -1, -3, -1, -11
1503614564126,0, -1, -4, 0, -1, 0, -2, -6
1503614564148,0, -2, -7, -3, -4, 0, -6, -24
1503614564164,9, 17, 18, 3, 0, 1, 0, -4
1503614564186,-34, -11, -6, -1, 0, 3, -1, 3
1503614564208,-18, -11, -3, -3, -1, -4, -1, 6
1503614564224,26, 4, -3, 1, 3, -2, 2, 6
1503614564245,0, -7, -8, -3, -1, -4, -1, 4
1503614564270,4, -3, -3, 2, -3, -1, 0, 6
1503614564292,33, 10, 9, 1, -5, -1, 5, 24
1503614564307,-14, -13, -10, -1, 0, -1, -3, -14
1503614564331,11, 0, -9, -1, 2, -1, 0, 18
1503614564352,3, 2, 4, -7, -11, -1, -2, -3
1503614564368,12, 6, 6, 16, 28, 3, 3, -6
1503614564389,25, 0, -4, -6, -10, -4, -6, -18
1503614564412,-32, -8, 16, 0, -4, -3, 1, 3
1503614564427,11, -2, -5, -2, -2, 1, 1, 1
1503614564435,-22, -15, -13, -4, -1, -2, 0, 10
1503614564457,17, 6, -1, 2, -1, -1, 2, 6
1503614564479,9, 6, 4, 1, 3, 1, -1, 2
1503614564493,-2, 0, 2, 6, 0, 0, -3, -16
1503614564517,26, 4, -3, -2, -2, -4, 1, 1
1503614564540,-19, -10, -9, -4, -3, 0, -3, 1
1503614564554,6, 13, 6, 2, -1, -4, -3, -15
1503614564576,0, -2, -2, 5, 15, 2, 3, 5
1503614564599,15, -1, 1, -3, -4, 0, 1, 10
1503614564621,5, 1, 0, -2, -5, -2, -1, -4
1503614564637,-13, -8, -2, -5, -7, -3, -5, -6
1503614564659,0, 0, 1, 2, 1, -2, 1, 11
1503614564681,2, 1, 0, -1, -2, -2, -6, -10
1503614564698,-11, 1, 1, -3, -4, -3, -7, -21
1503614564712,9, 5, 1, 1, 5, 0, 0, 10
1503614564727,10, 3, -1, -2, -5, -3, -7, -19
1503614564749,-4, 5, 7, 1, -2, 0, -4, -10
1503614564772,11, 14, -2, -2, -1, 0, 2, 11
1503614564787,3, -11, -8, -3, -4, -3, 1, 5
1503614564809,-29, -20, -11, -4, -2, 2, -1, -5
1503614564833,10, 2, 2, -3, 1, -2, 2, 5
1503614564847,-4, -9, -4, 0, -2, -2, 1, -11
1503614564871,3, -1, 0, 0, -1, -2, -2, -5
1503614564892,-13, -6, -2, -4, -2, -2, -3, 0
1503614564901,-5, 0, 2, -1, -3, -1, -6, -22
1503614564921,5, 3, -3, -1, 1, 0, -1, -6
1503614564938,21, -1, 1, -2, 1, 1, 5, 17
1503614564959,-4, -3, -7, -3, -2, -2, -4, -10
1503614564981,-11, -14, -4, -5, -3, -3, -1, 1
1503614564996,-23, -9, -5, -3, 1, -3, -6, -17
1503614565019,4, 1, 1, 1, -1, 0, 0, 20
1503614565042,-11, 0, 1, -1, -2, 0, -1, -17
1503614565057,2, -1, -3, 0, -1, -2, -1, 8
1503614565079,10, 1, 4, -3, -2, 0, -6, -15
1503614565102,-2, -6, -6, 0, -4, -2, -3, -9
1503614565116,12, 3, 0, -1, 2, 2, 3, 33
1503614565132,4, 0, -1, 0, -1, 0, 1, 10
1503614565147,1, -5, 0, -1, 1, 0, 1, 6
1503614565170,-8, -4, -2, 4, 1, 0, -3, -22
1503614565192,-15, 1, 9, 4, 0, -2, -5, -12
1503614565207,1, 2, -3, -4, -2, -1, 0, 2
1503614565229,7, -4, -2, -1, -1, 2, -3, 12
1503614565252,-13, 8, -1, -3, -2, 1, 0, 1
1503614565267,-7, -5, -6, -4, 0, 1, 0, -6
1503614565289,6, 4, 13, 5, 2, 0, 2, 6
1503614565312,11, -7, -6, 0, 0, 0, -1, 9
1503614565337,0, 0, 6, -4, -4, -6, -3, 0
1503614565357,-5, 2, 3, 1, -1, -3, -4, -7
1503614565379,-6, -10, -2, 0, -3, 1, -4, -29
1503614565402,-10, -9, -5, -2, -4, -3, -5, -21
1503614565416,19, 12, 5, 2, 2, 1, 1, 5
1503614565439,2, 8, 4, 0, -2, -1, 2, 14
1503614565461,-2, -3, -3, -1, -2, -2, -2, -4
1503614565477,0, 6, 1, -1, 1, -1, -4, 6
1503614565499,9, -1, 0, 0, 2, 1, 6, 19
1503614565521,-6, -2, 1, 1, 0, 1, -1, 1
1503614565537,-6, -4, -7, -1, 0, -2, 0, 6
1503614565552,-1, -14, -8, -1, 1, 0, -1, -1
1503614565574,22, 14, 4, 1, 4, -4, 4, 26
1503614565589,0, -8, -6, -2, 5, 1, -1, -3
1503614565612,-13, 3, 1, 0, -6, -1, -1, -17
1503614565633,28, -1, -9, -2, -7, 0, 2, 35
1503614565641,6, -3, -4, -3, -4, 0, -4, 6
1503614565664,0, 1, -1, 4, 1, -4, -2, -10
1503614565679,-2, -6, -1, -1, 2, -2, -3, -7
1503614565702,-11, 5, 6, 0, 1, -2, -4, -13
1503614565724,-8, -2, -2, -1, -2, -1, -3, 2
1503614565741,5, 4, -11, -1, -3, 1, 1, 20
1503614565761,3, -7, -7, -6, -3, -1, -1, 7
1503614565784,-7, 4, 4, 0, 2, -1, 6, 4
1503614565799,6, 4, 7, 0, -1, -1, -7, -16
1503614565822,-4, -11, -5, -4, -3, -4, -7, -19
1503614565844,-19, -11, -2, -4, -3, -1, -1, -10
1503614565859,-28, -4, 0, -1, -3, 1, -3, 0
1503614565882,29, 8, 1, 0, -1, -1, -4, -14
1503614565904,11, 4, 4, 4, 0, -3, -2, 0
1503614565919,20, 12, 7, 3, 2, 2, 3, 26
1503614565942,2, -14, -7, -2, -2, 0, 0, -2
1503614565971,-16, 3, 5, 0, 1, 3, 0, -2
1503614565979,4, 5, 3, 4, 0, 0, 8, 20
1503614566001,7, -11, -7, -2, -1, -4, 4, 37
1503614566024,1, 0, -3, 1, 1, -1, -2, 6
1503614566039,-11, -11, -10, -4, -1, -1, 2, -18
1503614566061,8, 12, 13, 3, 2, 2, 6, 45
1503614566084,24, -1, -2, -3, -7, -1, -1, -16
1503614566099,-16, -4, -4, 0, -1, -1, -2, 4
1503614566123,-5, 24, 10, -1, -4, 0, 5, -9
1503614566144,-2, 2, -5, -5, -1, -4, -8, -30
1503614566159,-15, -5, 1, 0, 0, 0, -2, -16
1503614566181,17, -11, -3, 1, -4, 0, -4, 4
1503614566204,1, 3, -4, -2, -1, -4, -3, 35
1503614566219,-2, -3, 2, 1, 4, 0, -1, -14
1503614566243,-17, -13, -2, 1, -2, 3, -2, -23
1503614566264,2, -3, -6, 0, 0, -2, -1, -11
1503614566279,7, 32, 10, 5, 3, 0, 1, 6
1503614566301,16, -15, -7, -5, -2, -3, -8, 7
1503614566324,17, 11, 5, -1, -4, -3, 5, 11
1503614566339,-16, -11, -10, -7, -1, -1, 0, -4
1503614566361,-16, -2, -4, 0, -2, 0, -1, -6
1503614566384,-3, -17, -8, -2, -1, 0, -1, -3
1503614566399,-11, -17, -12, -8, -3, -4, 0, -1
1503614566421,6, 1, 3, 5, 2, 2, -1, -5
1503614566444,-9, -1, 3, 1, -1, 1, -5, -6
1503614566458,-1, -11, -4, -3, -2, -5, -2, -4
1503614566482,-4, -10, -5, 0, -2, -2, -9, -23
1503614566497,6, 0, -2, -4, -3, -1, 3, 8
1503614566514,-12, -8, -5, -1, -1, -3, -6, -5
1503614566533,6, 0, -3, -2, -1, -1, 3, 26
1503614566556,-3, -14, -7, -3, -1, -4, -4, -26
1503614566572,2, -2, 1, -3, -2, 0, -2, -4
1503614566593,17, 9, 2, -2, -4, 0, -2, 2
1503614566617,-17, 8, 3, 3, 0, 1, 5, 13
1503614566632,12, 2, 0, 1, 0, -3, 2, 35
1503614566654,3, -8, 3, 0, 1, 1, -2, -4
1503614566676,-5, 4, -3, -3, -5, -4, -3, -20
1503614566692,-6, -1, -1, 0, 0, 1, -2, -6
1503614566714,7, 1, -1, 1, 0, 1, 1, 5
1503614566736,-2, 4, 3, -2, -5, -2, -3, -7
1503614566752,5, 9, 3, 0, 0, -2, -3, 5
1503614566774,1, 0, 1, -2, -3, -2, 0, -6
1503614566796,4, -6, -4, -6, -5, -4, -2, 13
1503614566814,-4, -5, -2, -1, 3, 0, -1, -13
1503614566834,3, 5, -5, 2, -1, 2, 0, -5
1503614566857,-3, -8, -5, 1, 1, -3, -6, -10
1503614566872,-5, 1, 4, 2, 3, 0, -1, 3
1503614566894,-3, 2, 4, 6, 3, -1, -3, -11
1503614566916,-4, -3, -9, -7, -5, -2, -2, -6
1503614566932,-2, -3, 0, -1, 0, -1, 0, 6
1503614566954,1, -1, -1, -4, -4, 1, -1, -1
1503614566976,0, 0, 0, -3, -1, -3, 0, 17
1503614566991,-12, -3, 3, 2, 0, 2, -1, -34
1503614567016,1, -2, -3, -3, -1, 1, -2, -7
1503614567036,1, 0, -2, -3, -4, -6, -1, 6
1503614567051,6, 3, 3, 5, 5, 1, 0, 9
1503614567083,-10, -6, -6, -2, -1, -3, 1, 1
1503614567103,3, -6, -5, -3, -2, 0, 0, -4
1503614567126,5, 8, 4, 0, -2, -1, -3, 6
1503614567141,-3, 3, 3, -4, 0, -1, 0, -8
1503614567163,-5, -6, -3, -2, -5, -2, -6, -7
1503614567186,-3, 8, 11, 1, 4, 0, 1, -5
1503614567201,-1, -7, -5, -1, -3, -2, -2, -5
1503614567224,17, 7, -3, 1, 2, -1, 1, 1
1503614567245,7, -12, -8, -2, -2, 0, 1, 8
1503614567255,4, 8, 5, 1, 0, -3, -3, -5
1503614567276,10, 32, 32, 4, 1, 0, 4, 18
1503614567292,-5, -20, -5, 0, 0, 0, -3, -11
1503614567313,-5, 22, 11, 0, 3, 1, -3, -11
1503614567336,-1, 3, -18, -5, -2, -4, -1, -1
1503614567355,-2, -10, -17, 3, 2, 2, 1, -2
1503614567374,-16, -6, 6, 0, -1, 0, 0, -7
1503614567396,3, -10, 0, -2, -1, -1, -2, 0
1503614567420,8, -4, -2, -3, -2, 1, -3, -5
1503614567434,-1, 7, 4, 1, 1, 0, -1, -15
1503614567457,-1, -17, -11, -5, -3, -2, 3, 0
1503614567479,1, -4, -1, 0, 0, 3, 3, 30
1503614567494,1, 5, 7, 0, -2, -6, 0, -4
1503614567521,-1, 1, -6, -2, -1, 0, -2, -5
1503614567539,-10, -10, -7, -2, -2, -2, -4, -5
1503614567555,-2, -5, -7, -3, -3, 0, -3, -6
1503614567576,-5, -8, -5, -2, -2, 0, -5, -11
1503614567598,-3, -9, -5, -1, -2, -3, 1, 0
1503614567606,-1, 2, -2, 2, 1, 0, 1, 1
1503614567628,-3, -5, -4, -4, -2, -1, -3, -2
1503614567643,1, 0, 0, -1, 0, -1, -3, -1
1503614567666,0, 0, 3, 0, -2, -2, -1, -2
1503614567689,1, -2, 2, 1, 0, 2, 1, 1
1503614567703,-2, 0, -1, -2, -1, -3, 0, -2
1503614567726,5, 11, -5, 1, 2, -1, -2, -2
1503614567748,-2, -7, -6, 0, -1, -3, -4, -4
1503614567764,0, -1, 1, -2, 0, -1, 0, 2
1503614567788,0, -2, -4, -3, -6, 0, -1, -1
1503614567808,-3, 2, 2, -1, 1, 1, -2, -2
1503614567824,2, 5, 3, 0, 0, 0, 0, -1
1503614567846,-4, -8, -7, -1, -1, -2, 1, -1
1503614567869,12, 29, 16, 5, 2, 3, 3, 3
1503614567891,-3, -3, 3, -2, -1, 2, -2, -2
1503614567913,-6, -10, -4, -3, -2, -2, -1, -2
1503614567928,-6, -11, -5, 0, 0, -1, -2, 1
1503614567944,-2, -11, -3, 0, -4, 1, -2, -2
1503614567966,-2, -8, -9, -4, -1, -2, -3, -2
1503614567990,2, 4, -1, 1, -1, -2, 1, 0
1503614568003,-3, 0, -3, -2, 0, -2, -1, -1
1503614568027,-2, -5, -2, -3, -3, -3, 1, -1
1503614568048,-2, -11, -5, -1, 0, -3, 0, -4
1503614568064,0, 1, -1, -2, 0, 1, 0, -1
1503614568086,1, 6, -1, 0, 0, 1, -3, -1
1503614568108,2, 7, 3, 1, 0, -2, 0, -3
1503614568124,-3, 0, 4, 2, -2, 1, -2, -10
1503614568147,0, 0, 0, 2, -1, -2, 0, 4
1503614568168,-3, 2, -1, -3, 0, 1, -1, 1
1503614568183,-3, -8, 0, -1, -3, -1, -3, -2
1503614568206,-2, 7, -6, -2, -2, 0, 1, 1
1503614568228,-2, 1, 14, 1, 0, -2, 0, -6
1503614568243,11, 1, -2, -1, -1, 0, 4, 18
1503614568266,-3, 1, 2, 1, -1, -2, -1, 0
1503614568288,-2, 1, -9, -4, -1, 2, -3, -5
1503614568296,2, 4, 0, 0, -1, 1, -1, 6
1503614568319,2, 1, 8, 2, -2, 2, 2, 5
1503614568334,0, 0, -3, -3, -2, 0, 0, 5
1503614568358,-3, -7, -8, -1, 1, -1, 0, -7
1503614568378,-3, -9, -16, -6, -3, -4, -8, -17
1503614568401,-3, 4, -3, -1, 1, -1, -1, -4
1503614568416,-1, 2, 7, -2, -1, 0, 0, 4
1503614568438,2, -8, 2, 0, -2, 1, 1, 4
1503614568462,0, -2, -7, -6, -2, -2, 1, 6
1503614568476,6, 11, 18, 11, 3, 2, 2, 1
1503614568499,-4, -6, -8, -1, -1, -2, -1, -3
1503614568521,-2, -4, 1, -1, 0, -2, -2, 1
1503614568536,6, 17, 11, 0, 1, -2, 2, 4
1503614568560,-2, 10, 13, 2, 2, 0, -2, 0
1503614568567,-1, 2, 2, -1, -2, 0, -1, -2
1503614568588,-1, -9, -7, -3, -4, -2, -1, -1
1503614568610,0, 4, -7, -2, 2, -1, 0, -2
1503614568627,-2, -3, 5, -1, -4, -1, -3, -4
1503614568648,0, 0, 1, 0, 1, -1, 0, 0
1503614568670,-2, -6, -7, 0, 4, -2, -1, 0
1503614568686,-4, -6, -5, 0, 3, 1, 1, -1
1503614568708,1, 1, 1, -2, -4, 2, -1, 0
1503614568730,-1, 6, 5, -4, 0, -1, -1, 0
1503614568746,-2, -3, 1, 2, -2, 0, 0, -3
1503614568769,1, 23, 12, 1, -2, -3, -1, -7
1503614568790,-3, -12, -7, -1, -3, 1, -4, -1
1503614568806,-1, -2, -1, 3, 2, 1, 0, -1
1503614568828,2, -5, 0, -1, 2, -2, 1, -3
1503614568850,-1, 6, 5, 2, 2, 4, 2, 2
1503614568866,1, -7, -8, -3, -3, -5, -1, 14
1503614568888,6, 8, -3, 0, -2, -3, -1, -3
1503614568910,-4, -8, -1, -1, -2, -4, -1, 0
1503614568928,-1, -1, 0, -1, 1, 18, -1, 1
1503614568948,0, -2, -2, -4, -2, -4, -2, -3
1503614568971,-1, 1, 6, 0, 1, -4, -2, -4
1503614568986,-5, -8, -4, -2, 0, -2, -1, 0
1503614569016,0, -2, -1, -1, -2, 3, 1, 1
1503614569039,-1, -3, 3, 1, 0, 2, 2, 7
1503614569063,4, 13, 24, 8, 4, 0, 3, -9
1503614569076,-6, -9, -13, -6, -4, -2, -2, 1
1503614569099,6, 0, -5, -4, -5, -4, 3, 12
1503614569121,3, 2, 4, 0, 0, 0, 0, 4
1503614569137,-3, -6, -10, -3, -2, 1, -3, -13
1503614569159,16, 2, 3, 0, 0, 1, 0, 11
1503614569181,-11, -1, -6, -2, 0, 0, 1, 3
1503614569210,-2, 14, 12, 1, -1, 2, 1, 3
1503614569226,-9, 2, -3, -1, -1, -2, -2, -4
1503614569248,-2, -8, -11, -4, -1, 0, -1, -6
1503614569270,5, -4, -10, -3, -2, 0, 6, 15
1503614569293,-2, -3, 5, 1, 1, -2, -2, -7
1503614569316,-2, 13, 8, 1, -2, -1, -1, -14
1503614569332,-1, 1, 3, 0, 0, -2, -4, -13
1503614569353,0, 0, -3, 2, 0, 2, -3, 4
1503614569369,-2, 0, 2, -1, -1, 0, 3, 4
1503614569390,10, 4, 5, 0, 1, 0, 4, 26
1503614569413,-6, -11, -8, -1, -1, -1, -4, -12
1503614569437,-2, 3, 0, -1, -1, 0, 1, -1
1503614569451,-5, -5, -5, -1, 1, -2, -1, -8
1503614569475,-3, 2, 5, 0, 0, -1, -1, 3
1503614569500,10, 20, 12, 5, 1, 0, 0, -1
1503614569511,-7, -11, 4, 0, 1, 0, -1, -6
1503614569534,1, -6, -5, -1, -1, -1, -2, 3
1503614569549,-1, -2, -6, -3, -3, -1, -1, -7
1503614569571,-3, -8, -4, -4, -2, 1, -2, 0
1503614569594,-1, -3, -7, -2, 1, -1, -2, -4
1503614569609,-8, -3, 0, -2, -3, -1, -2, -3
1503614569633,1, 8, 6, 0, -3, -3, -5, -3
1503614569654,-1, -1, -4, -3, -3, -1, -1, -2
1503614569669,-8, -15, -9, 1, 3, -3, -2, -13
1503614569691,-2, 9, 6, 1, 1, -4, -5, -14
1503614569714,1, 1, 2, 3, 0, 2, 4, 7
1503614569729,5, 2, -1, -1, 2, 0, 2, 2
1503614569751,-8, -19, -4, -1, -2, -1, -3, 1
1503614569782,5, -1, -2, -3, 0, 1, 1, 7
1503614569789,-2, 2, -2, 1, -2, -1, 1, -1
1503614569812,-2, 14, 3, -2, 1, -1, 0, -14
1503614569819,-4, -4, 3, 2, -3, 0, -1, -4
1503614569842,14, 5, 7, 1, 0, 4, 8, 44
1503614569864,-4, -5, -1, -2, -4, 0, -2, -10
1503614569879,-3, 6, 4, 0, -3, -4, -5, -9
1503614569904,-2, -4, -4, -3, -1, 1, 1, 2
1503614569923,-5, -9, -2, 0, 1, -1, -1, -7
1503614569939,-3, -6, -6, -4, -3, -5, -4, -7
1503614569961,-1, -11, -10, 0, 2, 0, -1, -1
1503614569983,-1, -6, -9, -3, -1, -1, -1, -1
1503614569998,0, 5, 2, 0, -1, -2, -3, 1
1503614570021,-1, -2, -2, 3, 0, 0, 2, 0
1503614570044,0, 13, 6, 0, -1, 0, -4, -6
1503614570058,-2, -13, -6, -2, -1, -1, 2, 16
1503614570075,-2, -3, -3, -3, 0, 0, 0, 2
1503614570097,-9, -18, -14, -5, 0, -3, -7, -13
1503614570112,9, -9, -5, -1, -4, 0, 5, 36
1503614570138,1, -7, -4, -3, -3, 0, 2, -10
1503614570157,-3, -1, 0, -1, -1, -2, -3, -3
1503614570171,3, 5, 2, 2, -1, -3, -1, -2
1503614570194,-4, 3, 4, -1, -4, -3, -4, 2
1503614570216,5, 8, 3, 2, 3, 2, 6, 27
1503614570231,-4, 0, -2, -1, 0, -4, -1, -9
1503614570247,-4, -5, 1, -3, 0, 0, -4, -7
1503614570263,-1, 9, 3, 0, -1, -2, 0, -17
1503614570283,-1, -8, -6, -3, -4, -2, -3, 1
1503614570306,3, 2, 1, 2, 3, 1, 3, 4
1503614570321,-3, -4, -2, 1, 2, -2, -3, -4
1503614570344,-5, -1, 0, 1, 0, 3, 1, -27
1503614570366,1, 5, 8, 1, -3, -3, -1, 14
1503614570381,8, 16, 15, 4, -2, -2, -4, -4
1503614570405,-4, -12, -14, -8, -4, -3, -5, -10
1503614570426,-12, -3, -2, 0, 0, 0, -1, -33
1503614570443,6, 7, 3, 0, 0, -3, 0, 4
1503614570463,-5, -4, -2, -1, -3, -1, -1, 1
1503614570486,0, 3, -10, -6, -6, -1, 2, 15
1503614570501,6, 4, 11, 9, 4, 0, -2, 14
1503614570523,3, -6, -2, -2, 0, 1, 3, 19
1503614570546,1, -3, -3, 0, 0, -2, 0, 8
1503614570561,-6, -18, -8, -1, -1, 0, 0, -18
1503614570583,-1, 6, -5, -1, 0, 1, -3, 4
1503614570607,3, 1, 3, -2, -3, -2, -3, -4
1503614570621,-3, -5, -6, -2, 2, -3, 1, 3
1503614570644,-1, -1, 0, -1, 1, 1, 1, 5
1503614570666,-1, 1, 2, 2, 1, -2, 0, 5
1503614570682,-3, -4, 1, -2, -3, 0, -2, -9
1503614570703,3, 1, -2, -2, -2, -2, -2, 11
1503614570726,-2, 8, 2, 1, -1, -2, -2, 7
1503614570744,5, 12, 13, 3, 2, 3, 3, -6
1503614570764,-1, 5, -4, -4, -3, -1, -1, 3
1503614570786,-5, -12, -7, 0, -1, -2, -3, -6
1503614570801,-2, -3, 4, 1, -2, 0, -3, -9
1503614570818,4, -1, -2, -7, -3, 0, -2, -8
1503614570831,-5, 1, -3, -1, -5, -6, -2, -3
1503614570854,5, 9, 7, 2, 2, 1, 1, 4
1503614570884,-3, 1, 3, 1, 1, 2, 1, 11
1503614570906,-2, -7, -3, -1, -2, 0, -1, 1
1503614570921,2, -1, -3, 0, -3, -3, -1, 2
1503614570944,-1, -3, -4, -1, -1, -3, 0, 6
1503614570966,1, 6, 1, 0, 1, -2, -2, -3
1503614570981,5, 3, -3, 0, 0, 3, 2, 1
1503614571003,5, 27, 27, 5, 2, 4, 1, 3
1503614571026,11, 27, 7, 2, 0, -2, 3, 13
1503614571044,-10, -32, -26, -4, -5, -5, -4, -5
1503614571063,-11, -31, -12, -6, -3, -4, -8, -14
1503614571093,-9, -18, -8, -6, 0, 0, 1, 2
1503614571101,13, 34, 9, 7, 3, -1, -2, -4
1503614571123,6, -1, -4, -2, 0, 0, 2, -2
1503614571146,-10, -28, -5, -3, -2, -1, -3, 1
1503614571168,4, 20, 10, 4, 1, 4, 4, 5
1503614571183,-6, -9, -9, -5, 0, -3, -1, 3
1503614571206,0, 10, 4, 1, 1, -1, 1, 9
1503614571228,-2, -2, 0, 0, -3, -2, -3, -7
1503614571247,-1, 0, 5, 2, 0, -1, -1, -6
1503614571259,-7, -11, -8, -2, -2, -2, -3, -4
1503614571274,-4, -8, -4, 0, -6, -2, -2, -1
1503614571297,-4, -1, -3, 0, -2, 1, -2, -11
1503614571319,-1, -1, 4, 1, -1, -1, 2, -5
1503614571334,-7, -4, -5, 0, 1, 1, 0, -13
1503614571356,4, 7, 8, 0, 1, 0, -1, 4
1503614571379,-1, -4, 2, 1, -1, 0, 1, 6
1503614571387,0, -3, 1, 0, 3, -1, 1, -1
1503614571408,-3, -8, -9, -3, 0, 1, -1, -2
1503614571423,5, 2, -3, -4, 1, 0, -1, 5
1503614571447,-2, -2, -1, -1, 0, 2, -3, -1
1503614571469,2, 7, 1, -1, -1, 0, 0, -1
1503614571483,-5, -21, -14, -2, -1, 0, 1, 0
1503614571506,2, -1, -3, 1, -3, 0, -2, 4
1503614571515,-1, -2, -3, -2, -1, 2, -4, -2
1503614571536,-1, 1, 0, -3, -2, -3, -3, -6
1503614571558,-1, -10, -7, -2, -3, -1, 3, 0
1503614571574,-2, -1, 1, -1, -2, -2, 1, -1
1503614571596,4, 7, 15, 8, 3, 5, 2, 3
1503614571618,-2, -2, -3, -3, -1, -3, -2, -2
1503614571634,2, -2, -1, 2, 2, 3, -1, 1
1503614571657,-7, -3, 2, 0, 2, -5, -6, -7
1503614571680,2, -3, -9, 0, 0, 5, -1, 6
1503614571694,-5, -11, -12, -4, -4, -4, -1, -2
1503614571723,1, 2, -3, -1, 2, -4, -3, 2
1503614571739,0, -4, 1, -8, -8, -3, -1, -1
1503614571754,-2, -1, -6, 1, -2, -2, 2, -1
1503614571776,3, 6, 8, -1, 3, 1, 1, -1
1503614571798,-2, -5, -12, -5, -5, 0, -3, 0
1503614571815,-4, -7, 0, -1, 0, -1, -1, -1
1503614571829,-2, 1, -6, -6, -3, -2, -2, -6
1503614571843,-4, -2, -1, 0, -1, -1, -2, -2
1503614571866,-2, -13, -13, -5, -3, -3, -2, -3
1503614571889,-1, 2, 17, 4, 1, -1, 1, 3
1503614571903,4, 10, 11, 0, 0, -1, 1, 8
1503614571926,3, -3, -14, -5, -1, -1, 1, 7
1503614571950,-4, -3, -3, -2, -3, -1, -2, -4
1503614571963,1, 7, 0, 0, -2, -1, 0, -4
1503614571986,0, 0, 3, 2, 0, 2, -1, -4
1503614572008,0, 2, -11, -4, -3, -3, -4, -1
1503614572024,3, 7, 14, 3, 1, 0, 3, 4
1503614572038,-2, -7, -7, -1, 1, -1, 1, 1
1503614572054,-1, -2, -1, 1, -1, -4, -2, -4
1503614572077,2, 8, 7, -1, 2, 0, 1, 0
1503614572098,-1, 1, 4, 2, 0, -2, -3, -4
1503614572121,2, -2, -11, -5, -2, 0, 3, -5
1503614572136,-7, -6, -4, -2, -3, -4, -3, -5
1503614572160,2, -3, -3, -1, 0, -1, -1, 4
1503614572181,3, 8, 14, 7, 1, 0, 2, 4
1503614572197,0, 2, 2, -2, -1, 0, 1, 1
1503614572220,0, -5, -4, 0, -1, 0, -1, -1
1503614572241,-3, -2, -6, 0, -2, 1, -1, 0
1503614572256,-2, -4, -6, -8, -2, -1, -1, 0
1503614572278,0, 1, -2, -2, -1, 0, -4, -2
1503614572301,-1, 0, -3, -2, -1, 1, -1, 0
1503614572319,-4, -10, -2, 3, 2, -1, -4, -3
1503614572338,1, 4, 2, 0, -6, -3, -4, -4
1503614572361,1, 0, 2, -3, -1, -2, 2, 4
1503614572376,-1, -5, 1, 0, 4, 4, 2, 2
1503614572398,0, 0, 7, 1, -1, -3, -2, -3
1503614572421,0, 7, -1, -1, 0, -1, 2, 2
1503614572436,0, -1, -1, 3, 4, -5, -5, -4
1503614572454,-1, 5, 2, 1, 1, 2, -6, -1
1503614572466,0, 1, 2, 1, -2, -2, 1, -1
1503614572489,0, 2, 0, -1, 1, 1, -2, -1
1503614572510,0, -8, -5, -5, -5, -1, 3, 1
1503614572526,-3, -2, -3, -2, -2, -2, 0, -1
1503614572548,1, 1, 0, -1, 2, -1, -2, 0
1503614572572,0, 3, -1, 2, 4, 1, 0, -1
1503614572589,-1, 0, -1, -2, -5, -2, -1, -1
1503614572608,-1, -1, -1, -4, 0, 0, 1, -3
1503614572631,0, 2, 4, 1, -4, -3, -5, -3
1503614572646,0, 2, -1, 0, 1, -1, -1, -1
1503614572668,1, 4, 5, 2, 2, -1, 0, -1
1503614572690,1, 0, -1, -2, -6, -2, -3, -4
1503614572706,-2, 3, 0, 0, -1, 4, -1, -2
1503614572729,-2, -2, -1, -5, -2, -5, 0, 0
1503614572750,-2, -3, -1, 0, -2, 3, 1, 1
1503614572766,-2, -2, -6, -3, -2, -5, -5, -1
1503614572789,-1, -4, -2, 0, -4, -1, 0, 1
1503614572810,-1, 1, 2, 0, 3, 1, 0, 2
1503614572826,-2, -5, -3, -2, -2, -5, -4, -3
1503614572848,0, 0, -4, -1, -2, 1, -2, -4
1503614572870,0, 3, 6, 5, 4, -2, -4, 1
1503614572886,-3, 1, -8, -4, 0, -1, -1, 0
1503614572908,2, 5, -2, 0, 0, 0, -4, -1
1503614572932,-2, -3, 1, -4, -3, -1, 0, 2
1503614572946,-1, -4, -2, 0, 0, 1, 4, 3
1503614572968,1, 1, -2, -1, 1, 1, 1, 0
1503614572991,-1, -1, -6, -2, -2, -1, -1, 1
1503614572999,-3, -3, 1, -1, 0, -1, 1, 0
1503614573021,4, 3, 2, 0, -5, 0, -3, -3
1503614573043,1, 2, 0, -2, -2, -3, 1, 1
1503614573059,-2, -8, -2, -1, -1, -2, 0, 1
1503614573081,-1, -2, -4, -1, 0, 0, -3, 1
1503614573103,2, 13, 10, 3, 3, 1, -3, -5
1503614573118,-5, -9, -13, -3, -1, -2, 0, 1
1503614573141,-3, -5, -7, -4, -1, -2, 0, -1
1503614573164,0, -2, -1, -1, -1, -1, 0, -1
1503614573178,-3, -4, -4, -7, 0, 0, 0, -2
1503614573201,-3, -1, 0, -1, -1, 1, -2, -1
1503614573224,1, 2, 2, 3, 0, 0, 0, 0
1503614573238,6, 6, 9, -1, -2, -2, 0, 3
1503614573263,5, 2, 0, 1, -4, 2, 0, 0
1503614573269,-2, 0, -3, -3, 1, -1, -1, -1
1503614573299,-2, -2, -1, 1, 1, -3, -1, -1
1503614573321,-2, -3, -5, 0, 1, 1, 2, 1
1503614573329,-3, 2, 0, 2, 10, 3, 3, 1
1503614573350,-1, 1, -2, 1, 0, -3, 0, -1
1503614573373,0, -9, -8, -3, -3, -1, -2, 0
1503614573388,-2, -3, -3, -5, -2, -1, -1, -2
1503614573410,2, 2, 8, 2, 5, 3, 1, 0
1503614573433,-3, -9, -6, 0, -2, 2, -3, -1
1503614573448,-2, 1, 2, 1, 2, -6, -1, 0
1503614573470,4, 1, -4, -1, 0, 0, -4, -1
1503614573494,4, -3, -4, -2, -2, -1, 1, 4
1503614573508,-3, 0, 0, 2, 2, 2, 1, 4
1503614573534,-1, 5, 5, -1, -3, -3, -2, -3
1503614573552,2, 18, 14, 3, -2, -1, 1, 0
1503614573569,0, 1, -1, -3, -2, -1, -5, -5
1503614573598,-2, -3, -3, -2, 3, 0, -1, -2
1503614573613,-5, -6, -4, -3, 0, -3, -1, -1
1503614573628,0, -2, -11, -2, -3, 1, -1, -1
1503614573650,-1, 1, -9, -2, -1, -3, 4, 2
1503614573673,-3, -8, -6, -1, 2, -1, 0, 2
1503614573688,-1, -3, 4, 2, -3, -1, -1, -1
1503614573704,-3, -16, -21, -5, 2, 0, -3, -3
1503614573718,-3, -2, 0, -1, -2, -2, -4, -1
1503614573741,1, 2, 3, -1, -1, -2, 0, 0
1503614573764,-3, 2, 3, 3, 1, 2, 1, 1
1503614573778,-1, 5, 5, -1, 1, -2, -4, -5
1503614573801,3, 7, 8, 5, 1, 0, 2, 2
1503614573823,-1, -1, -4, -3, -2, 0, -1, -2
1503614573838,-5, -13, -7, -6, -5, -3, -2, -1
1503614573864,-2, -1, -1, -1, 0, -1, 0, -2
1503614573883,8, 17, 9, 2, -1, -2, 1, 1
1503614573899,1, -2, -2, 0, 0, -1, 1, 0
1503614573921,-1, -1, -5, -3, -1, -1, -2, -2
1503614573943,2, 4, 8, 3, -1, 0, 0, 0
1503614573966,-3, -7, -1, -2, -5, -1, -4, 1
1503614573981,-6, -5, -4, -1, -1, 3, -1, -1
1503614574003,5, 6, -1, 1, 1, -1, 0, -1
1503614574026,-1, -3, 5, 0, -2, -3, -1, 0
1503614574041,1, 12, 0, 4, 3, -2, -1, -1
1503614574064,3, -3, -5, -3, 0, 0, 0, -2
1503614574086,-3, 1, 4, 2, 3, -1, 0, -2
1503614574101,-5, -1, 3, -3, -1, -1, -2, 0
1503614574123,0, -7, 9, 2, 0, 3, 0, -2
1503614574146,-1, 2, 4, -1, -1, -1, -1, -1
1503614574153,4, -6, 0, 2, 1, 1, 3, 1
1503614574175,10, -2, -5, -2, -7, -1, -1, 1
1503614574191,-11, -13, -5, -1, 0, -2, -1, -1
1503614574212,-1, 21, 5, -1, 1, -2, 1, -1
1503614574237,7, -8, -5, -2, -1, 1, -3, 6
1503614574251,-5, -2, -1, 1, 3, -1, -1, -3
1503614574280,6, 2, 7, 1, 0, -2, 0, -2
1503614574295,-1, 2, 4, -2, 2, -2, 0, 1
1503614574304,-4, -3, -10, -4, -3, -1, -3, -3
1503614574326,-7, 7, 9, 0, 1, 0, 0, 2
1503614574341,-10, -8, -5, -2, -2, -3, -1, -2
1503614574366,2, 0, -6, -4, -3, -1, -1, -6
1503614574386,7, -1, -6, 0, 0, -1, 2, -2
1503614574401,-2, 6, -3, 0, -1, 0, 0, 0
1503614574423,-6, 0, 5, -1, 0, 0, -1, 0
1503614574433,-15, 6, 0, -3, -2, -2, -2, -2
1503614574452,-2, -8, -1, 1, 0, -2, -4, -1
1503614574476,-4, -4, -6, -4, -4, 0, -3, -2
1503614574491,-5, 7, 6, 0, 2, 2, 1, -2
1503614574513,-1, -5, -4, 0, -2, -3, -2, -3
1503614574535,3, 1, 5, 1, 3, 1, 1, 4
1503614574551,-4, -9, -6, -1, 0, 0, 0, -2
1503614574573,5, -5, -5, -3, -6, -1, -2, 0
1503614574595,0, -2, -3, -4, -2, -3, -2, 0
1503614574619,-1, 3, 1, 0, 0, 0, -2, -3
1503614574636,3, 2, -3, -1, -3, -1, 0, 7
1503614574656,-2, 0, 0, -3, 1, -2, 2, -4
1503614574679,-1, -1, 1, -2, -4, 1, -1, -2
1503614574694,-1, -3, 2, 2, -2, 0, -1, -2
1503614574716,2, 20, 8, 6, -1, 0, 0, -3
1503614574740,-8, -10, -8, -5, 2, -3, -3, -11
1503614574754,-5, -5, -1, 0, 5, 2, 0, 1
1503614574777,-2, -9, -5, -2, -1, -5, -2, -1
1503614574799,2, 5, -4, 0, -1, -1, 1, 2
1503614574814,-3, -1, 0, -1, -2, -4, -1, -4
1503614574837,2, 3, 5, 2, 0, 3, 0, 3
1503614574859,-2, 15, 6, 3, 0, -1, -2, 0
1503614574874,-5, -9, -4, -2, 1, 1, 2, 2
1503614574896,2, -4, -1, -3, -2, -1, 1, 7
1503614574920,-3, -14, -6, -4, -3, -2, -2, -7
1503614574934,-1, -4, 2, 2, 0, -1, -2, 0
1503614574956,0, 2, -3, -1, 3, 0, -2, -4
1503614574979,1, -4, -3, -2, 8, 0, 1, -2
1503614574994,1, 7, 2, 3, -8, -2, -3, -2
1503614575016,-5, -6, -3, -5, -5, 0, -2, 1
1503614575039,-2, -5, 0, 1, 0, -1, 1, 0
1503614575062,4, 4, -1, 1, -2, 2, 1, -3
1503614575076,2, -2, -3, -2, -3, -1, -2, -1
1503614575099,-2, 5, 4, 0, 0, -1, -1, 1
1503614575114,-3, -3, 1, 4, -1, -1, -2, -1
1503614575138,-3, -9, -5, -2, 2, -1, 2, -2
1503614575143,-3, -2, 1, -1, 3, 0, -1, 0
1503614575166,1, 9, 8, 2, 3, 1, -1, 0
1503614575188,-2, -4, -4, -2, -1, -2, 0, 1
1503614575206,-1, -5, -5, -3, -4, -1, -2, -1
1503614575226,8, 9, 2, 0, 0, -3, -2, 2
1503614575248,-6, -11, -6, -5, -4, -1, 3, 0
1503614575264,-1, -2, -3, -2, 1, -3, -4, -3
1503614575285,6, 3, 4, 0, -1, -2, -2, 2
1503614575294,-6, -11, -3, 1, 1, -2, -2, -4
1503614575316,-1, -2, -3, -2, 0, -2, 1, 0
1503614575340,2, -1, 9, 1, -2, 0, 1, -1
1503614575354,3, 3, -3, 0, 0, -2, -1, 0
1503614575376,-6, -6, -4, 0, 0, -1, 0, -1
1503614575399,0, 0, 0, -1, -1, -2, -1, -7
1503614575414,1, -8, -7, -3, -2, -1, -1, 2
1503614575436,-3, -4, -3, 0, 4, 2, -4, -5
1503614575460,-5, -10, -4, -3, -11, -3, -2, -3
1503614575475,-2, -12, -14, -7, -5, -3, -3, -1
1503614575496,1, 12, 7, 1, 0, -2, -3, -6
1503614575519,4, 14, 4, -3, -1, 1, 0, 5
1503614575534,4, 10, 4, 2, 2, 0, 2, 5
1503614575563,12, 24, 9, 2, 0, -2, 1, 5
1503614575580,-5, -10, -2, 0, 0, 1, 0, 0
1503614575594,2, 9, 11, 3, -2, -2, 0, 1
1503614575617,3, -8, -13, -4, -5, 0, 1, 0
1503614575641,-1, -8, -3, 0, 1, -2, -3, -6
1503614575654,-4, -22, -1, -1, 3, 0, -1, 8
1503614575676,-2, -6, -5, -4, -1, -2, 1, 1
1503614575699,-1, 2, -3, -2, -4, -1, -2, -9
1503614575714,0, 1, -1, -1, 0, 1, 1, 14
1503614575736,0, 6, 5, -1, -1, -1, -1, -3
1503614575759,-4, 1, 2, 0, 0, -2, -3, -3
1503614575781,-3, -5, -8, -3, -2, -1, -1, -9
1503614575796,-5, -15, -3, 1, 2, -2, -2, -1
1503614575819,1, -1, -2, -1, -3, -1, -1, -7
1503614575847,3, 23, 21, 5, 5, -1, 2, 2
1503614575857,-4, -8, -10, -2, 0, 0, -1, 1
1503614575879,-1, -4, -2, 0, -3, -1, 0, 7
1503614575901,1, 11, 4, -4, -2, 1, 0, -2
1503614575917,-5, -4, -8, -3, -2, 0, -3, -6
1503614575939,1, -5, -4, -1, -4, -4, 2, 3
1503614575961,4, 5, 4, 0, 1, 1, -1, 0
1503614575980,-5, -5, 1, -3, 0, -1, -2, -4
1503614576005,-1, 6, -5, 0, 2, 3, -3, -3
1503614576021,0, 4, 8, 3, -5, 0, 2, 1
1503614576036,0, -3, -2, -4, -1, -1, 0, -2
1503614576059,-7, -14, -4, -3, -1, -1, -1, -3
1503614576081,0, 0, 2, 0, -1, -1, 0, 2
1503614576096,0, -2, -1, 0, 1, 1, 3, 2
1503614576112,-4, -8, -2, -1, 1, -1, -2, 0
1503614576126,-2, 1, -1, 0, 2, -1, -2, -3
1503614576149,-3, -8, -6, -1, -2, -1, -1, 0
1503614576171,-2, 3, -1, 0, -3, 0, -1, -1
1503614576186,-2, -3, -1, -2, 3, -1, 1, -2
1503614576208,-2, 0, 0, -1, -2, -2, -2, 2
1503614576231,0, 6, 4, 0, -1, -3, 0, -1
1503614576246,0, -5, -4, -3, -1, 2, 2, 1
1503614576262,-1, 2, 2, 1, -1, 1, -2, -2
1503614576279,2, -3, 6, -1, -4, -1, 1, -1
1503614576299,5, 12, 16, 1, 2, -1, 0, 1
1503614576322,-2, -8, -7, -2, -5, -3, 0, -1
1503614576337,4, -4, -8, -1, 1, -2, 0, 5
1503614576359,-3, -1, -5, 0, 1, -2, -4, -5
1503614576381,-5, -2, -15, -5, -2, -5, -2, -6
1503614576397,-3, -14, -14, -4, 0, -2, -3, -3
1503614576420,0, 2, 5, -1, 0, 2, 0, 0
1503614576440,0, -1, 3, 1, 1, -2, 2, 0
1503614576456,1, 1, 1, 0, -1, 0, -2, 0
1503614576480,-3, -9, -6, -4, -1, -2, -1, 4
1503614576501,-3, -6, -3, -1, 1, 3, -1, -3
1503614576524,-2, -2, -5, -4, 4, -3, 1, 0
1503614576540,1, 2, 0, 1, -7, 1, -3, -5
1503614576561,1, 4, 4, -1, -4, 3, 0, 3
1503614576576,4, 3, 9, 2, 0, -2, 3, 7
1503614576598,-3, -12, 2, -2, -1, -1, -4, -1
1503614576605,-1, -6, -4, -1, 1, -2, -1, -2
1503614576628,-4, -2, 1, -2, -2, -1, -1, -4
1503614576651,0, 4, 4, 2, 0, 1, 0, -1
1503614576665,1, -8, -5, -2, -4, 0, 0, 8
1503614576688,1, -6, -1, -1, -4, -1, 3, 10
1503614576696,-2, -3, -5, -2, -5, 0, 1, -3
1503614576719,-1, -6, -3, 0, 1, 0, 1, -3
1503614576741,-1, 6, 4, 3, 4, 1, -1, -1
1503614576763,0, -4, 0, 0, 0, -4, -2, -1
1503614576779,1, 4, 1, 0, 0, 2, -2, -1
1503614576801,-1, 1, 2, 0, -3, -1, -2, -6
1503614576823,-2, -11, -9, -5, -2, -2, -1, 1
1503614576846,-4, -4, -2, -3, -2, -1, -2, -1
1503614576868,-4, -3, -4, -2, -4, 0, -3, -4
1503614576886,1, 6, 1, -1, 0, -2, -4, -3
1503614576899,0, 1, 9, -2, -1, -3, 6, 6
1503614576921,-1, 1, -4, -2, 1, -2, 0, -9
1503614576943,2, -3, 0, -1, -1, 0, -3, 3
1503614576959,-2, -3, -3, -1, -1, 0, -2, 0
1503614576981,-2, -7, -7, 0, -1, -6, 0, -1
1503614577003,0, -2, 1, 1, 0, 2, 0, 0
1503614577019,-3, 1, -3, 0, -1, 1, -1, -4
1503614577041,0, -1, -6, -3, -4, -2, -1, 0
1503614577063,2, 6, 4, 0, 1, 0, 0, 0
1503614577079,1, -3, -1, -2, 1, -1, -2, 0
1503614577095,-3, -4, -3, -1, -3, 1, -1, -3
1503614577108,-1, 1, 1, 0, 10, -2, -3, -1
1503614577131,-1, 0, -2, -1, -6, 1, 0, -3
1503614577153,2, -3, -2, -2, -6, -3, 0, 2
1503614577168,-3, -5, -4, -1, -2, -2, 0, 0
1503614577191,-2, -2, -3, -2, -4, -2, 2, -1
1503614577213,-1, -7, -3, -2, 2, 1, 0, -1
1503614577228,0, -11, -5, -2, 1, -4, 1, 2
1503614577253,1, 6, 8, 1, 0, 1, 1, 1
1503614577273,-2, -1, 2, 1, -1, -2, -2, -3
1503614577289,-1, 0, -3, 0, 5, 2, -2, -2
1503614577310,1, -3, -1, -2, -1, 1, 1, -1
1503614577333,1, 6, 5, 1, -3, 0, -3, -1
1503614577341,2, -1, 0, 0, -2, -1, -2, -1
1503614577363,3, 0, 1, -2, -2, -1, -1, 5
1503614577378,-3, -7, -4, -4, -4, -1, -2, -4
1503614577392,1, 10, 0, 1, -2, -2, 1, -2
1503614577401,-4, -7, 2, 1, -3, 1, -6, -7
1503614577423,0, -2, -3, -3, -3, -2, 1, -6
1503614577438,3, 2, 3, 1, 2, 2, -2, 3
1503614577461,0, -4, -11, -1, 2, -2, -2, -3
1503614577483,1, 1, 1, -5, -4, -2, 0, 1
1503614577498,-6, 0, 3, 1, 2, 0, -2, -3
1503614577523,-3, -6, 0, 2, 7, -3, 0, 0
1503614577543,-1, 4, -2, 0, -1, -1, -1, -1
1503614577559,-2, 3, 2, -1, 0, -1, 2, -1
1503614577581,-1, -1, 1, -1, -2, 1, 1, -2
1503614577603,-2, -1, 0, -1, -1, -3, 0, -4
1503614577619,2, -5, -3, -2, -2, 0, -3, 3
1503614577641,1, 1, 7, 1, 2, 0, 0, 2
1503614577664,0, 4, -4, -2, -2, -4, -2, 2
1503614577678,-3, -3, -11, -1, -1, -2, -4, -3
1503614577693,-3, -1, 0, -1, 0, 0, -3, -5
1503614577715,0, -5, -7, -1, 0, -1, -1, 0
1503614577731,-4, -19, -9, 0, 0, 0, 1, -2
1503614577753,2, 5, 1, 3, 3, 1, 2, 1
1503614577775,0, -3, 4, -1, -2, -1, 0, 0
1503614577791,-2, -4, -4, -3, -3, -1, -3, -4
1503614577813,-1, -2, 4, -1, -1, -1, 0, 1
1503614577835,0, 8, -2, 2, 13, -3, -3, 4
1503614577850,1, 2, 0, 0, -9, 1, 5, 12
1503614577880,-1, -7, -3, -4, -2, -3, -2, -5
1503614577895,-1, 4, 3, 2, -4, 0, -4, -8
1503614577910,0, 1, -5, -4, -5, -3, -2, -1
1503614577933,0, 5, 0, 0, 0, 0, -1, -2
1503614577956,2, 0, -3, -1, -3, -2, 1, 13
1503614577963,-2, -7, -1, -2, -2, 1, -3, 2
1503614577986,-3, -6, -2, -2, -1, -1, 1, -3
1503614578001,-2, -1, -1, -1, 0, -1, 0, 0
1503614578026,1, -1, 12, 1, 1, -1, 1, 3
1503614578045,0, -3, -3, -3, 0, -2, 0, 1
1503614578062,0, 8, 6, 2, -1, 1, 0, -1
1503614578083,-1, 6, 10, 4, -1, -2, 2, 3
1503614578105,-3, -9, -3, -5, -3, -1, -4, -1
1503614578122,-3, -9, -6, -2, -4, -6, -4, 1
1503614578143,-1, 1, -3, -1, -2, 2, -1, -4
1503614578166,3, 4, 12, 5, -1, 0, -1, -1
1503614578181,-4, -21, -17, -5, -1, 0, -1, -2
1503614578203,3, 4, -1, -2, 5, 1, 0, 1
1503614578227,-4, -10, -5, -3, -1, 1, 0, 0
1503614578241,-1, -5, -13, -5, -3, -4, -1, 1
1503614578266,-1, 2, 7, -1, -3, 2, 2, 1
1503614578286,1, 4, -3, -2, -1, -2, -1, -3
1503614578302,3, 12, 3, 1, -3, -3, 0, 3
1503614578323,-4, -10, -6, -1, 1, -1, -4, -7
1503614578345,-1, 0, -11, -3, -3, 0, -2, -4
1503614578363,0, 1, 6, 5, 2, -2, -2, 0
1503614578383,-2, 6, 0, -1, -1, 0, -1, 1
1503614578406,0, -1, 7, 1, 2, -1, 1, -3
1503614578421,-3, -4, 3, 2, -2, 0, 0, 1
1503614578443,-1, -8, -8, -3, -2, 0, 3, 2
1503614578466,-2, 2, 0, 1, -1, -1, -2, -6
1503614578481,-2, -5, -4, -3, 2, 0, -3, 0
1503614578504,4, 3, 1, -2, -5, -3, -2, 2
1503614578525,-3, -12, -2, -1, -2, -3, -3, -5
1503614578541,-3, -7, -7, -1, -2, -4, -2, -6
1503614578563,-3, 3, 4, -1, -2, 3, -2, -6
1503614578585,4, 9, -1, -2, -3, -3, 1, 3
1503614578608,-4, -1, -5, 0, 2, -1, 1, 3
1503614578623,5, 22, 3, 1, 2, 1, 0, 6
1503614578645,-2, -7, -3, -1, 0, 1, 0, -3
1503614578668,-2, -10, -3, 0, -2, 0, 0, 0
1503614578683,1, -2, -3, -2, -8, -1, -1, 3
1503614578706,0, 2, 8, 0, 0, 0, 3, 2
1503614578730,-1, 1, -1, 0, 2, -1, -2, -3
1503614578743,-2, -5, -1, 0, 1, 2, -1, -2
1503614578766,2, 6, 3, -1, 2, -1, 0, 0
1503614578788,-2, -7, -5, 0, -2, -2, -1, -2
1503614578803,-2, 6, 2, 0, 1, 2, 2, -1
1503614578825,-3, 0, -11, -8, -4, -4, -7, -5
1503614578848,6, 17, 15, 3, 1, -1, 3, 3
1503614578864,-3, -14, -12, -3, 0, -2, -3, -2
1503614578885,-2, -1, 1, -1, -1, 1, 0, 0
1503614578908,6, 7, 9, 1, -1, -5, -1, 1
1503614578923,-4, 8, 2, 1, 0, 0, -2, -7
1503614578946,-1, -12, -7, 0, -1, 1, 1, 6
1503614578968,-4, -4, 3, 0, -4, -1, 0, -3
1503614578983,0, 4, 8, 0, -3, 1, 0, -3
1503614579007,3, -1, -2, -2, -3, 1, 1, 4
1503614579028,0, 1, -2, 1, 3, 0, 0, -7
1503614579043,3, -8, -9, -4, -2, -1, -1, 11
1503614579066,-7, -13, -4, -2, -5, -1, -3, -7
1503614579088,-5, -6, -2, -1, 0, -1, -2, -2
1503614579104,6, 8, -7, -4, -1, -1, -2, 3
1503614579125,-5, -10, -6, 0, 1, -1, -1, -1
1503614579148,-7, -11, 2, -2, 0, -2, 0, -3
1503614579163,-1, 4, -1, 0, 0, -2, -1, -5
1503614579185,0, -3, -4, -1, -3, -4, -2, -2
1503614579209,-1, -1, -7, -1, 2, 1, 0, -12
1503614579223,0, 4, 5, -1, -1, 2, -3, 3
1503614579245,0, 0, 3, 1, 1, -2, 1, -1
1503614579268,-3, -5, -3, 1, -3, 2, -1, 4
1503614579283,3, 18, 1, 1, 0, 0, 1, -3
1503614579306,-2, -7, -1, -3, 1, -5, 0, -2
1503614579328,0, -6, -5, -2, -2, -2, 0, 0
1503614579343,-2, -4, -1, -2, 2, 1, 1, 4
1503614579368,0, 1, 0, -3, -1, 1, 2, 2
1503614579388,-4, -5, 0, 1, -1, 0, -3, 0
1503614579404,10, 7, -2, -2, 2, 0, -1, 5
1503614579425,-3, -5, 3, 2, -1, -2, -1, -5
1503614579436,-3, -15, -12, -5, -7, 1, 0, 0
1503614579455,-2, -7, -3, -1, -2, -1, -2, 0
1503614579477,-2, 1, -3, 0, -4, -1, -3, 2
1503614579493,6, 18, 9, 0, 0, 1, 1, 7
1503614579515,2, 1, -11, -2, 0, -2, -2, 2
1503614579537,0, 0, 2, -1, -1, 0, -2, -2
1503614579546,-1, -5, -5, -3, -2, -3, -1, 0
1503614579570,2, 12, 0, -1, -1, 1, -2, -3
1503614579590,4, -4, -1, -4, -1, -4, -4, 1
1503614579606,-3, -7, -5, -1, -1, 0, 0, 0
1503614579628,0, 14, 10, 0, 0, 1, 0, 0
1503614579650,-5, -8, -4, -2, -1, -1, 0, -5
1503614579657,0, -5, -1, -2, 2, 1, -1, 1
1503614579680,-1, -8, -1, 2, -1, 1, 1, 0
1503614579695,1, 5, -2, -1, 0, -3, -2, -2
1503614579717,-3, 3, -2, -2, -4, -2, -2, -1
1503614579740,-3, -25, -7, -3, -1, 2, 0, -4
1503614579755,0, -5, -1, -4, 0, -2, -1, 4
1503614579779,-3, 4, -2, 0, 1, 1, -1, 0
1503614579801,0, 2, 6, 0, 0, -3, 0, 2
1503614579816,-2, -11, -17, -2, -2, -1, 0, -3
1503614579839,-3, -5, -7, -4, -5, -1, 0, 1
1503614579861,-3, -11, -3, -4, -3, -2, -2, -6
1503614579876,-4, -4, -4, -1, -2, -2, -1, -5
1503614579891,5, 5, -1, -3, -4, -2, 0, 4
1503614579906,-6, -11, -10, -5, 0, -2, -3, -4
1503614579928,4, 5, 4, -1, 1, 1, 2, 2
1503614579950,-8, -4, -2, 2, -5, -2, 0, 1
1503614579965,-1, 8, 0, 3, 1, 1, 1, 0
1503614579988,5, 0, -1, 0, 0, -2, -1, 3
1503614580011,-11, -3, 5, 1, 0, 0, 0, 0
1503614580026,4, 5, 8, 1, 1, 0, 1, 2
1503614580049,-1, 3, 1, -1, -4, -2, -2, -3
1503614580073,2, 4, 2, -2, -1, -2, -2, -4
1503614580085,0, -3, -3, -1, 0, -3, 0, 2
1503614580108,3, -3, 0, -1, 0, 1, 0, 4
1503614580124,-3, -9, -5, -5, -3, -4, -3, -4
1503614580140,0, 6, 4, -1, -1, -1, 0, 2
1503614580161,-2, -6, 0, 0, 0, -2, -1, 0
1503614580183,0, -4, -3, 0, 1, -1, 1, 1
1503614580200,-5, -12, -11, -6, -5, 1, -1, -1
1503614580221,-3, 2, -2, -2, 0, 0, -2, 3
1503614580244,-4, -4, -2, -1, 6, -1, 0, -2
1503614580260,9, 9, 1, 2, -5, -1, -2, 1
1503614580287,-3, -2, -1, 0, -1, -4, 0, -5
1503614580303,0, 6, 3, 0, -4, -2, -3, -2
1503614580319,-2, -13, -5, -2, -2, 1, -1, 2
1503614580343,3, 2, 3, -1, 0, -1, 4, -1
1503614580364,0, -1, -2, -1, -1, -3, -8, -10
1503614580378,-2, -1, -5, -1, -2, -1, -1, -8
1503614580393,-9, 4, 8, 1, 0, 2, -1, -1
1503614580408,-1, -2, 1, -3, 2, -1, 1, 2
1503614580430,-13, -8, -6, -2, -1, 2, -1, -3
1503614580446,-2, 9, 3, 1, -2, -3, -3, -15
1503614580468,-4, 5, -1, 1, 2, -2, -4, -19
1503614580490,-4, -12, -3, -3, -2, -4, 0, 4
1503614580513,-1, -6, -1, -1, -2, 0, 1, 17
1503614580528,4, 0, -2, 0, -1, -4, -2, 7
1503614580551,-4, -11, -10, -2, -1, -2, -4, -9
1503614580574,7, 5, 1, 0, -1, 2, 2, 5
1503614580588,6, 1, 1, 2, 1, 2, 3, 31
1503614580611,5, 4, 12, 5, 0, 2, 0, -5
1503614580633,2, 6, -4, -1, 0, -1, 2, -11
1503614580648,1, -4, -3, -1, -1, -3, -4, 4
1503614580670,-2, -4, -6, -3, 1, -2, -4, 0
1503614580693,-6, 2, -2, -3, -2, -1, -5, -17
1503614580711,-1, -13, -9, -6, -3, -2, -2, 4
1503614580730,-8, -7, -1, -1, -4, -3, -1, -12
1503614580753,0, 3, -1, -1, -2, 3, 3, 3
1503614580768,3, 8, 7, 2, -4, -2, 0, -11
1503614580790,-4, -9, -4, -2, -1, -2, -1, 3
1503614580813,-2, -1, 1, 1, 1, 0, -2, 2
1503614580828,4, -4, -2, -1, -2, -2, -2, 3
1503614580850,-10, -9, -10, -2, 0, 0, -4, -1
1503614580873,-3, 0, 1, 1, 1, 0, -3, -11
1503614580888,2, 1, 2, 1, -2, -1, 1, 5
1503614580913,-6, -4, -5, -4, -2, -2, -4, 2
1503614580933,4, 2, -3, -2, 3, 2, 5, 15
1503614580948,6, -1, 2, -1, 0, 0, 3, -7
1503614580971,-5, -2, -2, 1, 0, 1, 0, -16
1503614580993,-4, 1, 2, 1, -2, 0, -1, 1
1503614581009,-10, -3, -5, -1, 0, -2, -6, -18
1503614581031,8, 5, 3, 0, 2, -1, 2, 13
1503614581053,-1, 0, -1, -2, -2, -1, 0, 6
1503614581068,-6, 3, 5, 0, -4, 1, 0, 13
1503614581095,17, 14, 13, 4, 4, 1, 1, 3
1503614581114,-9, -6, -7, -4, -3, -5, -1, -8
1503614581130,0, -3, -5, -5, -5, -2, 5, 5
1503614581151,17, 13, 14, 5, -4, 2, 0, 4
1503614581173,-16, -10, -6, -4, 1, -3, -3, -9
1503614581189,8, -1, -4, -1, 6, 1, -3, 0
1503614581211,-5, -16, -17, 0, -2, -3, -5, -7
1503614581233,-12, -9, -3, -6, -6, -3, -4, -13
1503614581248,10, 5, -2, 0, 2, -1, -2, 9
1503614581271,-13, 8, 4, 2, 0, -2, -3, -6
1503614581293,10, 9, 2, -4, -1, -2, 4, -15
1503614581308,-6, -4, 0, -2, -3, -1, -4, -10
1503614581325,12, 5, 1, 0, -3, 0, 0, 10
1503614581338,-4, 2, 2, 4, 2, -4, -2, -33
1503614581353,10, -2, -4, -3, -1, 4, 3, 12
1503614581368,-16, -11, -9, -2, 0, -1, 1, 6
1503614581391,-8, -12, -4, -3, -2, -1, -5, -32
1503614581416,4, 2, 5, 3, 2, 0, 1, 9
1503614581435,-14, 1, 7, 0, 0, -4, -6, -23
1503614581443,-3, -3, -4, 0, -2, -3, 5, 33
1503614581465,19, 2, -3, -1, -1, 3, 8, 29
1503614581482,-18, -2, -6, -1, -2, -3, -3, -28
1503614581496,-5, -1, -8, -4, -3, -3, -3, -13
1503614581511,4, 10, 3, 1, 1, -1, -1, -11
1503614581533,12, -3, -2, -3, -1, -3, -1, 14
1503614581556,-12, -5, -5, -2, 0, -1, -1, -8
1503614581564,-9, -13, -4, -3, -1, -1, -8, -1
1503614581586,15, 19, 20, 6, 3, 1, 4, 4
1503614581601,-2, -2, 1, -1, 2, 2, 2, -24
1503614581625,-4, 6, -4, -5, -2, -3, -2, 13
1503614581645,12, -14, -3, 0, 1, -1, -3, -5
1503614581661,-3, 3, 3, 1, -1, -1, -1, -1
1503614581685,-2, 25, 12, 0, -3, 1, 3, 5
1503614581705,1, -14, -5, -5, 0, 2, 4, 21
1503614581721,1, -13, -9, -3, -2, 1, 11, 56
1503614581751,-1, 3, 1, 3, 0, 2, 2, -5
1503614581773,-11, -8, -4, -3, 1, -2, -5, -11
1503614581796,-19, -8, -2, 1, 2, 0, 0, -21
1503614581810,9, 0, -5, 2, 2, -1, 6, 38
1503614581833,1, 16, 18, -2, -5, -2, -8, -24
1503614581856,-16, 4, -3, -8, 9, -4, -6, -18
1503614581871,2, -3, -3, -2, -13, -2, 1, -6
1503614581894,16, -3, 10, 6, -2, 3, 4, 34
1503614581916,-9, -6, -2, -4, -3, -3, -3, -20
1503614581930,-15, 3, 6, 5, 1, -1, 0, -42
1503614581961,8, -15, -22, -5, -4, -3, -3, -1
1503614581976,0, -6, 0, -3, 1, 1, 2, 6
1503614581991,6, 3, -1, -3, 1, 0, -4, 15
1503614582013,-3, 13, 3, -4, -4, 0, 0, -10
1503614582036,11, 4, 2, 3, 0, 1, 8, 29
1503614582050,-2, -13, -13, -5, -3, -6, -5, -10
1503614582073,-18, 5, 0, -6, -2, 1, -4, -16
1503614582096,8, -2, -2, 4, 0, -1, 6, 21
1503614582110,6, 5, 4, 3, 2, 0, -4, 8
1503614582133,7, -1, 0, 1, 0, -2, 4, 17
1503614582155,4, -1, -7, -5, -2, -2, -4, 27
1503614582170,2, 5, -7, -4, -3, -2, 1, -10
1503614582188,-13, -29, -15, -5, -2, 1, 1, -5
1503614582201,5, 0, 5, 2, 2, 1, 4, 4
1503614582223,-11, 9, 8, 6, 1, 3, -2, -44
1503614582245,7, -7, -12, -3, -1, -1, -1, 22
1503614582261,-2, 6, 8, 2, 2, 1, 0, 3
1503614582283,-2, 14, 15, 1, 0, 1, -7, -47
1503614582305,0, -2, 0, 0, 0, -5, -2, 0
1503614582323,5, -10, -9, -2, -1, 0, 0, 30
1503614582343,6, 11, -7, -2, -1, -3, 1, 9
1503614582365,0, 7, 2, 2, 2, 2, -2, 0
1503614582389,7, -3, -7, -2, -1, 0, 2, 14
1503614582403,4, 4, 2, 0, -1, -2, -2, -8
1503614582425,-1, -6, -9, -2, -2, -3, -2, 16
1503614582433,12, -6, -1, 0, 0, 2, 3, 8
1503614582458,-6, -5, -11, -3, -3, 2, 9, 34
1503614582477,-1, 7, 3, 2, 1, 1, 0, -6
1503614582493,-4, -1, 1, -2, 0, 0, -1, -4
1503614582515,-3, 0, 2, 0, -2, 0, -2, 1
1503614582537,-11, 5, 5, 6, 1, -2, -3, -9
1503614582553,0, 3, 3, -1, 1, 0, -5, -2
1503614582575,-2, -6, -3, -3, -3, -4, -2, -2
1503614582597,-4, -15, -13, -5, -6, -1, -1, -3
1503614582613,-6, 12, 5, 2, 1, -4, -4, -13
1503614582635,-1, -8, -7, -3, -3, -1, 0, 4
1503614582658,3, 4, -3, -3, -2, 0, 1, 1
1503614582673,8, 12, 11, 0, -1, 2, 2, 15
1503614582696,-1, 12, 7, 0, 3, 2, -2, -6
1503614582717,5, 10, 4, 5, 2, -2, -4, 0
1503614582733,3, -5, -6, -1, 2, 0, 0, -2
1503614582755,-3, -12, -4, 0, 0, -1, 0, -1
1503614582764,6, -2, 1, 0, 2, 1, -1, 8
1503614582785,-20, 2, 3, 1, -5, 0, -1, 2
1503614582808,3, 1, -2, -4, -5, 0, -2, -17
1503614582825,-3, -6, -1, 0, -1, -5, -8, -15
1503614582845,11, 3, 3, 1, 0, 3, 5, 45
1503614582868,10, 5, 2, 1, -1, -1, 0, -15
1503614582883,9, 7, 3, -2, 1, 3, 4, 20
1503614582905,-8, 0, 2, 5, 3, -1, -3, -6
1503614582929,-7, -16, -2, -5, -5, -3, 0, -4
1503614582943,-9, -3, -1, 0, 2, 1, -4, -27
1503614582966,-4, 9, 1, -1, -1, -1, -3, -21
1503614582988,-7, 0, -3, 0, -3, -3, -3, 0
1503614583003,3, 0, -5, 0, -1, 1, 4, -3
1503614583027,-2, 3, -1, 0, -2, 1, -4, 2
1503614583048,2, 8, 11, 2, 2, 0, -1, -9
1503614583064,1, -7, -1, 1, 2, 0, -1, 16
1503614583085,1, -4, -9, -3, -1, -2, 2, 18
1503614583108,-1, -14, -9, -2, 0, -5, -1, 13
1503614583123,6, -4, 5, 1, -1, 2, 2, -6
1503614583145,-6, -3, -10, -4, -1, -2, -4, -28
1503614583169,4, 27, 10, 2, 2, 3, 2, 2
1503614583190,14, -10, -16, -2, 0, -2, -1, -2
1503614583205,-10, -9, -4, -1, 1, -1, -1, -3
1503614583228,-4, -11, -3, 0, 0, -1, -2, 6
1503614583245,0, -5, -5, -2, -3, -1, 1, -3
1503614583267,-1, -4, 2, 2, 0, -2, 0, 8
1503614583288,-16, -10, -2, -1, -5, 0, -3, -36
1503614583317,5, 9, 6, -3, -2, -3, -3, 5
1503614583319,-5, -13, -10, -5, 0, -3, 0, -5
1503614583340,2, -2, -3, -5, -4, 0, -4, 6
1503614583355,-4, -1, -3, -1, -2, 0, -2, -11
1503614583378,10, 4, -2, 0, 0, -1, 3, 0
1503614583400,-2, 6, 4, 1, 0, 1, 0, -7
1503614583415,-3, -8, -7, -4, -3, -2, -2, 15
1503614583438,-4, -9, -2, 0, 0, -3, -1, 7
1503614583459,-7, -6, -4, -3, -1, -1, -3, -12
1503614583475,-1, -1, -4, -3, 1, -1, -3, -19
1503614583498,0, 11, -1, -2, -2, 1, 1, -11
1503614583520,-5, -10, -5, 0, -3, 0, -2, -7
1503614583535,-1, -6, -3, 0, -2, -4, -4, 4
1503614583558,-3, -12, -4, 0, -2, 0, 2, 6
1503614583580,2, 3, -1, 1, 0, -1, 2, -2
1503614583597,1, -11, -7, -2, 3, 0, -2, 11
1503614583625,-3, -13, -7, -3, -3, -2, -2, -2
1503614583640,3, -5, -2, 0, 0, 0, 1, -3
1503614583655,3, 11, 11, 0, -4, -1, -1, 5
1503614583677,12, 6, 4, 6, 4, 1, 4, 55
1503614583700,-1, 20, 6, 1, 1, -1, 1, -13
1503614583715,-4, -4, -6, -4, -3, 0, -2, -11
1503614583737,-6, -1, -5, -3, 1, 2, -2, -8
1503614583759,12, 40, 15, 2, 1, -1, 1, 4
1503614583775,-10, -17, -6, -6, -5, -4, -1, -13
1503614583800,-5, -19, -11, -2, -2, -1, -3, -7
1503614583820,-11, -13, -3, 0, 0, 1, 0, -4
1503614583836,4, 7, 8, 1, 1, 2, -1, -2
1503614583858,-4, 2, -2, -2, -4, -3, -1, -1
1503614583880,-3, -17, -18, -4, -3, -1, 0, 0
1503614583903,3, 15, 13, 3, 1, 1, 0, 1
1503614583918,26, 47, 25, 6, 5, -2, 0, 3
1503614583941,-13, -17, -8, -4, -3, -1, -1, 2
1503614583956,-2, -11, -7, -1, 0, 0, 0, -2
1503614583978,0, 12, 12, 1, -1, -1, -1, 8
1503614584001,-6, -10, -5, -2, -2, -2, 0, -8
1503614584015,-4, -12, -6, -3, -1, 1, -3, -5
1503614584038,-3, -4, -7, -1, -1, -2, -2, -4
1503614584060,-2, -11, -6, -1, 0, 0, -5, -2
1503614584076,0, -6, -1, 0, -1, 0, 1, 6
1503614584098,1, 4, 1, 0, 0, -1, 1, 5
1503614584120,-5, -4, -6, -2, -2, -3, -2, -10
1503614584136,-5, -2, -2, -2, -1, 2, -1, -5
1503614584158,6, 11, 4, 2, 0, -2, 2, 23
1503614584187,-3, -22, -13, -4, -2, -3, -1, -9
1503614584195,-1, 0, 3, 1, 1, 0, -2, -10
1503614584218,-1, -12, -9, -3, -1, 1, 1, 10
1503614584241,-1, 1, 1, 0, -4, -1, -1, -8
1503614584262,0, -2, 2, -3, 0, 0, 0, 6
1503614584278,0, 3, 4, 0, 2, 1, -4, -3
1503614584300,-2, -3, -3, -2, -2, 0, -1, -7
1503614584308,3, -8, -4, -2, 14, -1, -1, -10
1503614584330,-6, -18, -15, -4, -11, 0, 0, -4
1503614584353,-5, -16, -12, -5, -7, -1, 0, -2
1503614584369,-3, -8, -7, -3, -1, -4, 0, -1
1503614584390,0, 12, 8, 1, 0, 0, 0, -9
1503614584413,1, 2, 3, 0, -1, 0, 1, 0
1503614584428,-1, 5, 2, 0, -1, 0, 1, -3
1503614584450,4, 12, -2, -1, -1, 1, 0, 3
1503614584473,-2, -15, -4, 1, -1, -1, -5, 2
1503614584488,-5, -8, 3, 1, 0, -2, -2, -4
1503614584511,1, -5, -8, -4, -3, -1, 0, -1
1503614584533,-1, -2, 1, -3, 0, 0, -1, -1
1503614584549,4, 9, 1, 1, 0, 1, -2, 2
1503614584572,0, 6, 5, 1, 2, 0, 0, 0
1503614584579,0, -6, -4, 0, -2, -1, -2, -3
1503614584600,-2, -10, -7, 0, 0, -2, 1, 2
1503614584622,0, -7, -8, -3, -1, 2, -3, -5
1503614584638,-2, -11, -7, -3, -2, -6, -6, -7
1503614584653,0, 0, -6, -2, -4, 0, -2, 2
1503614584668,-5, 0, -4, -4, -1, -2, -1, -1
1503614584691,-6, -4, -1, -2, -4, -4, -1, -10
1503614584714,-3, 8, -3, -2, 1, 1, -2, -13
1503614584728,1, -9, -11, -2, -1, -4, -3, -7
1503614584750,7, -3, 0, 1, 0, 0, 3, 20
1503614584773,-5, -4, -8, -3, -2, -1, -1, -2
1503614584788,5, 10, -6, 0, -1, 0, -2, -11
1503614584810,9, -2, -1, 0, -2, 0, 3, 41
1503614584833,-7, -10, 0, 0, -2, -1, -1, -5
1503614584848,-10, -6, -2, -3, 1, -1, -4, -19
1503614584872,-3, 0, 3, -1, -2, 0, 0, -8
1503614584893,-8, -13, -12, -4, 0, -2, -2, 0
1503614584908,-6, 0, 0, -2, -2, -1, -2, -11
1503614584930,2, 7, 7, 0, -1, -3, 0, 2
1503614584953,7, 4, 0, 2, -3, 0, 1, 10
1503614584968,10, -2, 4, 1, 3, 1, 4, 21
1503614584990,-4, -3, -6, -2, 0, -4, -3, -10
1503614585013,-5, -3, -3, 0, 1, 3, -2, -13
1503614585028,4, 7, 9, -1, 0, -1, 2, 2
1503614585050,0, 4, 4, 2, 1, 1, -1, -5
1503614585075,-2, 4, 4, 0, -4, -2, -2, -1
1503614585089,-4, -3, -3, 0, 0, 1, -4, -2
1503614585110,2, 0, 1, 2, -1, -5, -3, 1
