1503686425865,-2, -1, 0, -1, -3, -1, -1, 0
1503686425887,1, -1, -2, -1, -2, -1, -1, -3
1503686425909,-1, -1, 0, -3, -1, 0, 3, -2
1503686425925,-1, -3, -2, -2, 0, -2, 1, 0
1503686425947,-2, -1, -2, 4, -1, 0, -2, 1
1503686425970,-2, -1, -3, -1, -1, -1, 0, -2
1503686425984,-2, -2, 1, 2, -2, -1, 0, -1
1503686426007,-2, 0, -1, 0, -2, -1, 0, -2
1503686426031,1, -2, -3, -1, 1, -2, -3, 0
1503686426045,1, 1, 0, 0, -2, -2, -4, -1
1503686426067,-2, 1, 1, -1, -1, 1, 0, 1
1503686426089,0, -1, 2, 1, 0, -1, -1, 1
1503686426104,-1, -1, 0, -2, -4, -1, -1, -3
1503686426120,-3, -1, 0, -1, 0, -2, 0, -2
1503686426136,-1, 1, -3, -1, 2, -2, -2, -1
1503686426158,-4, 0, 2, -2, -3, 0, -1, 0
1503686426180,-2, -4, -1, 1, -3, -2, -2, -3
1503686426198,3, 2, -1, -1, 1, 1, 1, 1
1503686426218,-1, 0, 1, -2, -2, -1, -1, 0
1503686426225,0, 2, 2, 0, 2, -2, -1, 0
1503686426248,0, -4, -1, -2, -4, 0, 0, -1
1503686426271,-3, 3, 3, -1, 0, 0, -2, 0
1503686426285,-1, -1, -1, -1, -1, 0, -3, -2
1503686426307,-2, -2, -1, -1, -1, -2, -1, 0
1503686426331,0, -1, 1, -2, 1, -1, -1, -3
1503686426344,-1, -1, -1, -2, -1, -1, 0, 0
1503686426368,-1, -2, 1, 0, -2, -2, 0, 0
1503686426390,-1, 0, -2, 1, -1, 1, 1, -2
1503686426405,0, 1, -4, -2, -1, -1, 0, -1
1503686426427,-2, 0, -1, 1, -10, -2, -1, -1
1503686426450,-1, 0, 1, 0, 5, -1, 1, 1
1503686426471,1, -1, 1, -1, 2, 0, -2, 0
1503686426487,-1, -2, -1, 2, -2, 0, -1, -2
1503686426510,0, -4, 0, -3, 0, 1, -1, -1
1503686426533,-2, 0, 1, 2, 0, 1, 0, 0
1503686426547,0, 2, 0, 0, 0, -1, -2, 0
1503686426570,2, 0, -2, -1, -2, -2, -2, 0
1503686426592,-4, -1, -3, -2, -4, 2, 1, -1
1503686426607,-2, -1, -1, -1, 1, 0, 0, 2
1503686426630,1, -2, 2, 0, -1, -4, -2, -2
1503686426651,-1, -2, 2, -1, -1, -1, -1, -3
1503686426668,1, 0, 0, -1, -1, -1, 0, -2
1503686426690,0, -1, -2, -1, 1, -1, -1, -2
1503686426712,-3, 0, 0, -2, -1, 0, -1, 0
1503686426727,-1, 0, 0, -1, 1, -2, -1, 0
1503686426749,-1, -1, -3, -1, -2, -1, -1, 0
1503686426771,-1, 0, 1, 0, -1, 1, 1, 0
1503686426787,2, -1, -1, -1, -1, -4, -3, -1
1503686426810,0, -1, -2, -3, -2, 1, -3, 0
1503686426831,0, 0, -3, -2, -1, 0, 2, 0
1503686426847,-1, -2, -2, 0, -2, 1, 2, -2
1503686426870,-1, -2, 1, 0, -2, -2, -3, -2
1503686426891,-1, -2, -4, 0, -1, 0, -2, -1
1503686426907,-1, 0, -1, -1, 2, -2, -2, 0
1503686426930,-1, -2, 0, -3, 1, -2, -1, -1
1503686426951,-1, -1, 2, 0, -1, -2, 1, 0
1503686426969,-4, -1, -2, 1, 0, -2, -1, -1
1503686426989,0, 2, -2, -2, 1, 2, 0, 0
1503686427011,1, 0, -1, 1, -2, -2, -3, -2
1503686427020,-1, 0, 1, -3, -2, -1, -1, -2
1503686427042,-1, -2, -2, 0, -2, -1, -4, 1
1503686427058,2, 1, 3, 2, -2, 0, 0, -2
1503686427080,-4, -2, -3, -1, -1, 0, 1, -1
1503686427104,2, -1, 0, 1, -2, -2, -2, -1
1503686427110,0, -1, -2, -2, -2, -1, -1, 0
1503686427131,1, -2, -3, -1, -1, 0, -2, -1
1503686427148,1, -2, -1, 0, -2, -2, -2, -3
1503686427172,1, 2, 4, 1, 0, -1, -1, -1
1503686427191,-2, 1, -2, -1, -4, 0, -1, 0
1503686427207,0, -1, 0, -2, -1, -3, 0, 0
1503686427229,-4, 0, 0, 0, -1, -1, -1, -3
1503686427251,-1, -2, -2, -1, -1, 2, -1, -1
1503686427267,-3, -1, -2, -1, -1, -1, -1, -3
1503686427289,0, -2, 0, -2, 1, -2, -1, -1
1503686427311,1, -1, -3, -3, -2, 0, 0, 1
1503686427327,0, -2, 0, 0, 0, 0, 0, -1
1503686427351,0, -2, -1, -2, -4, 0, -2, 0
1503686427373,0, -3, 1, 1, 2, 0, 0, 0
1503686427409,0, 1, -2, -1, -2, 0, 2, -2
1503686427412,0, -3, 1, 1, -3, 0, -2, 0
1503686427440,1, -1, 0, 0, 0, 0, -2, 0
1503686427462,2, -2, -2, -2, -2, -3, -2, -2
1503686427485,-3, 1, 1, -2, 0, -1, 2, -1
1503686427499,-2, 1, 0, -2, -2, 1, -3, 0
1503686427522,-1, 1, -2, 0, 0, -2, 0, -1
1503686427545,1, -3, 0, 1, -5, 0, 3, 0
1503686427559,-2, -1, -2, -1, 2, 0, -2, -4
1503686427583,2, -2, -1, -1, 1, 0, -1, 2
1503686427605,-1, -2, 1, 0, -5, -3, -3, -1
1503686427620,-3, 0, 0, -1, 0, -2, 0, -1
1503686427642,-1, -2, 1, 1, -1, 1, -3, -1
1503686427664,0, 0, -2, 1, -1, -3, -1, 1
1503686427680,-1, -4, -2, -1, 0, 0, 1, 1
1503686427702,0, -1, 2, -3, -1, 1, -1, -2
1503686427724,0, -2, -2, -2, -1, -2, -1, -3
1503686427741,2, 0, 1, -4, 0, 0, -3, 1
1503686427762,0, -1, -3, 1, 1, 0, 1, 0
1503686427784,0, 0, -2, -1, -3, 0, -2, -2
1503686427799,-1, 0, 4, -1, -1, -2, 0, -1
1503686427822,0, -2, -3, 1, 0, 1, 0, 0
1503686427844,1, 2, -1, -1, 2, 1, 2, 0
1503686427851,-3, -3, -1, 0, -2, -1, -2, -2
1503686427876,1, -1, 2, -1, -1, -1, -3, -2
1503686427889,0, -2, -3, -2, 0, -2, 1, -1
1503686427911,0, 0, 1, 1, 0, 1, 2, -1
1503686427934,2, 3, -1, -1, -3, -2, 1, 1
1503686427952,-2, 0, -3, 0, 0, 1, 0, -1
1503686427971,1, -1, 2, 1, 1, -2, 1, -1
1503686427994,2, -1, -2, -2, 0, 2, -3, -1
1503686428010,-1, -1, -3, 0, -1, -4, -1, 2
1503686428031,-2, -1, -3, -1, -4, -1, -4, 0
1503686428054,-3, -1, 0, 0, 0, -1, -1, -3
1503686428069,-2, 0, -2, -1, -2, 0, 1, -1
1503686428091,1, -2, -1, -2, 0, -2, -2, 1
1503686428114,1, 0, 0, -2, 1, -2, 1, -1
1503686428129,-2, -2, 1, 0, 0, 1, 0, 1
1503686428153,2, 0, 1, -2, 0, -1, 1, 0
1503686428174,-3, 1, -1, -4, 0, -2, -2, -2
1503686428190,-1, -6, 0, 0, -2, -1, -1, -2
1503686428205,-1, 0, -1, 1, -5, -2, 0, 1
1503686428220,-1, -1, 1, 0, 2, -1, 1, -1
1503686428242,2, 0, 0, -4, 1, -2, 1, -1
1503686428265,-1, -2, 0, 1, -3, 0, -1, -2
1503686428287,0, -2, 0, -1, 0, 0, -1, -1
1503686428302,-1, -1, 0, 1, -1, 0, 0, -4
1503686428324,-4, -1, 1, -2, -1, -1, 0, 2
1503686428349,-1, 1, 1, 1, -2, 0, 0, 3
1503686428355,-4, 1, 4, 0, 1, 0, -1, -1
1503686428376,2, 0, 0, 0, -1, -3, -1, -2
1503686428391,-3, 0, -1, 0, -1, 0, -2, 1
1503686428414,-1, -1, 2, 0, 0, 1, -2, 0
1503686428436,-4, 0, 1, -1, -5, -1, 0, -2
1503686428452,2, 1, -3, -2, 2, -1, -1, -1
1503686428474,-1, 0, 1, -1, -1, -2, 2, -1
1503686428496,2, -3, -2, -2, -1, 0, -2, -1
1503686428515,-3, -2, -1, 0, -3, -2, -1, -1
1503686428533,0, -2, -3, -1, 0, -1, 0, 0
1503686428542,0, 0, 0, -3, 3, -2, -2, 0
1503686428564,0, 0, 2, 1, -3, -2, -1, -2
1503686428587,0, -2, 2, 1, -1, -1, 1, -2
1503686428602,-2, -2, -1, -1, 0, -1, -1, -1
1503686428624,-4, -3, -2, -2, -3, -2, -4, -1
1503686428640,0, -3, -1, -3, 0, -2, 1, 0
1503686428656,0, 1, -3, 5, 0, 0, -2, -2
1503686428677,-2, -3, -3, -3, -1, -2, -1, -3
1503686428686,1, -2, -1, -2, -2, 0, -1, 0
1503686428707,0, 1, 2, -1, -1, -1, -1, -3
1503686428723,-3, -3, -5, 0, 1, 0, -2, -1
1503686428745,0, -3, 0, 0, -2, 0, -2, -1
1503686428767,-1, 0, -2, -1, 1, -1, 0, 0
1503686428783,1, 2, 0, 1, -1, 0, 1, 0
1503686428808,-2, -3, -1, 1, 0, 0, -3, 0
1503686428827,0, -3, -3, -2, -1, -3, 0, -2
1503686428842,0, 0, 1, 0, 0, -1, -1, -2
1503686428865,0, -1, 2, -2, -2, -1, 0, -1
1503686428887,-1, 0, -2, 1, 1, 1, -2, -2
1503686428902,-1, -3, -1, -1, 1, 0, 0, -2
1503686428924,-1, -1, 1, -1, -3, -3, 0, 0
1503686428947,0, -2, -2, -2, -2, 0, -1, -1
1503686428962,0, 2, 1, 1, 0, 0, 0, -1
1503686428985,0, -2, 0, -1, 0, 0, 0, 0
1503686429007,-4, 1, 1, -1, -1, -1, 2, -1
1503686429022,-3, -3, -3, -2, -3, 0, -2, 1
1503686429045,-1, -1, 0, -1, 1, -3, -4, -2
1503686429067,-1, -1, 1, 2, 0, -1, 1, 0
1503686429084,0, -1, -4, -1, 0, 0, 0, -1
1503686429104,2, -1, -1, -1, -2, -3, -2, 0
1503686429127,-2, -2, 0, -3, 0, 2, -3, -1
1503686429142,-2, -2, 0, 1, 0, 0, -2, 0
1503686429165,-2, -2, -2, -1, -3, 1, 0, -2
1503686429187,0, -3, -1, 0, 0, -2, 0, 0
1503686429202,-2, 0, -1, -1, -1, -1, -2, 1
1503686429224,0, -1, 1, -2, -1, -1, -3, -1
1503686429247,-2, 0, 0, -1, -3, -2, 2, 1
1503686429269,-1, 1, -1, -2, -1, 0, 0, -1
1503686429285,-1, 3, 3, 3, 1, -2, 0, -1
1503686429307,0, -1, -2, -2, -2, 0, -2, -2
1503686429329,-1, -2, 0, 0, -4, -1, 2, -2
1503686429344,0, 1, 1, -2, -1, -1, 1, -1
1503686429367,-2, -2, 0, -3, 0, -3, -5, 1
1503686429389,-2, -1, -2, 0, 0, 1, -2, -1
1503686429404,0, 2, 0, 2, 3, 1, -1, -3
1503686429427,-1, -1, -1, 1, -1, -1, 0, -1
1503686429449,-2, -2, -1, -4, -1, -2, 2, -1
1503686429464,1, 1, 0, 1, 0, 2, -1, -4
1503686429487,1, -1, -1, -1, -1, -2, -1, 2
1503686429510,3, 0, -1, 2, 0, -1, 0, 1
1503686429524,-3, -3, 2, 0, -3, 1, 2, 1
1503686429547,2, -1, 1, -3, 2, -3, -5, -1
1503686429570,-3, -2, -2, 0, -3, -1, 0, 1
1503686429584,-1, -2, -3, -1, -2, -2, -2, -2
1503686429607,0, 0, -3, -1, -1, 0, 2, -2
1503686429630,0, 0, -2, 0, -1, 0, -2, -3
1503686429638,1, 0, 0, -3, -2, 1, -1, 1
1503686429660,-2, -2, 0, 0, 0, 0, -1, 3
1503686429675,0, 2, -2, 0, 0, -1, 1, -3
1503686429698,-3, -1, 0, 0, 1, -1, 0, 0
1503686429723,0, 1, -3, -3, -1, -1, -1, 0
1503686429735,-3, -1, 2, 2, -2, 1, 1, -2
1503686429750,-1, 0, 0, -1, 0, -2, 0, 0
1503686429765,-2, -2, -2, -3, -1, -3, -3, -1
1503686429789,-1, 2, 1, 1, 0, 0, -2, -2
1503686429809,0, -3, 0, 0, 1, 1, 3, 0
1503686429826,2, 2, 1, -1, -3, 0, 0, 0
1503686429847,-3, -2, -1, 1, -2, -1, 1, 0
1503686429869,0, 2, -1, -2, 1, -1, -2, -1
1503686429884,-2, -2, 0, -3, -3, -2, -4, -2
1503686429907,-1, -3, -2, -1, -1, -3, -3, -2
1503686429929,-2, -1, -3, -3, -2, -1, 3, 2
1503686429944,0, 0, 1, 0, 1, 0, -2, -1
1503686429967,2, -1, -1, 2, -1, -2, 2, 1
1503686429991,-1, -1, -3, 0, -1, 1, 1, -1
1503686430012,-2, -2, -2, 0, -1, -1, -2, -3
1503686430028,-1, -1, 2, -2, -2, 1, 1, -1
1503686430049,-1, -2, 0, -4, 1, -1, 0, -3
1503686430064,2, 0, -1, 1, -2, 1, 1, -1
1503686430087,-4, 1, 0, 0, -1, -1, -4, 1
1503686430109,1, -1, 1, -2, 1, -2, -2, -3
1503686430125,0, -2, -3, 1, 0, -2, 0, 1
1503686430147,-6, 0, -2, -1, 0, -1, -3, -2
1503686430169,3, 0, 0, -2, -1, -2, -1, 0
1503686430192,-1, 0, -1, -1, -3, -2, -3, 0
1503686430207,0, -2, 0, -1, 1, 1, 1, 1
1503686430229,0, -2, -1, 0, 1, -1, -2, -2
1503686430252,-1, 0, 0, -5, -2, -1, -1, -1
1503686430267,-1, 0, -3, 2, 1, 0, 1, -1
1503686430289,-2, 1, 2, 1, 2, -1, 0, -3
1503686430312,-2, -1, 1, 0, -2, 0, 0, 1
1503686430321,-2, 1, -1, -2, -1, 0, -1, 1
1503686430342,1, -4, -3, -2, -1, -4, 0, -3
1503686430359,-1, 0, 3, 3, -1, 0, 0, 1
1503686430380,1, 2, -1, 0, 1, -1, -4, 0
1503686430402,0, 0, 0, 1, 2, 0, 0, -1
1503686430418,-1, -2, 0, -2, -2, -1, -2, 0
1503686430440,-1, -3, -3, -1, -1, 0, -1, -4
1503686430462,0, -1, -1, -3, -1, -1, -2, -1
1503686430477,-2, -2, -1, 0, -2, 0, 1, -1
1503686430500,-2, -2, 0, 0, 0, 1, 0, -1
1503686430522,-3, -1, -3, -2, -2, -2, -1, -3
1503686430537,-2, 1, 1, 2, -3, -2, -1, 0
1503686430561,1, 1, 2, 0, 0, -1, 1, -1
1503686430582,1, -3, 0, -2, -1, 1, -3, -1
1503686430597,-1, -3, 0, 0, -2, -2, 0, 0
1503686430620,2, 0, -3, 1, -1, -2, -1, 1
1503686430642,0, -1, 0, 1, 1, 0, -2, -2
1503686430657,-1, 1, 2, -1, -2, 0, -3, -1
1503686430680,-2, -2, -2, 0, -2, -2, 0, -1
1503686430702,-2, -2, -1, 0, 1, 0, 1, 0
1503686430717,-1, 0, -4, -2, 0, -2, -2, -2
1503686430740,0, -2, -2, -2, 1, -1, 1, -2
1503686430762,0, 0, 0, -1, -2, 0, -4, -3
1503686430777,1, 0, 1, 3, -2, -1, -1, 0
1503686430800,-2, -1, 1, -1, -1, 0, -1, 0
1503686430822,0, -1, 0, -1, -1, -1, -1, 1
1503686430838,0, -3, 0, -1, 1, -2, 0, 0
1503686430860,0, -1, -2, -1, -2, -2, -1, 0
1503686430882,0, 2, 1, 0, 1, 1, 0, -2
1503686430897,0, 1, -4, -2, -1, -1, 0, 0
1503686430920,0, 0, -1, -4, -2, -2, 0, -2
1503686430942,-1, -2, 0, -1, -2, -1, 0, 1
1503686430957,-2, -3, 0, -2, 0, -3, -1, -1
1503686430980,0, 0, 0, 0, -3, 0, -2, -2
1503686431002,-3, 2, 0, 0, 3, 0, 2, 0
1503686431018,1, -1, -3, 0, 0, 0, -2, 0
1503686431040,1, 2, 0, 1, -1, -3, -2, -2
1503686431064,-2, -3, -2, -3, -1, -3, 2, 0
1503686431084,2, -2, -1, -3, -1, 0, -3, 1
1503686431100,1, 0, 1, 0, 1, 3, 1, 1
1503686431122,1, -1, 1, 4, -4, 1, 0, 0
1503686431144,4, 3, 0, 5, 8, 3, 2, 2
1503686431160,-3, -2, -1, -8, -9, -5, -3, -4
1503686431182,2, 0, -1, 6, 6, 1, -2, -2
1503686431204,-4, 1, 6, -2, -4, -2, -1, -1
1503686431220,-2, -5, -4, -4, -4, -4, -4, -1
1503686431242,0, -2, -4, -4, -8, -5, -2, -3
1503686431266,-4, -3, 0, 5, 8, 3, 0, -1
1503686431280,2, -2, -3, -6, -3, 2, 1, 0
1503686431304,-10, -4, -5, -1, -5, -3, -1, -4
1503686431324,0, 3, 1, 4, 5, 2, 1, 0
1503686431340,-1, -3, -4, -7, -4, -2, 0, -3
1503686431362,2, 3, 3, 1, 3, 0, 0, 0
1503686431384,-3, 0, 1, 0, 0, 1, -1, -3
1503686431401,-3, 0, 0, -2, 0, -3, 1, 2
1503686431422,3, 1, 2, -2, -2, -3, -3, 1
1503686431444,2, 0, 3, 0, -2, -1, -2, 3
1503686431460,1, -2, -5, 0, -4, -1, -4, -3
1503686431482,-7, -16, -7, 3, 1, -1, -5, -1
1503686431506,2, 3, 3, 5, 0, 2, 2, 1
1503686431520,7, 4, 2, -1, 1, 0, 1, 6
1503686431543,1, -7, -9, -14, -2, -3, 0, -4
1503686431564,-4, -8, -1, -2, -1, 2, 3, 2
1503686431580,-2, 3, 5, 2, 2, 2, 2, -3
1503686431598,-7, -12, -9, -7, -6, -1, -3, -4
1503686431611,-2, 0, 0, -2, -4, -1, 3, -2
1503686431632,1, 2, 5, 4, 4, 0, -3, -2
1503686431654,1, 3, 3, 6, 3, 3, 3, 4
1503686431671,-2, -1, -2, -3, 0, -1, -1, -1
1503686431692,7, 14, 17, 7, 3, 0, 1, 1
1503686431714,2, 0, 1, -1, 0, -1, 1, 1
1503686431729,-8, -18, -15, -4, -4, -1, -1, -2
1503686431752,-5, -5, -9, -9, -4, -1, -5, -7
1503686431776,7, 14, 8, 1, -2, -1, 1, 3
1503686431789,3, -9, -5, 3, 1, 4, 9, 13
1503686431812,10, 25, 26, 12, 13, 7, 3, -1
1503686431833,-14, -37, -36, -18, -6, -5, -6, -6
1503686431849,4, -3, -5, 7, -3, 1, 5, 2
1503686431873,-1, 6, 5, -5, 2, 9, 3, -2
1503686431893,-9, -21, -17, -21, -20, -9, -8, -12
1503686431909,-3, -3, -3, 3, -6, -10, -6, -4
1503686431932,2, 24, 33, 7, -10, -8, -1, 1
1503686431954,-3, -5, -8, -3, 18, 11, 2, -2
1503686431977,-8, -12, -20, -7, -13, -19, -9, -11
1503686431992,5, 3, 10, 8, -3, 1, -1, 6
1503686432014,-18, 4, 0, 23, 7, -16, -9, -7
1503686432037,-4, 21, 14, -5, -81, -60, -31, -39
1503686432059,-2, -40, -42, -19, 34, 74, 53, 67
1503686432074,-2, -8, 6, 4, -8, -33, -25, -13
1503686432096,5, -16, -37, -4, 38, 29, 10, 5
1503686432113,-4, -25, -18, -8, -52, -45, -30, -10
1503686432134,-9, -32, -26, -13, 9, 14, 6, -7
1503686432156,10, 27, 17, 1, 10, 2, 1, -1
1503686432173,0, 7, 12, 3, -3, -15, -7, -6
1503686432194,4, 21, 20, 5, 3, 14, 2, -5
1503686432216,12, 18, 14, 6, 23, 20, 9, 9
1503686432232,0, 3, 6, 2, -6, -2, 1, -3
1503686432254,-1, -1, 3, 0, -12, -14, -7, -3
1503686432277,2, 0, 1, 0, 2, -1, 0, 1
1503686432292,-4, 4, 6, 6, 8, 5, 2, -3
1503686432315,2, 4, 1, -3, 9, 8, 4, 2
1503686432336,-2, -1, -1, -5, 7, 5, 1, -1
1503686432352,1, 1, 1, -7, -3, -1, 0, 1
1503686432374,-3, -4, -6, -15, -14, -1, 1, 0
1503686432396,-1, 2, -1, 7, 9, 4, -1, -3
1503686432412,-4, 1, 0, 0, -2, -4, 2, -2
1503686432434,8, 4, 3, 6, 4, 2, 2, 7
1503686432456,3, 0, 2, 2, 5, 0, -1, -1
1503686432477,-5, -2, -1, -1, 0, 0, -2, -2
1503686432494,0, -1, -2, -5, -5, -3, 0, -1
1503686432503,-7, 0, -2, 8, 6, -1, -1, -3
1503686432524,4, -1, -3, -4, -5, -1, -3, 0
1503686432547,3, 0, 0, 0, -1, 1, 1, 0
1503686432563,-2, -3, -2, -2, -2, -4, -5, -8
1503686432584,-6, 1, 8, 5, 3, 2, -1, 2
1503686432610,12, 18, 21, 11, 4, 2, -1, 0
1503686432622,0, -3, -2, -4, 0, -2, 0, 0
1503686432647,-1, -9, -10, -4, 0, -2, -1, -3
1503686432667,-3, -7, -5, -2, -4, -4, -1, -1
1503686432682,-13, -7, -5, -9, -8, -3, -4, -2
1503686432704,-4, 0, -2, -2, -3, 1, 2, -2
1503686432727,6, -1, -1, -2, -3, -1, 1, 6
1503686432745,1, 1, -2, -2, -1, -1, -2, -2
1503686432764,4, 3, 0, 3, 4, 1, -1, -7
1503686432787,-9, -5, -3, 1, 4, 10, 3, -2
1503686432803,0, 0, 2, -1, -9, -3, -2, 2
1503686432824,3, 9, 7, 5, 2, 0, -2, -2
1503686432847,-18, -14, -16, -13, -6, -8, -7, -11
1503686432862,2, -3, -4, -2, -3, -1, 5, 7
1503686432884,-4, 2, 2, 4, 10, 13, -1, -15
1503686432907,-8, -7, -3, 4, 4, -8, -6, -3
1503686432922,8, -2, 3, -4, -3, -3, -1, 21
1503686432945,-6, -1, -2, -5, -7, -7, -9, -14
1503686432967,-1, -1, -5, -7, -6, -3, 3, -1
1503686432989,3, 2, 5, 4, 1, -1, 1, 1
1503686433004,-3, -4, 2, -10, -12, -4, 0, -1
1503686433027,10, 3, 3, 2, -5, -2, -1, 3
1503686433049,3, -1, -3, -4, 0, 1, -1, 1
1503686433064,-13, -3, -1, -1, -1, -3, -2, -4
1503686433088,0, -2, -4, -9, -6, -4, -2, 0
1503686433109,18, 4, -6, 3, 5, 5, 12, 19
1503686433127,-10, -2, 2, 3, -2, -1, -6, -22
1503686433149,-3, 0, 3, 5, 5, 4, 1, -4
1503686433169,0, 1, -3, 1, 5, 0, -3, 3
1503686433184,3, 1, 3, 3, 3, 1, 4, 4
1503686433207,1, -4, -5, -1, -1, -6, -4, 1
1503686433229,-4, 6, 2, -3, -4, -6, -10, -10
1503686433247,-4, -6, 1, -2, -2, -1, -1, -6
1503686433267,2, -4, 1, 0, 0, 2, -2, 10
1503686433289,-2, 0, 1, 0, -1, -1, -1, -9
1503686433304,3, 0, 0, 0, -4, 0, 2, -1
1503686433327,0, -1, 0, 2, 5, 8, 3, 5
1503686433350,-1, -3, -2, -1, 0, 1, 1, 5
1503686433364,-4, -1, 0, -5, -2, -4, -3, -4
1503686433387,-8, -6, -6, -3, -3, -2, -2, -3
1503686433409,1, -2, 3, 4, 0, -1, -2, -1
1503686433424,2, -2, -3, -8, -9, -2, 0, 0
1503686433439,2, -2, -1, 0, 5, -2, -3, -5
1503686433454,-16, -5, -7, -8, -4, -2, -5, -17
1503686433476,1, -1, 1, -3, -4, -2, -2, 2
1503686433499,-3, -3, -4, 0, 0, -1, 2, 0
1503686433514,-4, -6, -3, -7, -3, -2, -4, -7
1503686433536,-7, -8, -3, -3, -4, 1, -5, -20
1503686433559,8, 7, 1, 6, 0, -3, -5, 0
1503686433574,15, 4, 0, -4, 1, 2, 17, 46
1503686433596,-6, -3, -1, 0, -4, -3, -3, 1
1503686433619,-15, -3, -2, 1, -2, -4, -14, -35
1503686433634,-1, -7, -8, -3, -4, 0, -1, 1
1503686433657,5, 8, 9, 0, 2, 1, 5, 8
1503686433679,0, 0, -1, 0, -2, -2, -1, -3
1503686433694,-1, 0, 1, 1, -5, 0, -3, -6
1503686433717,3, 4, 3, -2, 2, 0, 1, 6
1503686433740,8, 5, 5, 4, 7, 5, 8, 11
1503686433762,1, 1, 0, -2, -5, 1, 2, 5
1503686433777,2, -2, -4, -1, 1, -1, 4, -1
1503686433788,5, -2, -9, -4, -1, 0, 0, 9
1503686433806,8, 6, 9, 8, 3, 2, 8, 13
1503686433829,-4, 0, 0, -5, -5, -6, -5, -7
1503686433845,-3, 2, 0, 2, -3, 1, 0, 2
1503686433866,4, 1, 4, 0, -2, 3, 2, 0
1503686433889,-3, -4, -6, 1, 2, -1, -1, -5
1503686433912,-8, -4, -2, -1, -4, -2, -6, -12
1503686433927,-2, -10, -12, -10, 0, -2, -1, 1
1503686433950,-11, -11, -5, -2, -2, -3, -5, -12
1503686433972,11, 8, 10, 7, 4, 2, 3, 7
1503686433991,-5, -6, -5, -3, 1, -1, -3, -4
1503686434009,5, 8, 4, 1, 4, 1, 2, 6
1503686434032,-6, -5, -4, -4, -6, -5, -3, -4
1503686434047,2, -5, -9, -14, -4, -4, -2, -1
1503686434069,3, 2, 1, -1, -1, 1, 4, 6
1503686434092,-3, -2, -2, 1, -1, -2, -4, -2
1503686434107,9, 21, 35, 20, 13, 7, 4, 0
1503686434130,1, 1, 7, 6, 1, 4, 1, 0
1503686434154,0, -8, -10, -9, -3, -6, -6, -4
1503686434167,10, 9, 7, 1, 4, 1, -2, 3
1503686434190,-6, -6, -6, -5, -5, -5, 3, 3
1503686434212,-3, -9, -12, -8, -16, -4, -5, -4
1503686434227,1, 4, 4, 5, 4, 4, 2, 0
1503686434249,-5, -1, -1, 4, 0, -1, 4, -3
1503686434272,-2, -2, -7, -6, -1, -2, -5, 1
1503686434289,0, -2, -3, 2, 2, 0, -1, 7
1503686434310,-1, -6, -5, -6, 3, 7, 2, -5
1503686434332,4, 2, -4, -2, -1, -7, -11, -3
1503686434346,5, 24, 31, 16, 0, 5, 6, 9
1503686434369,-6, -10, -11, -10, -2, 1, -3, -10
1503686434392,5, -4, -3, -7, -3, -5, 5, 8
1503686434407,-2, 2, 2, 0, -1, -5, -1, 1
1503686434430,0, 5, 13, 5, 8, 3, -2, -1
1503686434452,-7, -19, -16, -11, -10, -5, 0, -3
1503686434467,3, 14, 12, 17, 3, 3, 0, -3
1503686434490,-3, -2, -11, -10, 3, 0, -9, -12
1503686434512,0, 0, 2, 3, -3, -4, -1, 3
1503686434527,-5, -9, -8, 0, 4, -3, 3, -5
1503686434549,-5, -2, -3, -6, -5, -3, 2, 5
1503686434572,-7, -8, -5, 1, 5, -4, -8, -14
1503686434591,-3, 2, -1, -5, -7, 0, 2, 3
1503686434610,4, 3, -1, -7, -4, -3, -12, -6
1503686434632,0, 0, -3, 2, -2, 2, -4, 2
1503686434647,-5, -3, -1, 13, 7, -2, 2, -1
1503686434669,0, -2, 1, -3, -9, 2, 0, -4
1503686434692,-1, -6, -1, -5, 1, -1, 7, 6
1503686434707,2, -3, -1, 6, -3, 2, 0, 0
1503686434729,-9, 0, 0, -8, -7, -3, -3, -8
1503686434752,-4, 1, -2, -2, 4, -7, -7, -8
1503686434767,16, 18, 21, 2, 2, 4, 1, 6
1503686434792,2, 1, -5, -5, 1, 3, 7, 19
1503686434812,-9, -3, -1, -6, -1, -1, -12, -27
1503686434834,-8, -4, -2, 1, 2, 5, 9, 7
1503686434850,2, -11, -4, -3, -2, -9, -3, 5
1503686434865,-3, -1, 3, -1, -3, 0, -2, -11
1503686434880,-7, -1, 7, 2, 4, -2, -9, -9
1503686434902,-2, 2, -5, 1, -4, 0, 3, 10
1503686434926,2, 0, -5, 2, 1, 2, 0, -5
1503686434940,7, 3, 2, -3, 5, 0, 1, 12
1503686434963,-2, -4, 5, 2, -1, 1, -1, -5
1503686434984,1, 2, 4, 4, -2, 3, 8, 3
1503686435000,-4, -7, -5, -2, -3, 2, -11, -2
1503686435022,3, -4, 4, 2, 2, -2, 4, 1
1503686435044,-4, -3, -4, -3, 3, -4, 1, 2
1503686435059,0, 3, 2, 3, 4, -2, 0, 1
1503686435089,0, 2, -5, -6, 0, 7, 4, 3
1503686435105,4, 2, -3, 5, 1, 0, -3, 1
1503686435119,3, -2, 0, -4, -5, -6, -5, -7
1503686435134,-5, 1, 3, 8, 6, 3, 0, 5
1503686435149,-8, -10, -10, -4, -1, 0, 2, -6
1503686435171,1, -1, 1, -11, 1, -2, -5, -7
1503686435194,1, -6, 3, 0, -5, -2, 2, -2
1503686435209,6, 1, 2, 0, 3, -3, 1, -2
1503686435232,-6, 0, -3, -3, -4, 1, -5, 3
1503686435254,1, 1, 0, 1, -2, -1, -3, -2
1503686435269,-3, -3, 0, -2, 1, -6, -3, -5
1503686435294,1, -2, -1, -5, -4, 7, 1, -2
1503686435314,1, 5, 4, 3, -5, -2, 1, 5
1503686435329,-2, -2, -5, 1, 1, 1, -2, 2
1503686435352,1, 3, 1, 0, 1, 0, 5, -6
1503686435374,-5, -4, -1, -7, -4, -3, -2, -4
1503686435389,-4, -6, -4, -1, 8, 4, -1, 3
1503686435412,-3, -3, -6, 1, -2, -4, -4, 0
1503686435434,3, 1, 4, 0, 1, -5, -1, -2
1503686435449,1, -1, -6, -1, -1, 0, -1, 0
1503686435471,-4, -1, -6, -2, 0, 2, -3, 1
1503686435479,-4, -5, 0, 4, 2, -5, 1, -11
1503686435502,2, 3, 2, -5, -3, 4, 0, -5
1503686435524,-5, 4, 1, -2, 0, -7, 2, 4
1503686435532,0, -1, -1, 0, 0, -4, 5, -5
1503686435554,1, 1, -1, 1, -4, 0, -4, 5
1503686435569,-10, -11, -6, -6, 1, 2, -5, -7
1503686435592,-7, -1, -7, -2, -1, -6, 2, 2
1503686435614,8, 10, 4, -1, -1, 6, 4, -1
1503686435632,2, 1, 7, 6, 5, -1, 1, 1
1503686435651,-3, -2, -5, -4, -5, -1, -3, -1
1503686435674,3, -3, -1, 0, -2, -1, -2, 0
1503686435689,-3, -3, -2, 2, 0, 2, 2, 6
1503686435711,10, 2, -3, -2, 3, -2, -1, 5
1503686435734,-3, -6, -5, -5, -4, 1, -2, -3
1503686435756,0, -8, -2, -6, -8, 0, -4, -2
1503686435766,-10, 1, 0, -3, 3, 4, -1, -2
1503686435786,-1, -7, -3, -7, -3, 1, -3, -1
1503686435802,7, -3, -4, -2, 2, -1, 5, 5
1503686435825,4, 4, 3, 8, 6, -5, -8, 1
1503686435846,-8, 1, -1, -1, -5, 5, -3, -3
1503686435862,6, -2, -3, -8, 2, 2, 7, 4
1503686435876,-5, 1, 5, 7, -1, -2, -3, -4
1503686435884,4, 1, 2, -3, -7, -3, -2, -7
1503686435907,-7, -5, 1, -4, -3, -2, -1, 0
1503686435922,0, -2, -5, 1, 0, -4, 1, -2
1503686435944,4, 6, 4, -4, 0, -1, 1, 2
1503686435967,7, 9, 8, 11, 2, 5, 2, 2
1503686435982,-8, -10, 1, -4, 2, -2, -1, -5
1503686436005,2, 1, 1, -1, 2, 0, -3, 3
1503686436027,-6, -6, -6, -7, -3, 4, 3, 5
1503686436042,-3, -3, -5, -2, 0, -2, 1, 9
1503686436075,-3, -5, -2, -4, -1, -4, -7, -5
1503686436094,7, 11, 3, -1, -2, 0, -6, -2
1503686436117,-8, -6, -2, 2, -2, -7, 3, -11
1503686436145,-1, -3, -7, -5, -3, -2, -7, 3
1503686436154,-3, -6, -1, 2, -1, -3, -1, -4
1503686436177,2, -3, -1, -2, -3, 1, 6, 1
1503686436192,-3, 1, 1, 8, 6, 1, 2, -1
1503686436214,5, 4, 3, -1, -2, 2, -1, 7
1503686436237,-4, -1, -2, -3, -3, -1, 0, 3
1503686436252,5, 2, 4, 0, 2, 3, 2, -1
1503686436274,-6, -2, 3, 0, 2, -1, -2, -7
1503686436297,-4, -4, -6, -12, 0, -5, 0, -4
1503686436312,-8, -6, -6, -5, -6, 2, 1, 3
1503686436336,3, -2, -5, 1, 2, 1, -4, -3
1503686436356,0, -1, 1, -4, 0, 0, 4, 4
1503686436386,3, -3, -6, -4, -7, -2, 0, 1
1503686436394,-5, -2, 1, -3, -5, -5, -7, -7
1503686436416,1, 2, 3, 2, 0, -1, -3, -1
1503686436432,0, -3, 3, 2, 2, 1, 1, -4
1503686436454,-5, 0, -3, -5, -7, -3, 4, 3
1503686436477,0, -5, -8, 5, 1, 1, -2, 0
1503686436492,4, -2, 3, 2, 1, 3, 0, 4
1503686436507,-6, -1, 1, 0, -3, 1, -1, -9
1503686436522,-3, -1, 4, 0, 4, -2, 3, 3
1503686436544,-1, 4, -1, -3, -1, -4, -4, 2
1503686436566,4, 4, -3, -5, -2, -2, -2, -10
1503686436582,3, 2, 0, 1, 1, 2, 2, 12
1503686436604,1, -4, 2, 1, -2, -1, 0, -2
1503686436626,-4, -2, -1, 1, 1, 1, -2, 0
1503686436643,4, 0, 0, -4, 2, 3, 2, 3
1503686436664,1, -5, -1, -4, -1, -4, -2, -1
1503686436686,-5, -3, -8, 3, 1, 2, 4, -7
1503686436709,-2, -3, 0, -2, -3, 2, -1, -5
1503686436724,-1, -1, 2, 1, -1, -5, -4, -1
1503686436746,0, 1, 1, -1, -2, -2, -3, -4
1503686436771,-1, 4, 8, 11, 5, 4, -1, -1
1503686436777,-3, 1, 0, 0, 1, -1, 1, -2
1503686436798,-1, -3, 0, 0, -3, 1, -2, 1
1503686436814,-1, -2, -2, -6, -2, -4, -3, -2
1503686436839,-3, -3, 2, 1, 3, -1, 0, -5
1503686436858,0, -5, -4, -7, -1, -2, -1, 1
1503686436875,2, 4, 1, 4, 3, -1, 5, -1
1503686436896,1, -3, -2, 1, -2, 2, -4, 2
1503686436918,0, 3, -2, -3, -1, 1, 2, 0
1503686436934,2, 0, 1, 4, -2, -2, -3, 2
1503686436956,0, 5, 3, 0, 0, -1, -4, -9
1503686436978,2, 0, 1, 0, 2, 1, 2, 0
1503686436994,-4, -5, -1, 0, -5, -4, -8, -13
1503686437016,1, -3, -1, 2, -3, -2, -2, 0
1503686437041,-6, -3, 0, -5, 1, 4, 2, 2
1503686437054,-5, -7, -6, -2, -1, -1, 1, 4
1503686437077,-1, -1, 0, -3, -2, -2, -3, 1
1503686437098,2, 0, -2, -2, -1, 0, 4, -1
1503686437115,1, 7, 7, 6, 3, 1, 1, 0
1503686437136,-4, -9, -5, -9, -2, -4, 0, 3
1503686437158,5, 3, -1, 3, 0, -3, 0, -2
1503686437174,-3, -3, -2, 2, -1, 1, -1, -2
1503686437196,-1, 3, -2, -2, 0, 1, 0, -1
1503686437218,0, -3, -4, 3, 1, -2, -4, -5
1503686437234,3, 12, 12, 0, -2, 0, -2, 1
1503686437256,3, 1, -2, 2, -2, -2, 2, 5
1503686437279,0, 3, 3, 2, 2, 2, 1, 0
1503686437294,-1, 0, 0, -4, -1, 0, 1, -4
1503686437316,-6, -6, -1, -1, -2, -2, 0, 1
1503686437338,0, -4, -5, -5, -1, -3, 0, 1
1503686437354,-3, 0, 1, 1, -1, -4, -1, -4
1503686437377,-3, -5, -2, -4, -1, 0, -1, -4
1503686437399,-1, 0, -4, 3, -4, 0, -5, 1
1503686437415,-3, 1, 2, 1, 0, 1, 2, -1
1503686437436,4, -2, -1, -7, 3, -1, -4, -3
1503686437458,2, -4, -9, -1, -5, 2, 2, -2
1503686437480,-4, -5, 0, -2, 1, -3, -2, -1
1503686437496,3, -1, 1, -1, -3, 1, -3, -1
1503686437519,0, -1, -1, 2, 5, -3, 4, 0
1503686437534,-3, -2, 0, 0, -3, 3, -2, 2
1503686437556,-3, 0, 4, 3, 2, 1, 0, -1
1503686437580,-6, -3, -2, 0, 1, -3, -1, -2
1503686437601,-3, 4, 4, 1, 0, 3, -2, 0
1503686437617,-2, 0, -3, 0, 1, -3, 1, -4
1503686437638,6, 2, 0, 0, -1, -1, -2, 0
1503686437661,3, 0, 2, 4, 0, -2, 0, -2
1503686437683,-2, 1, 0, -1, -3, 1, -2, -3
1503686437698,3, -2, 3, -1, 2, -2, 0, 2
1503686437721,-1, -2, 0, 0, -1, 1, -2, -3
1503686437736,-2, 1, -5, -5, -8, -2, -3, 1
1503686437758,4, 0, 2, -3, -2, -3, 0, -2
1503686437781,-1, 0, -5, -3, -5, -1, 3, 2
1503686437796,2, 4, 5, 5, 2, 1, -2, 1
1503686437819,-3, -7, -6, -7, -2, -2, -3, -3
1503686437841,2, -4, -3, -3, -3, 2, 0, 0
1503686437856,-1, 1, -1, -1, 1, -1, -2, 0
1503686437882,0, 0, 1, 3, 0, -2, 1, -1
1503686437901,6, 12, 13, 6, 2, 1, -3, 1
1503686437917,-4, -2, -6, -1, -2, -3, -4, -8
1503686437938,-5, -6, -7, 0, 0, 0, -2, -14
1503686437961,9, 24, 24, 11, 3, 1, 2, 3
1503686437981,-8, -9, -11, -10, -5, -2, 2, 1
1503686438000,0, -7, -3, -3, 2, 0, 2, 3
1503686438007,-8, -7, -11, -3, 0, -2, -6, -12
1503686438029,1, 2, 2, 1, -5, 0, 2, 6
1503686438052,5, 2, -5, 0, -3, -2, -1, -5
1503686438066,4, 1, 2, 1, 0, 1, 1, 0
1503686438089,4, 4, 9, 6, 1, 2, 0, 7
1503686438116,-6, -7, -7, -2, 6, -1, -2, 0
1503686438126,-4, -4, 1, -4, -3, -1, -2, -5
1503686438150,0, 0, 0, -4, -3, -3, 2, 1
1503686438171,-4, -2, -5, -3, 5, 1, -1, -8
1503686438186,2, 3, 7, 3, -1, -3, 1, 0
1503686438209,5, 1, 3, -2, -1, 0, 1, 0
1503686438231,-3, -2, -4, -6, -6, -3, -3, 3
1503686438248,-2, -5, -4, -3, -4, -4, 0, 1
1503686438269,-2, 1, 4, 4, 2, 0, -4, 0
1503686438291,1, -1, -2, 0, 1, 0, -1, 3
1503686438306,-7, -8, -6, -6, -4, -2, -4, 1
1503686438329,-3, 2, 2, 4, 1, 3, 1, -5
1503686438352,-12, -5, -4, -5, -4, -3, -3, -10
1503686438366,3, 0, -4, -4, -1, 0, 2, 0
1503686438389,-6, 2, 5, 6, 2, 1, 0, -4
1503686438412,-4, -2, -2, -3, -2, -2, 0, -4
1503686438427,7, -6, -9, -2, 1, -3, -2, 1
1503686438450,-3, -1, 1, -4, -1, 1, 0, 2
1503686438471,4, 26, 17, 12, 1, -3, -3, -4
1503686438487,-7, -18, -15, -8, -3, 0, -3, 2
1503686438509,4, 2, 3, 0, 1, -1, 3, 3
1503686438531,1, -1, 0, 1, 3, 0, 2, 0
1503686438559,4, 0, -2, -4, -3, -4, -2, -3
1503686438569,5, -1, -4, 0, 0, 3, 1, 5
1503686438598,2, 0, 0, -1, -1, -3, -1, -7
1503686438621,-13, -7, -3, -1, 0, -1, 0, 1
1503686438644,1, -2, -5, -4, -2, -4, -1, 0
1503686438660,5, 4, 4, 5, -2, -1, 1, -1
1503686438681,-4, -2, 0, 0, -4, -15, -7, -1
1503686438703,2, -2, -1, -3, -2, -2, 0, -3
1503686438720,3, 2, -4, -3, -1, 3, 4, 5
1503686438741,-5, -3, 0, 2, 0, 2, 1, -3
1503686438763,-2, -2, -1, -3, 3, 1, -4, -3
1503686438779,-4, -4, -2, -2, -4, -5, 0, -4
1503686438796,-4, -1, -3, 1, -3, 0, -2, -4
1503686438809,-9, -6, -6, -4, 0, -2, -5, -4
1503686438831,4, 1, 1, -4, -7, -6, -1, -2
1503686438846,-8, 4, 0, -2, -3, -3, -13, -14
1503686438862,-9, -4, 5, 2, 0, 0, -6, -15
1503686438886,-4, -1, -5, -1, 2, 4, 1, -7
1503686438906,2, -7, -3, -3, 1, 1, 5, 12
1503686438931,6, 1, 0, -2, -3, 0, 6, 5
1503686438953,-6, 1, 0, -2, -2, -6, -7, -15
1503686438974,-3, 0, 1, -2, -6, -4, -9, -10
1503686438992,-3, -1, -4, 0, 5, 7, 0, -6
1503686439011,-8, -3, -5, 1, -4, -9, -7, -1
1503686439034,2, 4, 2, -2, -4, -1, 3, -1
1503686439049,-2, -2, 0, -11, -7, -3, -3, 2
1503686439071,-3, -3, -1, 2, 3, 0, -2, -4
1503686439096,-1, -1, -3, -5, -5, -2, 3, 5
1503686439109,-4, -6, -6, 0, -5, -1, -1, -5
1503686439132,-2, 1, 2, 3, 0, 1, 2, 1
1503686439155,-7, -1, 4, 8, 7, -1, -5, -6
1503686439169,-8, -6, -5, -3, -2, -2, -1, -9
1503686439199,3, -4, -3, -2, -1, 2, -9, -5
1503686439214,4, 5, 0, -3, 3, -4, -3, -3
1503686439230,-7, 6, 5, 3, -3, -1, 0, -5
1503686439251,-2, -3, 0, -2, -1, 3, 5, 6
1503686439274,12, 7, 4, 6, 3, 3, 3, 12
1503686439289,-1, -3, 1, 3, 3, 0, 6, 6
1503686439311,4, 1, 2, -1, 0, 0, 2, -3
1503686439334,-4, -1, -1, -1, 0, -3, -6, -3
1503686439349,-10, 3, 1, -1, -2, -4, -4, -11
1503686439371,7, -1, 1, -5, -1, 0, -5, 1
1503686439394,-1, -5, -6, -2, -1, 0, 1, 0
1503686439409,2, -2, -2, -1, -5, -3, -8, -2
1503686439433,-1, 0, 1, 3, 4, 2, 6, 8
1503686439456,6, -6, -9, -5, -3, 0, 4, 5
1503686439477,-6, -3, -3, -4, -5, -1, -3, -8
1503686439495,3, 0, 0, -3, 1, -1, 1, 6
1503686439514,-2, -1, 2, 0, 2, 4, 1, -2
1503686439536,-5, 1, 3, -1, 0, -3, -5, -5
1503686439551,4, 2, -2, 1, -1, 1, 2, 2
1503686439574,3, -1, 3, 4, 1, 5, 2, 3
1503686439597,-8, -1, -1, 1, -1, -4, -4, -1
1503686439611,-4, -6, -7, -6, -3, -3, -4, -9
1503686439634,2, 0, 0, -1, -1, -1, -2, 3
1503686439661,-2, 1, 1, 1, 1, -4, -6, -7
1503686439671,-6, 0, 1, 1, -2, 0, -1, -5
1503686439694,2, -1, 3, 1, 0, -1, 2, -1
1503686439717,1, -1, -2, -1, 0, -1, 4, 2
1503686439731,-4, -1, 5, 3, 2, 0, 3, 2
1503686439754,2, -4, -2, -3, -1, 1, 2, 6
1503686439776,2, 3, 3, 1, 4, 4, 5, 2
1503686439784,-2, -5, -6, -1, -3, -4, 2, -3
1503686439807,-5, -2, -1, -2, -2, 0, 0, -7
1503686439822,-1, -2, 0, 1, 4, 0, 1, -1
1503686439844,-4, 3, 5, 0, -3, 0, 3, 0
1503686439867,4, -3, -4, -3, -1, 1, 3, 2
1503686439882,6, 1, 1, -3, -1, -2, -1, 17
1503686439904,-2, 1, -1, 2, 0, -4, -5, -5
1503686439927,-2, -1, -1, -1, 0, -2, -3, -3
1503686439935,-3, -2, -1, -2, -4, -1, -2, -8
1503686439956,3, 6, 0, 3, 3, -1, -4, -3
1503686439971,-9, -4, -3, -4, -3, 0, -3, -7
1503686439994,0, -3, -4, 0, -1, -1, -1, 0
1503686440016,-8, -3, -2, -1, 1, -3, -2, -10
1503686440031,0, 10, 9, 4, 0, 1, -2, -2
1503686440054,2, 0, 0, -3, 0, 0, -1, 4
1503686440076,-5, -2, -3, -2, -5, -2, -4, -3
1503686440084,-3, 1, -3, 2, 0, 0, -2, -3
1503686440107,1, 3, 2, -1, -2, -4, -3, 1
1503686440122,-3, 0, 2, -2, -3, -1, -2, -5
1503686440144,-1, -4, -4, -2, 1, 1, 0, 0
1503686440167,-1, 0, 3, 3, -2, 0, -3, -3
1503686440182,2, -1, 0, 1, 0, -3, 0, 1
1503686440211,-4, -3, 0, -2, 1, -1, -2, -4
1503686440228,3, 1, 0, -1, -1, -1, -1, 0
1503686440242,1, -2, -1, -1, 0, 1, 2, 0
1503686440264,0, -1, -3, -1, -2, -1, 1, 0
1503686440287,-1, -2, -1, 0, 2, 1, 1, 1
1503686440296,2, 0, 1, 0, -1, -1, 4, 2
1503686440316,1, 3, 6, 7, 3, 0, -5, -3
1503686440331,5, 3, 5, -2, 2, 0, 0, -1
1503686440354,-3, -3, -2, -1, 0, 0, 1, -1
1503686440376,-2, -1, -3, -2, -5, 1, 0, -3
1503686440385,-3, -9, -10, -4, -2, -2, -6, -1
1503686440407,-2, -1, 1, 1, 2, 0, 1, -2
1503686440414,-1, -5, 0, -1, -1, -2, 0, 0
1503686440436,3, 0, 0, 1, -4, 0, -1, 2
1503686440459,-2, -5, -3, -5, -1, 0, -1, 1
1503686440474,-1, 2, 3, 9, 3, -2, -5, -5
1503686440497,-1, -6, -7, -9, -2, 1, 1, 1
1503686440519,-2, -2, -3, -2, 0, -1, -4, -9
1503686440535,-2, 3, 2, 3, 0, 1, 2, -1
1503686440556,0, -3, -3, -2, -3, -2, -2, 0
1503686440579,1, -1, -2, -2, -1, 1, 2, 16
1503686440594,1, -2, 1, -1, -1, -2, -1, -1
1503686440616,-3, -1, 0, 2, 0, 0, -2, -8
1503686440640,2, 4, 0, 0, 0, -1, -1, -5
1503686440654,5, 6, 7, 4, 0, 1, 1, 4
1503686440676,1, 0, -4, -1, 2, -3, -2, -1
1503686440700,-4, -1, -1, -1, -6, 1, 1, -1
1503686440714,-4, -10, -7, -11, -5, -4, -2, -4
1503686440736,0, 2, 2, 1, -1, 0, 2, 3
1503686440759,2, 1, 1, 5, 2, -2, -2, -1
1503686440774,2, 8, 8, 0, -1, -3, -5, -4
1503686440800,-2, -3, 2, -3, -3, 0, 2, 1
1503686440819,-1, -6, -7, -3, 1, 1, -1, -1
1503686440837,-3, 2, 3, 5, 2, -1, -1, 0
1503686440856,2, 1, -3, -3, 1, 1, 0, 2
1503686440879,-7, -7, -6, -4, 0, -2, -3, -9
1503686440894,0, -1, -2, 5, 2, 1, -1, 1
1503686440916,3, -1, -2, -2, -1, 0, 2, 7
1503686440939,-3, -4, -3, 1, -3, -2, -2, -4
1503686440954,0, -1, -2, -3, -3, -3, -2, 1
1503686440970,-4, -1, 1, 0, 1, 0, -3, -4
1503686440984,-1, -6, -5, -6, -1, -1, 1, -5
1503686441007,-2, -1, -1, 2, 0, -2, -2, -5
1503686441029,2, 4, 2, 4, 2, -2, 0, 4
1503686441044,-1, -4, -8, -5, -2, -1, 3, 7
1503686441067,-1, -2, -3, -5, -3, -1, -3, -2
1503686441089,0, 3, 4, 7, 4, 2, 0, 2
1503686441104,-2, -1, 0, -2, -4, -4, -4, -1
1503686441127,0, 1, 3, 0, 0, 2, -1, -4
1503686441149,5, -1, -2, 1, 2, 2, 1, 3
1503686441164,-7, -2, 1, 0, -1, -1, -4, -6
1503686441187,-1, -1, 2, 3, 1, -1, 1, 1
1503686441209,-2, 0, -2, -1, -3, -4, -1, -1
1503686441224,-5, 2, 2, 7, 0, 2, -5, -3
1503686441247,-4, -5, -4, -8, -3, 0, 0, 1
1503686441269,1, 0, 1, -3, -4, -2, 0, -1
1503686441284,4, 2, 4, 5, 6, 0, 3, 2
1503686441307,-2, -3, -2, -1, -3, -2, -1, -1
1503686441329,-1, -3, 2, -1, -3, 1, -2, -3
1503686441351,1, -6, -6, -2, -2, -3, 1, 0
1503686441367,-2, 1, -3, -5, -1, 0, 0, -2
1503686441389,3, 2, 4, 1, 2, 0, 0, 3
1503686441412,-1, 1, 0, -1, 1, 1, 0, -2
1503686441427,-3, -3, -7, -7, -4, -5, -4, -2
1503686441449,-1, 2, -1, 0, 0, -1, 1, 0
1503686441471,-1, 0, 0, 0, -2, -3, -3, -3
1503686441494,-6, -3, -3, -3, -2, -2, -1, -6
1503686441509,3, 0, 3, 5, 1, -1, -1, 1
1503686441531,1, 0, -1, 0, -1, 1, 0, 1
1503686441547,0, -4, -5, -4, -4, -1, -1, 1
1503686441571,3, 0, -1, 2, 1, 0, -3, -1
1503686441592,2, 1, 5, 2, 2, 3, 2, 3
1503686441607,0, 0, -4, -5, -2, -2, 0, -1
1503686441629,-3, -5, -2, -2, -3, -3, -1, -2
1503686441651,-2, 0, 2, -1, -1, 2, 0, -2
1503686441667,2, -2, -2, -1, 4, -1, 0, 4
1503686441689,1, -2, -6, -2, -6, -1, -1, 2
1503686441711,-2, 3, 1, -4, 0, 0, -1, -5
1503686441727,0, -1, 1, 1, 1, 0, -2, -3
1503686441749,-1, 5, 6, 4, -1, 0, -1, -3
1503686441776,0, -1, 0, 2, 2, 1, 0, -2
1503686441787,-3, -3, -2, -2, -2, -3, -3, -3
1503686441810,-6, -5, -9, -6, -1, -2, -3, -2
1503686441831,-2, 7, 5, 2, 1, -3, -4, -5
1503686441848,-3, -4, -1, 0, -2, -2, -1, -2
1503686441860,-2, -2, -4, -2, -1, 0, -1, 0
1503686441878,0, 2, 4, 3, 2, 2, 1, -1
1503686441899,-3, -2, -2, -4, -1, -3, -3, -2
1503686441920,0, 2, 3, 1, -2, 0, 1, 0
1503686441929,5, 9, 8, 4, -1, -1, 1, 5
1503686441951,1, 5, 1, 3, 1, 0, 0, -2
1503686441967,-3, -5, -1, -2, -3, -1, -2, 0
1503686441989,-5, -4, -3, -3, -2, -3, -4, -2
1503686442011,0, 0, 1, 0, 0, 0, 0, -3
1503686442027,6, 2, 4, 1, -1, -1, 0, 2
1503686442049,-2, -2, 0, -3, -1, -1, -1, 0
1503686442056,1, -5, -2, 1, -1, -1, -3, -2
1503686442080,1, 2, 1, 0, 0, 1, 0, 1
1503686442101,-1, 0, -1, -1, -2, -2, -3, 1
1503686442117,4, 6, 2, -1, 1, -1, -1, 2
1503686442143,-1, -4, -4, -3, 0, -4, 1, -3
1503686442161,0, 1, -1, 0, 0, -1, -2, -2
1503686442176,-8, -7, -3, -3, -2, 0, -4, -6
1503686442200,3, 1, 2, 2, 0, -1, 1, 2
1503686442221,-3, -2, 0, 2, 1, -1, 0, -2
1503686442236,-4, -5, -4, -4, -2, -3, -2, -2
1503686442259,1, -3, -3, -3, -2, 2, -3, -3
1503686442283,-3, 6, 6, 2, -3, 0, -1, -1
1503686442303,1, 0, 3, -1, 2, 0, 1, 0
1503686442320,0, -5, -4, -2, -2, -1, 0, 2
1503686442346,-2, 0, -1, -1, -2, -2, -2, 1
1503686442363,6, 7, 5, 3, 3, 0, 1, 1
1503686442385,4, 3, -2, -3, -2, 0, -2, 0
1503686442394,-2, 0, 0, 1, -2, -1, -2, -4
1503686442412,0, -4, -5, -4, -1, 0, -1, 2
1503686442432,2, 0, 1, -1, -1, -1, -1, -1
1503686442454,0, 2, 2, 2, 1, 0, -2, 2
1503686442469,-1, -3, -3, -3, -4, 0, 2, 4
1503686442491,-5, -2, 1, 3, -1, -1, -1, -6
1503686442514,-5, -5, -1, -2, -2, -1, -2, -3
1503686442528,1, -2, 0, -1, 1, -2, 2, 2
1503686442552,-4, -4, -5, -2, 0, -1, -1, -1
1503686442574,3, 1, -2, 1, -3, 2, 3, 10
1503686442589,0, -3, -1, -3, -2, -2, -3, -4
1503686442612,-3, -3, -2, -3, -3, -3, -3, -5
1503686442634,-4, -2, -2, -4, 1, -1, -5, -3
1503686442650,2, 0, 1, 0, -2, 1, 1, 1
1503686442671,1, 0, -1, 2, -1, -2, -1, -3
1503686442694,3, 2, 4, 2, 2, 0, 0, -1
1503686442709,-4, 0, -2, -1, -1, -2, 0, -1
1503686442731,2, 1, -1, 1, 1, 2, 1, 4
1503686442754,0, -3, -2, 0, 1, 1, 1, 1
1503686442769,0, 0, -2, -2, -1, -2, 0, -1
1503686442784,-7, -4, -2, 0, -1, 1, 0, 0
1503686442799,5, 1, -1, 1, 0, 1, 3, 0
1503686442822,2, 3, 1, 5, 1, -1, -2, 3
1503686442843,2, 3, 7, 0, -2, 0, 0, 1
1503686442859,-7, -3, -2, -1, -1, -3, -1, -6
1503686442884,-5, -2, 1, 0, 0, 1, 0, 1
1503686442903,2, -2, -3, -2, -1, 0, -2, 1
1503686442919,-1, 1, -3, -3, -1, -2, 0, -4
1503686442941,1, -2, -2, 0, 1, 0, 0, -1
1503686442963,-8, -1, -1, 1, -1, 0, 0, -2
1503686442982,0, -3, 1, 0, 0, 2, -1, 1
1503686443002,8, -1, -4, -3, -4, -1, 1, 7
1503686443024,-4, -2, -2, -2, -2, 0, -1, -3
1503686443039,3, -2, -1, 1, 1, 1, 0, 0
1503686443062,-2, 0, 1, 1, 0, -5, 1, 0
1503686443086,2, 0, 1, 0, 3, 0, 0, 2
1503686443099,1, 3, -2, -1, -1, -1, 1, 2
1503686443122,3, -1, -2, -3, -1, -2, -6, -5
1503686443143,-8, -3, -3, -3, -3, 0, -2, -3
1503686443159,1, 2, 0, 2, 0, -3, -2, 0
1503686443182,-4, -1, 1, 0, 0, -1, 0, -1
1503686443203,0, -1, 2, 3, -1, -1, -3, -2
1503686443226,-4, -1, 0, 0, 1, 3, 1, 0
1503686443241,2, -1, 0, -4, -3, -1, 2, 1
1503686443263,4, -2, -4, -2, 2, -3, -2, -2
1503686443286,5, 0, 0, -4, -2, -3, -3, -1
1503686443301,0, 0, 1, -2, 0, 0, 3, 3
1503686443323,2, 1, 0, 2, -1, 0, -1, -3
1503686443345,-9, -4, -3, -5, -1, -3, -4, -10
1503686443361,0, -1, 6, 3, 1, 1, -3, -4
1503686443384,-5, -8, -8, -2, -3, -3, -4, -6
1503686443405,-3, -3, -7, -2, -2, -4, -4, 1
1503686443422,4, 0, -2, -2, -1, 2, 6, 13
1503686443443,-3, 4, 3, -1, -1, 1, -2, -1
1503686443466,5, 1, 1, -2, 1, 3, 11, 9
1503686443486,-2, -1, -1, -2, 2, 1, 3, 1
1503686443503,5, 2, 3, 5, 3, -5, -5, -1
1503686443526,-11, -6, -1, -2, -4, 0, -8, -12
1503686443542,1, 4, 3, 1, -1, -2, -1, -1
1503686443563,0, -2, -1, -3, -3, 1, -2, -1
1503686443586,2, 4, 4, 5, 5, 3, 4, 1
1503686443601,0, 2, -1, -3, -5, -4, -4, -2
1503686443623,-7, -6, -3, -8, -6, -5, -3, 4
1503686443645,1, 0, -4, -1, -3, -1, -3, -2
1503686443662,4, 7, 5, 5, 1, 1, 2, -5
1503686443686,6, 0, 1, -1, 2, 0, -6, -11
1503686443705,-2, -4, -3, -6, -5, -8, -3, -1
1503686443723,-2, -1, 0, 0, 0, 1, 2, 0
1503686443743,-4, 1, 0, -2, 0, -1, 3, 11
1503686443766,0, 0, 2, 4, 7, 1, 0, -2
1503686443781,-5, 0, -4, 5, 5, 3, 2, 0
1503686443803,1, -4, 0, -1, -3, 1, 6, 4
1503686443826,2, -2, -3, -4, -4, -1, -5, -2
1503686443841,-6, -2, -1, -4, 0, -1, 0, -3
1503686443863,-1, -4, -3, -3, -4, -4, -5, -1
1503686443888,-5, -1, -3, -5, -5, -10, -2, -6
1503686443901,-1, 1, 7, 5, 1, 1, 1, 2
1503686443925,5, 0, -2, -2, 0, 2, -1, 8
1503686443947,0, -4, -10, -9, -4, -1, -5, -3
1503686443970,4, 16, 9, 4, 0, 0, 1, -1
1503686443985,-2, -10, -8, -1, -2, 1, 0, 11
1503686444007,-7, -4, 3, 3, 2, 2, -2, -14
1503686444029,-10, -4, -5, -9, -9, -5, -6, -4
1503686444036,-2, -7, -4, -4, -4, -2, -5, -4
1503686444055,2, 3, -2, 2, 5, 3, 9, -2
1503686444074,-13, -11, -12, -8, -3, -5, -9, -10
1503686444097,1, 1, -1, 0, -3, -2, 2, 1
1503686444111,-2, 2, 5, 4, 1, 2, 2, -3
1503686444134,4, -2, -1, -2, -2, -1, -3, -2
1503686444156,9, 5, 3, 0, 1, 9, 6, 4
1503686444179,-6, 2, 1, 2, -2, -2, -5, -5
1503686444193,-4, -3, -3, -7, -4, -2, -2, -3
1503686444209,4, 0, 0, 1, -3, -4, -5, -3
1503686444224,14, 3, 4, -1, 1, 2, -1, 4
1503686444247,-12, -6, -2, -1, -1, -2, -3, -8
1503686444269,0, 4, 4, 7, 3, 1, 0, -4
1503686444284,4, -1, -3, -3, -1, -1, 0, 8
1503686444307,-4, 7, 22, 9, 3, 2, 5, -3
1503686444329,-18, -6, 9, 4, 1, -2, -2, -25
1503686444344,0, -9, -15, -8, -4, 0, 1, 3
1503686444367,9, 9, -4, -3, 1, 4, 11, 28
1503686444390,1, 4, 6, 5, 0, -6, -9, -11
1503686444396,0, -10, -7, -4, -2, 0, 4, 3
1503686444419,-7, -4, -4, -2, -2, -2, -1, -11
1503686444433,-22, -6, -4, -4, -1, -1, 1, -15
1503686444459,-3, -1, -2, 2, 3, -2, -3, -3
1503686444479,-13, -5, -1, -3, -3, -2, -3, -4
1503686444494,6, 2, 6, 4, 2, 1, 5, 6
1503686444516,11, 4, 2, 1, -3, -1, -6, 2
1503686444539,1, 0, 6, 2, -1, 0, -1, -4
1503686444553,-6, -9, -7, -5, -3, 3, 5, 18
1503686444576,4, 5, 4, 0, 3, -1, -2, -8
1503686444599,-5, 6, 2, 5, -1, 1, -4, -18
1503686444607,2, 2, 1, 4, 2, 2, 7, -2
1503686444636,2, -2, 1, 2, 0, -2, -2, -2
1503686444644,-8, -2, -1, 0, -2, -2, -3, -4
1503686444667,-3, -1, 0, -3, -2, -3, -3, 9
1503686444689,6, 8, 5, 2, 2, 1, 2, -3
1503686444704,1, -4, -2, -3, -1, -1, -4, -7
1503686444727,5, -2, -2, -3, -2, 0, 3, 3
1503686444749,-1, 1, -1, 0, 0, 2, 3, 6
1503686444764,-4, -2, 0, -2, -3, -2, -1, -8
1503686444787,5, 1, -1, -3, 0, -2, 0, 6
1503686444809,-6, -5, -6, -2, -1, 0, 0, -9
1503686444831,-6, 0, -1, 1, 1, -1, -2, -5
1503686444847,-5, -2, -5, -4, -3, -1, -3, -4
1503686444869,2, 0, -1, 0, -3, 3, 0, -3
1503686444891,8, 4, 6, 4, 9, 2, 3, 7
1503686444907,-7, -1, -3, -2, -4, -2, -6, -4
1503686444929,-3, -6, -3, 0, -1, -2, 1, -9
1503686444952,1, 0, 2, -2, -1, -3, -3, -3
1503686444967,-1, -8, -7, -8, -5, 1, 3, 11
1503686444989,2, 0, 3, 2, 2, -1, 0, 7
1503686445011,5, 11, 7, 2, 0, -1, -2, -1
1503686445030,10, -2, -4, -4, -4, 1, 3, 23
1503686445034,-2, -7, -6, -4, -1, -1, -4, -4
1503686445056,2, -4, -1, -3, 0, -2, 1, 2
1503686445079,-2, -4, -8, -7, -3, 0, 0, 8
1503686445101,-1, -7, -6, -2, -1, -3, -5, -4
1503686445116,4, 2, -1, -3, -2, 0, 1, -1
1503686445139,3, -1, 5, 5, 2, 4, 6, 4
1503686445165,-2, 8, -1, 2, 0, -1, 6, 3
1503686445176,8, 9, 6, 5, 4, 2, 3, 1
1503686445200,-1, 0, 0, 1, 0, 2, 4, 2
1503686445221,3, -5, -5, -7, -3, -3, 2, 13
1503686445239,-8, -6, -4, 0, -2, -3, -6, -9
1503686445259,-8, -3, -3, -4, -3, -2, -2, -2
1503686445281,-3, 1, -1, 2, 1, -1, -3, -10
1503686445298,-2, 5, 0, -3, -3, -3, 1, 0
1503686445311,6, 3, 4, 5, 0, 4, 9, 13
1503686445334,5, 4, 4, 2, 5, 0, 0, 5
1503686445356,0, -1, 2, 0, -1, 1, 1, 8
1503686445372,-5, -4, -5, -7, -4, -3, -1, -6
1503686445387,-1, -7, -4, -2, -1, 0, 2, 9
1503686445409,-5, -2, -3, 4, 2, 1, -5, -16
1503686445432,2, 1, -1, -1, 0, 1, 5, 4
1503686445447,-1, -10, -6, -6, -6, -1, -1, 0
1503686445470,-9, -2, 2, 5, 3, -2, -3, -13
1503686445491,-2, 5, 0, -5, -2, -2, 0, -2
1503686445507,-1, -5, -1, -1, -2, -1, -4, 0
1503686445529,-1, -6, -7, -12, -3, -2, 2, 5
1503686445551,1, 3, 3, 2, 2, -1, -2, -9
1503686445567,11, 17, 15, 8, 3, 1, 1, 3
1503686445591,-1, -3, -1, 4, 2, -3, -5, -7
1503686445611,1, -7, -6, -5, -4, -2, 0, 12
1503686445627,-6, -2, -2, -6, -5, -4, -4, 0
1503686445649,0, -6, -7, -3, -1, -1, -1, 3
1503686445671,-2, 0, 2, 6, 3, -2, 1, -2
1503686445686,-4, -5, 1, -3, 0, 1, -3, -13
1503686445709,2, 2, 2, 4, -1, 1, 3, 17
1503686445737,0, -1, -1, -2, -1, -1, 2, -6
1503686445746,2, 6, 2, 1, -3, -4, -4, -2
1503686445770,-11, -11, -9, -13, -9, -1, -4, -3
1503686445792,-2, 1, -4, 0, -2, -4, -7, -13
1503686445808,2, 2, 1, 5, 2, 3, 5, 4
1503686445829,0, 2, 2, 3, 0, 0, 3, 1
1503686445852,11, 4, 1, -5, -4, -3, 3, 15
1503686445875,1, 5, 3, 7, 6, 3, 1, -5
1503686445889,-6, -1, -2, -1, 2, -1, -5, -16
1503686445911,-2, -2, -4, -1, -2, 0, 3, 2
1503686445918,7, 3, -2, 0, 0, -4, -5, 5
1503686445941,-3, -2, -1, 0, -1, -3, 1, -3
1503686445949,0, -3, 0, 2, -2, -1, -4, 3
1503686445971,-9, -12, -10, -9, -7, -4, -3, -1
1503686445993,-1, -6, -5, -3, -1, -2, 1, 3
1503686446010,6, 3, 2, 0, 1, -1, -2, -2
1503686446031,-1, -2, -2, -3, -2, 1, 3, 3
1503686446054,-6, 3, -1, 3, 3, -1, -4, -13
1503686446074,4, 1, 4, 0, 1, -3, 2, 5
1503686446091,0, 2, 2, 4, 1, 1, 1, -2
1503686446113,-4, -5, 0, 0, -2, -1, 1, 1
1503686446121,-1, -3, -1, -1, 0, -2, 1, 1
1503686446145,-1, -1, -2, -3, -3, -3, -4, -3
1503686446159,-2, -2, -1, -4, -3, -2, -6, -6
1503686446181,-3, 0, -2, -5, -2, -1, 1, -1
1503686446204,3, 3, 1, 0, 0, -2, 1, 0
1503686446218,3, -1, 3, 3, 1, 1, 2, 4
1503686446241,1, -3, -4, -2, 0, 0, -2, 0
1503686446264,0, 2, 2, 8, 1, 2, -1, -3
1503686446281,-3, -4, -6, -4, -3, -2, -2, 0
1503686446306,7, 7, 11, 10, 5, 2, 3, 2
1503686446324,0, 8, 3, -2, -2, -2, 0, -4
1503686446341,0, 1, 5, 3, 1, 3, 1, 4
1503686446354,2, 0, -1, 1, -1, -2, -2, -1
1503686446373,0, -1, 0, 3, 2, 2, 1, -3
1503686446391,1, 1, 5, 5, 3, 1, -1, 3
1503686446414,-1, -2, 0, -3, -5, -3, 2, -1
1503686446429,2, 0, -2, -2, -4, 1, -1, -4
1503686446452,2, 1, -2, 0, 3, 1, -1, 1
1503686446476,-2, -2, -2, -1, -1, -1, 0, -2
1503686446489,-2, -2, -5, -3, -2, -2, -3, 1
1503686446519,-4, -4, -5, -4, -2, 0, 0, -4
1503686446542,1, 0, -1, -3, -1, -2, -2, 2
1503686446563,3, 5, 4, 8, 3, 1, 1, -1
1503686446593,-4, -8, -8, -6, -4, -2, -4, -2
1503686446609,-9, -12, -6, -5, -2, -3, -5, -7
1503686446631,5, 2, 2, 0, 1, 3, 0, 0
1503686446641,1, -3, -8, -9, -3, -3, -4, -1
1503686446661,2, 5, 4, 1, -3, -2, -2, 7
1503686446684,-4, -9, -6, -3, -1, -1, 0, -2
1503686446698,-3, -8, -4, 0, -1, -2, -1, -3
1503686446721,3, 8, 16, 8, 2, 2, 2, 4
1503686446744,2, 5, -5, -4, 1, -1, -2, -2
1503686446758,-1, -4, -6, -1, -2, -1, -3, 0
1503686446775,4, 4, 0, -1, 1, -1, -1, 4
1503686446789,-5, -4, 0, 0, 0, 0, -1, -7
1503686446812,4, 0, 3, 0, 1, 1, 1, 0
1503686446833,-3, 0, -3, -4, -3, -4, -5, -4
1503686446849,5, 1, -2, 0, 2, -1, 2, 10
1503686446864,0, -1, 0, 1, 1, 2, 0, -3
1503686446881,2, 11, 10, 5, 2, 1, -1, -1
1503686446901,-3, -4, -2, -2, -1, 1, 0, 0
1503686446923,1, 0, 4, 2, -1, -1, -5, -2
1503686446931,1, -8, -8, -7, -5, -2, 1, 1
1503686446954,3, -2, -3, 0, 2, 0, 0, -1
1503686446978,-3, 1, 1, 1, -5, 0, -2, -3
1503686446992,0, -3, -1, -3, -3, -1, -2, -1
1503686447013,3, 5, 4, 0, 3, 2, 0, 0
1503686447036,-2, 1, -3, -1, -3, -1, -1, -1
1503686447051,-2, 0, 0, 0, 1, -3, 1, -2
1503686447076,0, -2, 0, 0, -2, -1, -2, -2
1503686447096,1, -1, -2, -1, 0, 0, 1, -1
1503686447112,-5, 3, 4, 0, 0, 0, 1, -1
1503686447133,0, -4, -5, -2, -2, -2, -3, 1
1503686447156,0, 4, 2, -1, -3, 0, 1, 0
1503686447171,3, 5, 5, 2, 4, 2, -1, 0
1503686447193,-7, -6, -2, -5, -3, -2, 0, -2
1503686447216,2, -1, 1, 5, -1, 0, 0, 2
1503686447232,-3, -4, -2, 2, -1, -3, -5, -4
1503686447257,2, -3, -4, -3, -2, 1, 0, 1
1503686447283,-3, -2, -3, -2, -1, 0, 0, 0
1503686447291,3, -3, 0, -3, 1, -2, -2, -1
1503686447320,0, 5, 4, 5, 1, 2, 2, -3
1503686447336,-1, -5, -10, -9, -6, -4, -5, 1
1503686447351,4, 7, 9, 2, 2, 0, 2, 3
1503686447373,-3, -7, -3, -3, 0, -1, -3, 3
1503686447396,-3, -2, 2, 1, 0, 2, 2, -2
1503686447412,2, 1, -3, -2, -2, -1, -1, -3
1503686447433,-4, -1, 0, 0, -2, -1, 0, 6
1503686447456,-4, -2, -1, 0, -4, 1, 0, -5
1503686447479,-1, -2, 0, 2, 1, 2, 0, -3
1503686447494,0, 1, -1, -1, 1, 3, 0, -2
1503686447516,-1, -1, -2, -4, -1, -5, 0, 0
1503686447532,3, 0, 0, 1, 0, -2, 2, 5
1503686447554,-2, -2, 1, 2, 1, 0, -8, -11
1503686447576,1, 12, 10, 5, -1, -4, -3, -3
1503686447592,-5, -5, -12, -12, -4, -7, -3, -7
1503686447614,-13, -11, -10, -3, -2, -2, -3, -13
1503686447636,7, 3, 2, -1, 0, -1, 2, 8
1503686447652,2, -1, 1, 2, 1, 4, 1, 7
1503686447674,-16, -5, 4, -2, -3, -4, -3, -20
1503686447696,10, -3, -4, -4, 1, 3, 9, 16
1503686447714,-8, -4, -5, -4, -2, -4, -9, -27
1503686447733,16, 12, 10, 6, 3, 3, 3, 17
1503686447757,-6, -9, -6, -4, -2, -1, -6, -2
1503686447773,-6, -2, 1, -1, -2, 0, 3, 0
1503686447793,13, -2, 2, 2, -1, 4, 5, 27
1503686447818,-4, -5, -8, -1, -1, -2, 0, 0
1503686447832,-4, -3, -1, 0, 1, -3, -6, -11
1503686447854,7, -4, -2, -1, 0, 1, 10, 23
1503686447876,0, 5, 1, 0, 0, -1, -3, -5
1503686447898,-8, -6, -1, -4, -3, -4, -6, -10
1503686447928,-5, -2, 0, 0, 4, 3, 0, -1
1503686447944,-3, -5, -1, -2, -1, -5, -2, -3
1503686447965,6, 0, 1, 1, 1, 1, 0, 2
1503686447988,3, -4, 0, 1, -1, -1, 4, 5
1503686448004,1, 2, -3, 0, 0, -1, 1, -2
1503686448025,1, 3, 7, 5, 2, 1, -1, -10
1503686448050,-14, -13, -10, -3, -2, -3, -13, -7
1503686448064,-11, -7, -5, -9, -5, -3, -4, -7
1503686448086,6, -1, -2, 0, -2, -4, 0, 0
1503686448108,5, 3, 0, 1, 2, 0, 1, 2
1503686448124,-11, -12, -9, -8, -5, -3, 1, 23
1503686448145,5, 15, 18, 8, 5, 4, 9, 12
1503686448155,-4, -13, -7, -9, -8, -6, -6, 6
1503686448176,1, -1, 2, -1, 2, 1, 2, -3
1503686448185,2, -1, -3, 0, -3, -1, -6, -18
1503686448205,4, 6, 2, 1, 0, 1, 5, -2
1503686448229,-5, -4, -3, -3, -3, 1, -3, -9
1503686448244,-3, -5, 0, -2, 1, -1, -7, -11
1503686448265,3, 4, 2, 0, 1, 0, 3, 3
1503686448293,4, 1, -1, 0, 3, -1, -2, -2
1503686448304,-3, -3, -2, -1, -3, -4, 2, 3
1503686448326,-2, -2, -2, -5, -5, -3, -6, -2
1503686448348,7, 7, 6, 30, 21, 10, 5, 5
1503686448363,3, 1, -1, -5, -8, -7, -1, 3
1503686448379,5, -1, -1, -1, -3, -3, -4, 8
1503686448393,5, -2, 1, -5, -3, 2, 11, 8
1503686448416,-2, 6, 9, 3, 0, -4, -5, -11
1503686448438,-4, -4, -5, 2, 1, 1, 1, -3
1503686448454,-2, 0, 1, 1, 3, 1, -1, -1
1503686448476,5, 2, 2, 1, 0, -2, -2, -1
1503686448486,2, -4, -4, -3, -2, 0, 0, 4
1503686448505,1, 1, 5, 2, -2, -2, -2, -5
1503686448528,-9, -10, -5, -4, -3, -2, -6, -12
1503686448543,8, 1, -1, 0, 3, 2, 2, 8
1503686448565,0, 2, 2, 4, 1, -2, -3, -1
1503686448596,1, 6, 5, -3, -2, -2, 0, 3
1503686448604,6, -4, -5, 0, 0, 1, 3, 6
1503686448625,3, 5, 3, -1, 1, 0, 0, 2
1503686448648,1, 6, 4, -1, -3, -2, -4, 0
1503686448664,2, 2, 5, 0, -2, -1, 3, 8
1503686448688,-5, -1, -3, 2, -1, 1, -1, -12
1503686448708,0, 3, 2, -2, 1, 0, 3, 5
1503686448724,-4, 3, -1, -2, -3, -3, -4, -7
1503686448738,-5, 1, 3, -2, -2, 0, 3, -12
1503686448754,4, 6, 2, 1, -2, -2, -1, -1
1503686448776,-4, -5, -1, -2, -1, -1, -2, -1
1503686448798,7, 2, 1, 1, 0, 0, 5, 6
1503686448821,-2, 4, 6, 3, 1, 1, -6, -8
1503686448836,-1, -6, -3, 2, 0, 2, 2, 2
1503686448858,2, 5, -1, 0, 2, -2, -1, 1
1503686448881,-1, -4, -3, -3, -2, -3, -2, -6
1503686448896,6, -2, 1, 1, 1, 1, -1, 8
1503686448924,-2, -1, -3, -1, -4, 0, 4, -3
1503686448941,1, -1, -3, -3, -2, -3, -2, 6
1503686448961,0, -4, -2, -2, -3, -1, 0, 1
1503686448971,-5, -2, -2, -1, -3, -2, -2, -7
1503686448985,-1, 4, 1, 1, -1, 1, 2, 2
1503686449008,-4, -6, -6, -5, -2, 0, 2, 2
1503686449032,1, 2, 4, 0, 0, -2, -3, -2
1503686449046,3, -2, -5, -2, -3, -1, -2, -2
1503686449069,-1, -1, -2, 1, -2, 1, -4, -1
1503686449091,1, 0, -5, -1, -1, -3, -1, -1
1503686449113,1, 3, 2, -1, 0, -1, -4, -3
1503686449130,-3, -3, 0, -1, -1, -2, -1, -4
1503686449151,-2, -2, -6, -2, 2, 1, 0, 7
1503686449174,3, -3, -4, -3, 0, 0, 2, 11
1503686449197,1, 5, 5, 0, 1, 2, -1, -5
1503686449211,-5, -11, -3, -1, -3, -3, 1, -4
1503686449233,-2, -5, -5, -3, -2, -3, -5, -4
1503686449249,1, 6, 4, -1, 1, 0, -1, 1
1503686449271,-1, -4, -3, -1, -1, -3, 1, -2
1503686449294,-4, -4, -7, -5, -5, -2, -3, -4
1503686449309,2, 4, -1, 1, 1, 0, 3, 7
1503686449331,0, -3, 0, -1, -4, -2, -3, -5
1503686449354,-3, -5, -4, -1, -1, 0, 1, 1
1503686449369,1, 5, 7, 6, 1, 3, 2, 4
1503686449393,-1, -7, -2, -4, 0, -1, -4, -11
1503686449414,0, 0, -2, 0, 1, -1, 1, 8
1503686449430,-4, 1, -4, -3, 0, -4, -1, -8
1503686449451,-2, 0, -2, -3, -1, -2, -3, 2
1503686449474,-1, 2, -2, 0, -4, -1, -2, -5
1503686449489,0, -3, 0, 1, 1, 1, 0, -6
1503686449511,-1, -2, 1, -4, -2, 0, 0, 0
1503686449541,2, -2, 1, 0, 0, 0, 0, 6
1503686449549,0, 1, -3, 2, -1, -2, -2, -5
1503686449571,4, 7, 2, 2, 2, -2, -5, 1
1503686449598,-3, -6, -4, -2, -2, -2, -2, -6
1503686449609,-2, -9, -3, -4, 2, 2, 1, 2
1503686449632,3, -1, 0, 0, -1, -1, 0, 3
1503686449654,-3, 4, 7, 0, -2, 0, -4, -10
1503686449669,-5, -3, -1, -3, 0, -2, -1, -1
1503686449693,2, 2, -1, 0, -3, -1, 1, 5
1503686449714,4, 4, 2, 3, -1, -2, 0, 13
1503686449730,-4, 2, 1, 0, -4, 0, -2, -9
1503686449751,-2, -3, -1, 2, 3, 1, 1, 4
1503686449759,1, 2, 0, -3, -2, -4, -4, -9
1503686449781,-1, 6, 3, 4, 3, 0, 2, -1
1503686449804,1, 2, 3, 3, -1, -3, -5, -6
1503686449818,-2, -2, -3, -1, 0, 2, 0, -4
1503686449841,3, 3, 2, 6, 2, 0, -2, 9
1503686449864,-1, -1, -6, -8, -3, -2, 2, 1
1503686449878,-2, -1, -4, -1, -1, -1, -3, -6
1503686449901,0, -4, -1, -4, -2, 0, 2, 3
1503686449923,-1, 2, 5, 2, 0, -2, -1, -11
1503686449938,2, 8, 10, 10, 3, 2, -1, -1
1503686449963,-6, -3, 3, 3, -2, -1, -4, -4
1503686449983,-1, -10, -7, -11, -4, -2, -2, 4
1503686449999,1, -2, -5, -3, 0, 2, -1, 1
1503686450021,3, 4, 3, 2, 2, 0, 1, 5
1503686450043,1, -1, 0, 1, 1, 0, 1, 0
1503686450058,-5, -2, 2, -1, -4, -1, -4, -16
1503686450074,-2, -3, 0, -2, -3, -2, -7, 2
1503686450089,0, -8, -4, -3, -1, -2, 1, 10
1503686450111,-3, -4, -3, -2, -4, -3, -1, -7
1503686450119,-2, 0, 3, -5, 0, -2, -1, 0
1503686450141,-2, 1, -1, 1, -3, 3, -3, -4
1503686450164,-1, -1, -2, 3, 1, 0, -1, -11
1503686450179,-5, 0, -1, -4, -2, -4, -5, -19
1503686450201,0, -2, -1, -1, -4, -1, -2, 5
1503686450223,-2, -1, 0, -5, -3, -2, 0, 11
1503686450239,3, 4, 5, 9, 5, 0, 0, 4
1503686450261,-2, -3, -7, -5, -5, -1, -2, -5
1503686450283,-6, -7, -4, -4, -4, 0, 2, -5
1503686450298,-8, -1, -1, -1, 0, 0, -3, -21
1503686450321,4, -4, -2, 2, 1, -1, 6, 18
1503686450343,4, 9, 5, -2, 4, 0, 0, -2
1503686450358,2, 3, 2, -1, -2, 0, -1, 12
1503686450381,2, 4, 2, -3, -4, -2, -4, 3
1503686450403,-6, -9, -8, -2, -4, -3, -4, -8
1503686450419,-2, -5, -5, -2, 0, -3, -1, 0
1503686450441,4, 6, 5, 2, 2, 0, -1, 1
1503686450468,-2, -4, -3, -5, 0, 0, 2, -1
1503686450479,-1, -6, -5, -3, -1, -3, -3, 11
1503686450501,-2, 1, 0, 0, 0, -2, -4, -1
1503686450523,0, 1, 1, 0, -1, 1, -3, -1
1503686450538,-2, -4, -5, -3, -3, 1, 1, -1
1503686450561,-5, -1, -3, -1, -2, -2, -3, -10
1503686450583,4, 4, 3, 5, 2, 2, 3, 1
1503686450599,2, 3, 5, 3, 1, 0, 2, 0
1503686450621,-5, -4, -3, -4, -3, -2, -1, -4
1503686450643,-5, -8, -2, -1, 1, 2, 2, -2
1503686450668,4, 3, 8, 10, 3, 0, 1, 4
1503686450688,2, 3, -2, -4, -5, -1, -1, 4
1503686450705,0, -2, -1, -7, 0, 0, -1, 0
1503686450726,2, -3, -3, -3, 0, -3, 0, 6
1503686450741,-5, 0, 0, 2, 0, 0, -3, -5
1503686450763,-1, 1, 4, 3, -1, 0, 1, 4
1503686450786,-4, -2, 1, 0, -4, -2, -2, -14
1503686450803,-6, -11, -9, -6, -2, -2, -1, 2
1503686450823,-3, -1, -5, -2, -1, 1, -6, -14
1503686450846,-5, -5, -4, -1, -2, 0, 0, 1
1503686450861,6, 2, 4, 1, 0, 0, -2, 1
1503686450883,4, 7, 5, 4, 3, -1, 2, 5
1503686450906,0, 1, 1, -3, -3, -4, -3, -1
1503686450921,-1, 3, -1, -2, 2, 1, -3, -7
1503686450944,1, -1, 1, -1, -4, -2, -2, -2
1503686450966,-1, -2, 1, -4, -4, -1, 0, 1
1503686450981,-2, 0, 0, -1, -1, -2, 2, 2
1503686451006,0, 0, -2, -1, 0, 0, -1, 2
1503686451026,-1, -2, -3, -1, 0, -1, 3, 1
1503686451041,0, 2, 5, 7, 1, 2, 0, 2
1503686451063,-1, -5, -7, -6, -4, -1, -5, -6
1503686451086,-3, -4, -2, 1, 2, -1, -1, -1
1503686451101,-1, 1, 0, 0, -2, 0, -3, 0
1503686451123,1, 1, 0, 2, -2, 1, 3, 2
1503686451146,-3, -3, -1, 2, 0, -2, 1, 0
1503686451161,2, -1, -3, -1, -1, 0, -2, 2
1503686451183,0, 5, 8, 1, -1, -1, -1, -1
1503686451208,-4, -8, -5, -6, 0, -4, -6, -9
1503686451221,1, -5, -3, -1, 3, 0, -1, -3
1503686451244,-1, -2, -7, -5, -5, -1, 0, 0
1503686451266,-3, -1, 2, 2, 0, -2, 0, 0
1503686451281,-1, -2, 5, 3, 0, 0, 1, 3
1503686451306,2, 5, 4, -2, -5, 0, -1, -1
1503686451326,3, 9, 8, 2, 3, 3, 0, 1
1503686451341,2, -1, -4, -2, -2, -4, -3, -1
1503686451363,0, 2, 1, -1, -2, 2, 1, 2
1503686451386,-1, -4, -5, -3, 0, -1, -3, -7
1503686451401,1, 6, 9, 2, 3, -2, 2, 3
1503686451423,2, 2, 1, 0, 1, 1, 0, -1
1503686451446,2, -3, 0, -1, -2, 1, 2, 3
1503686451461,-4, -5, -7, -3, -2, -2, -3, -1
1503686451483,1, 2, -5, -3, -1, -2, 0, 3
1503686451510,-7, -1, -3, -3, -4, -3, -2, -5
1503686451521,3, 0, 2, 3, 4, 2, 1, 2
1503686451544,-4, 2, -2, -1, -7, -1, 0, -3
1503686451566,-3, 2, 1, 0, 1, -2, -2, 3
1503686451588,-4, -9, -2, 0, 1, -1, -2, -4
1503686451603,-2, -5, -7, -2, -3, 1, 0, -3
1503686451626,-1, 2, 3, -1, -2, -5, -4, -2
1503686451648,-3, -6, -2, -4, -4, -3, -4, -4
1503686451663,-1, -1, 0, -2, 1, -1, 1, 1
1503686451686,-5, -4, 1, 3, 0, 1, 0, -3
1503686451709,0, -2, -4, -4, -2, -2, -4, -5
1503686451746,0, 1, 4, -2, -3, 3, 1, 0
1503686451751,-2, -4, -3, -1, -1, -2, 1, 2
1503686451768,1, 1, -1, 0, 1, -2, -3, 0
1503686451784,2, 6, 1, 2, -1, 0, 1, 0
1503686451806,-1, -2, -1, 1, 3, 0, 1, 0
1503686451828,1, 4, 2, 1, -1, 1, -1, -4
1503686451844,-1, -2, -2, -1, 0, 0, 1, -4
1503686451866,-4, -7, -2, -3, -2, -5, -1, 0
1503686451888,0, -1, 1, -1, -1, 0, 0, 3
1503686451903,-1, -2, 3, 1, -2, 0, 1, 0
1503686451926,-2, 0, -4, -2, -1, -2, -3, -1
1503686451948,3, 0, -2, 0, 3, 2, 1, -1
1503686451963,2, 0, 0, -4, -1, -2, -4, -2
1503686451986,0, 0, 0, 0, -2, 1, 2, 3
1503686452012,-1, 1, -2, -2, -1, -3, -1, -2
1503686452023,-1, -4, -4, -2, -3, 1, 0, 2
1503686452047,-1, 2, 1, -4, -3, -3, -3, -3
1503686452068,-4, -9, -5, -3, -1, -1, -1, -4
1503686452083,3, 3, 2, 4, -1, -4, -5, -5
1503686452106,2, -2, 0, -2, -2, -1, 4, 7
1503686452128,3, 2, 0, 2, 7, 2, 4, 4
1503686452147,-6, -4, -1, -4, -2, -2, -2, -4
1503686452166,3, -5, 2, -1, 0, 4, 3, 6
1503686452188,-5, 0, 1, 0, -4, -3, 0, -8
1503686452203,-1, 0, 0, 3, 1, -1, -3, -3
1503686452219,-1, -2, 0, 0, 1, 3, 4, 3
1503686452234,-1, -1, -1, -1, -2, -2, -2, 1
1503686452256,2, 0, 0, -2, 0, -2, 0, 5
1503686452280,-3, -1, -2, 2, 2, -3, -6, -3
1503686452294,3, -1, 2, 4, 4, 2, 4, 2
1503686452316,1, 0, 0, -3, -4, 0, -2, 1
1503686452338,3, -2, 0, -2, -2, -3, 0, 1
1503686452354,-2, 0, -3, 0, -2, -2, -3, 0
1503686452376,-3, -2, -4, -4, 2, 1, 1, -2
1503686452398,-4, -10, -9, -6, -6, -1, 0, -2
1503686452415,-3, -5, -2, -1, -3, -2, -3, -2
1503686452436,-8, -4, 0, -1, 0, -3, -4, -9
1503686452458,-1, -7, -6, -6, 1, -2, 1, 1
1503686452474,11, 5, 4, 0, 2, 1, 4, 8
1503686452495,-2, -2, 1, 0, 0, 0, 2, 3
1503686452518,0, 2, 2, 0, -2, -2, -2, 3
1503686452541,-2, 2, 0, 3, 5, 2, -1, -10
1503686452556,-3, 2, 1, 2, 0, 0, -2, -5
1503686452579,-2, 2, 0, 0, -2, -3, -3, -1
1503686452586,-1, -2, -3, -4, -3, -1, -6, -4
1503686452608,-2, -1, -3, -1, 1, 4, -1, -1
1503686452630,-2, 0, -4, -1, -3, -3, -4, -4
1503686452647,4, 1, 5, -2, 0, -2, 4, 26
1503686452668,-2, -5, -5, -1, -3, -3, 4, -3
1503686452690,0, 1, 4, 2, -1, -2, -5, -10
1503686452706,-7, -2, -1, -2, -5, -1, -2, -3
1503686452728,-4, -2, 0, -2, 1, -4, -2, -2
1503686452750,0, -1, -4, 3, 0, 3, 4, 1
1503686452766,4, -1, -3, -1, 2, 2, 5, 1
1503686452783,-4, 0, -2, -3, -4, -8, -7, -8
1503686452796,8, 4, 1, 3, 0, 1, 2, 3
1503686452819,5, -3, -5, -6, -2, -1, 0, 8
1503686452841,-1, -4, -5, -5, -4, -6, -2, -1
1503686452856,1, -1, -3, -9, -7, -4, 0, -3
1503686452879,-4, -2, 4, 6, 5, 4, -1, 1
1503686452901,-2, -1, -3, -7, -2, 2, -2, 1
1503686452916,-2, -2, 0, 3, 2, 1, 0, -1
1503686452938,-2, -3, 1, 1, -1, -1, 0, -2
1503686452961,0, -3, 0, -3, -3, -3, 0, 6
1503686452976,6, 3, 1, 3, 4, 2, 4, 4
1503686452998,-10, -4, -5, -3, 0, -1, -3, -6
1503686453013,0, -1, 0, -3, -1, 2, 1, 0
1503686453035,-2, -1, 3, 0, 0, -1, 1, -1
1503686453055,-1, -8, -6, -6, -4, -6, -4, -3
1503686453066,-1, -5, -6, -5, -2, 1, -3, -6
1503686453088,2, 4, 0, 4, 4, -1, -2, -3
1503686453110,4, 5, 4, 2, 4, 2, 6, 5
1503686453127,1, 0, 2, 2, -3, -2, -1, -1
1503686453148,-5, 0, -2, -2, -1, -2, -1, -1
1503686453170,1, 1, 5, -1, -3, -1, 1, -8
1503686453189,-1, -5, -4, 0, 0, 2, 7, 11
1503686453208,7, 0, -1, -7, -5, -4, 0, 1
1503686453230,-6, -2, -1, 3, 4, 2, -1, -6
1503686453246,-2, -1, -2, -3, -3, -3, -6, -3
1503686453267,-8, 2, 2, 0, 2, -2, -5, -11
1503686453290,8, 7, -4, -2, -1, 2, 3, 15
1503686453306,1, -5, -4, 1, -1, 1, -1, 1
1503686453328,5, 4, 4, 4, 2, 2, 3, 6
1503686453350,1, 5, 3, 2, 1, 2, 4, -1
1503686453366,-4, -4, -3, -2, -3, -2, -7, -10
1503686453388,2, -3, 4, 2, 2, 3, 1, 3
1503686453410,-5, -3, -1, -3, -2, -2, 1, 3
1503686453432,-4, 0, 2, -1, 1, -5, -5, -7
1503686453441,-6, -1, -1, -1, 0, 0, 0, -4
1503686453464,1, 0, -2, -1, -1, -3, 1, 2
1503686453481,-2, -4, 0, -1, -1, 0, 2, 1
1503686453501,-9, -2, -1, -4, 0, 1, -2, -13
1503686453523,1, 1, -3, 0, -2, -2, -3, -4
1503686453538,0, 1, 0, -3, -2, -3, 0, 6
1503686453561,4, 0, -1, 0, 2, 2, -2, 3
1503686453583,-5, -3, -1, 1, -2, -2, 1, 10
1503686453601,4, 2, 1, 1, 0, 1, 1, 4
1503686453623,2, 0, -1, -2, -1, -1, 0, -1
1503686453643,-1, -4, -2, 0, 0, 1, 2, 3
1503686453659,4, 4, 1, -1, 0, -2, 0, -1
1503686453673,0, -3, -3, 0, 0, 0, -1, -1
1503686453691,0, 3, 5, 1, 1, 2, 1, 6
1503686453718,0, -2, -1, -2, -2, -2, -2, -6
1503686453720,-5, -6, -4, -2, -1, -3, -1, -4
1503686453741,2, 2, 0, 0, -3, 1, 2, 0
1503686453764,-2, 0, 3, 1, -1, -1, -7, -13
1503686453778,3, 3, 1, -3, 0, 0, 1, 4
1503686453801,1, 1, -1, 1, -1, 0, 0, 1
1503686453827,0, -1, -1, 0, 2, -1, 2, 1
1503686453838,-3, -5, 0, -1, -4, 0, -2, -5
1503686453861,-3, -1, 2, 0, 3, 0, -1, 1
1503686453883,-6, 3, -1, -1, -2, -4, -5, -3
1503686453899,1, -3, -2, -2, -1, 0, 1, 4
1503686453921,-1, 0, 1, 2, -2, 0, -2, -5
1503686453928,2, 0, 0, 1, -1, 0, 2, 0
1503686453950,-1, 2, 0, -1, 1, 0, 0, -2
1503686453972,-4, -3, 0, -2, -4, -2, -4, -6
1503686453981,1, 4, 6, 2, 2, -3, -4, -6
1503686454003,3, -3, -1, -2, -1, 1, 2, 2
1503686454018,-3, -3, 0, -2, 0, -2, -2, -1
1503686454041,-6, -4, -5, 0, -1, 0, -2, -9
1503686454063,2, 0, -1, -2, 2, 0, -1, 7
1503686454078,1, -2, -2, 0, -1, -3, -1, -4
1503686454101,-3, -5, -2, -1, -3, -1, 1, 4
1503686454126,-4, -4, 0, 2, 0, -4, -6, -4
1503686454138,-2, 0, 1, 0, -2, -1, 1, 9
1503686454161,-3, -1, 1, -2, -3, -3, -3, -11
1503686454183,-1, -3, -5, -3, -3, 2, 1, -2
1503686454198,0, -5, -7, -3, 0, 0, 4, 5
1503686454221,4, 0, -2, -1, 0, -1, 0, 4
1503686454243,1, 2, 0, 1, -2, 1, 0, 0
1503686454264,0, -4, -5, -5, -4, 0, 2, 12
1503686454280,0, -3, -4, 0, 1, -2, -1, -4
1503686454303,-5, 3, 1, 1, 1, 1, -1, 0
1503686454334,-2, -2, -1, -2, -2, 1, 2, 6
1503686454356,3, 3, 13, 13, 5, 3, 6, 5
1503686454371,-3, -2, -2, -4, -3, -3, -2, -12
1503686454405,-2, -2, -4, -3, -3, -3, -4, -2
1503686454423,-3, 3, 4, 6, 2, -3, -1, -1
1503686454446,-2, 0, -1, -2, 0, -1, -2, -10
1503686454466,8, -4, 2, -1, 0, 1, 7, 14
1503686454483,-1, 1, 3, 0, 0, -1, 0, 0
1503686454506,6, 17, 13, 11, 2, 0, 0, -3
1503686454521,4, 0, -1, -8, 0, 1, 3, 2
1503686454543,-4, -3, -1, 4, -1, -1, -6, -16
1503686454566,5, 1, -1, -3, -4, -4, -3, 8
1503686454581,-2, -6, -10, -7, -2, 1, 0, 3
1503686454611,0, -7, -5, -7, -3, -1, 4, 8
1503686454634,6, 1, -1, 0, -1, -1, 1, 3
1503686454656,3, 4, 4, 3, 2, 1, 1, 0
1503686454672,0, -1, 3, 11, 4, 1, -1, -7
1503686454696,-5, -6, -9, -11, -7, -6, -6, -6
1503686454716,2, 4, -3, -4, -3, 1, 4, 6
1503686454732,-2, -1, 2, 2, 0, -2, -4, -11
1503686454754,-3, -3, -3, -4, -1, -1, -1, 4
1503686454776,-6, -8, -7, -5, -2, -4, -7, -5
1503686454791,-5, -11, -4, -6, -5, 1, 3, -5
1503686454814,-1, -2, -2, -4, 0, 1, -3, 1
1503686454836,-2, 4, -2, -2, -4, 0, -4, -14
1503686454851,6, 1, -1, -2, -2, -3, -1, 11
1503686454874,-4, 4, 2, -1, -1, 2, 3, -6
1503686454899,-7, -2, -1, -3, -4, -2, -2, -11
1503686454911,5, -2, -1, 0, -1, -3, 2, 15
1503686454934,3, 3, 7, 3, 3, 3, 1, 3
1503686454956,-1, -3, -2, -5, -1, -4, -5, 2
1503686454973,-1, -3, -9, -5, -3, -2, 2, 8
1503686454994,0, 4, 3, 3, 1, -3, -4, -6
1503686455016,-4, -4, -5, -5, -3, -2, -3, -6
1503686455033,0, 1, -3, -2, -2, -3, -4, 0
1503686455054,4, 0, 6, 2, 1, 1, 1, 6
1503686455076,3, 2, 2, 5, 2, 3, 0, -6
1503686455091,-3, -2, -1, -2, 1, 0, 0, 2
1503686455114,-1, 2, 1, 3, -1, 1, 0, 1
1503686455136,-2, 3, 3, 4, 1, 0, -4, -6
1503686455159,-1, -1, 1, -2, 0, -2, -2, 0
1503686455174,-2, -5, -3, -3, -4, 0, 0, -1
1503686455196,0, -1, 0, 1, 2, 0, -1, 0
1503686455218,-1, -2, 0, -1, -1, 0, -2, 1
1503686455226,0, 3, 0, 2, 0, 1, 3, 3
1503686455241,-5, -2, 0, -3, -2, -2, -4, -8
1503686455263,2, -4, -1, -3, -2, -1, -1, -2
1503686455286,-1, 0, -1, -1, -1, -1, 1, 2
1503686455301,-2, -1, 0, -2, -1, -1, -3, -2
1503686455323,2, 3, 4, 4, 3, -1, 2, 0
1503686455346,-2, 2, -1, -2, 0, 0, -4, -2
1503686455368,-2, -4, -2, 2, -2, -3, -3, -1
1503686455383,0, 1, -1, 0, -2, -1, -1, -3
1503686455407,-2, -3, -4, -2, -1, 0, 1, -4
1503686455428,-1, -1, -3, -2, -1, -1, -4, -4
1503686455443,3, 1, 4, 5, -1, -1, 0, 1
1503686455468,-1, -2, 2, -3, 0, 2, 2, -2
1503686455488,2, 4, 2, -1, 0, 0, 2, 5
1503686455503,2, 6, 10, 3, 2, 0, -1, 1
1503686455525,-3, -6, -7, -7, -2, 0, -1, -1
1503686455548,1, 0, 1, -2, 0, 3, 0, 2
1503686455563,0, 1, 6, 3, 1, -1, -2, -2
1503686455585,-5, -5, -5, -3, -3, -3, -2, -6
1503686455608,6, 15, 14, 4, 3, 1, 1, 1
1503686455623,-10, -10, -4, 0, -3, -2, -3, -10
1503686455645,-1, 2, 2, 0, -1, 1, 0, 0
1503686455669,4, 5, 2, 1, 4, 2, 2, 4
1503686455683,-3, -8, -9, -5, -4, -4, 1, 1
1503686455706,-2, -6, -9, -2, -6, -4, -6, -3
1503686455728,-4, -2, -3, -1, 2, -3, 0, -1
1503686455744,-1, -4, -5, -4, -4, -2, -2, -2
1503686455765,-3, -6, -9, -3, -4, -2, -1, 1
1503686455774,4, 0, 0, 2, 2, 0, -2, 0
1503686455796,-3, -4, -6, -1, -1, 0, 0, -1
1503686455804,3, 0, -3, -1, -2, 0, 2, 2
1503686455826,-4, -1, 6, -1, -4, -1, -3, -1
1503686455849,-3, -5, -8, -3, -4, -3, -4, -2
1503686455863,2, -2, -2, -1, 0, -1, 1, 3
1503686455886,2, 7, 7, 2, 3, 2, 0, 1
1503686455908,-3, -7, -7, -7, -5, -2, -3, -5
1503686455923,0, -1, 1, 0, 2, 0, 1, 0
1503686455947,5, 11, 14, 10, 6, 7, 5, 1
1503686455969,-2, -5, -5, -4, -3, -5, -4, -3
1503686455983,-1, 2, 2, 1, 1, 1, -1, 0
1503686456006,2, 2, 0, 2, 1, -1, -2, -5
1503686456028,4, 3, 4, 2, -2, -1, 1, 4
1503686456043,0, 2, 5, 2, -2, -3, -1, 2
1503686456066,2, -15, -15, -9, -1, 1, 2, 10
1503686456088,-4, 16, 13, 8, 1, 1, 1, 2
1503686456104,-3, -4, -2, -3, -3, -1, -3, -6
1503686456127,-5, -3, -2, -5, -4, -2, -3, -7
1503686456149,-3, -5, -4, -1, 0, -1, 1, -1
1503686456163,3, 6, 1, -1, 0, -1, 0, 1
1503686456186,-3, -3, -3, -4, -2, -4, -5, -3
1503686456208,-5, -2, -2, -5, -3, -2, 2, -2
1503686456223,-1, -2, -4, 0, -3, 0, -2, -4
1503686456246,-1, -1, -1, 3, 3, 0, -1, -1
1503686456268,-1, -3, -5, -2, -3, -2, -3, -3
1503686456277,11, 11, 11, 4, 4, 5, 6, 15
1503686456299,-5, 3, -9, -1, -1, 1, -1, -8
1503686456321,-5, -22, -15, -8, -3, -2, 0, 5
1503686456337,-1, -5, -2, -4, -3, 1, 0, 1
1503686456359,0, 0, 1, -2, -4, -1, -5, -7
1503686456381,-2, -6, -11, -6, -3, -4, -2, -5
1503686456396,1, 2, 2, 5, 5, 1, 1, 1
1503686456419,3, 1, 0, 0, 3, 2, -1, 0
1503686456441,5, 2, 7, 2, 0, 1, 4, 2
1503686456456,0, 1, 1, -3, -2, -3, -3, -2
1503686456479,-4, 0, 3, -3, -3, -3, -5, -5
1503686456501,-3, -1, -1, -1, -2, -4, -2, -1
1503686456517,-1, 3, 2, 1, -2, -1, 2, -1
1503686456531,-2, 1, -2, -7, -8, -5, -4, -3
1503686456546,-1, 0, 2, 6, 8, 4, 0, -1
1503686456568,2, -6, -7, -5, -4, -1, 4, 11
1503686456591,-3, -11, -11, -10, -3, -5, -7, -7
1503686456605,-7, -8, -7, 0, 0, -2, 0, -9
1503686456628,-3, -1, 0, 4, 0, 2, -2, -3
1503686456651,-1, 9, 6, 2, -1, 0, -3, -1
1503686456665,4, 4, 5, 7, 5, 1, 1, 4
1503686456688,-2, -6, -3, -4, -4, -4, 3, -2
1503686456711,0, 2, 3, -2, 0, -2, -2, -7
1503686456725,-1, 3, 2, -2, -1, -2, 1, 3
1503686456748,3, 2, 1, 1, 0, 1, 3, 3
1503686456770,2, 0, -2, 0, -1, 0, 1, 1
1503686456780,2, -1, 0, 0, -2, 0, -3, -1
1503686456800,0, 0, -2, 0, -2, -4, -3, -3
1503686456809,5, 0, -2, 0, -2, -2, -5, -1
1503686456830,-1, 7, 6, 5, -4, 1, -1, -2
1503686456839,4, 17, 17, 5, 2, 1, -3, -5
1503686456846,-9, -18, -6, -5, -4, 0, -1, 1
1503686456868,6, 5, 6, 1, 1, 1, 4, 7
1503686456890,7, 12, 5, 1, -4, 0, -2, 0
1503686456899,1, 1, 2, 4, 1, -1, 2, 0
1503686456922,0, 9, 12, 6, 4, 4, 1, -6
1503686456936,-4, 3, 0, 0, 1, -1, -1, -9
1503686456959,2, -5, -4, -2, 0, -1, 1, 0
1503686456988,-1, -3, -5, -4, -1, -2, 1, 4
1503686456996,-1, -7, -6, -2, -5, -3, -3, -4
1503686457020,1, -3, -5, -2, 0, 0, -3, 1
1503686457041,-4, -4, -2, -1, -6, 0, -2, 1
1503686457056,0, 1, 1, -3, 0, 0, 0, 0
1503686457089,0, -1, 3, 2, 1, 1, -1, -2
1503686457108,0, 1, -1, 1, -2, -2, -2, -1
1503686457131,2, -1, -3, -2, -2, 0, 0, 0
1503686457148,2, 2, 1, -2, 0, -3, -1, 1
1503686457168,0, -4, 1, -2, -2, -1, 0, 1
1503686457190,-2, -3, -2, 0, -1, -1, -2, -2
1503686457214,-3, 0, 3, 1, 0, -2, -1, -4
1503686457228,0, -2, -2, -2, -2, -3, -2, 2
1503686457251,1, -2, -3, 0, 2, 1, 1, 5
1503686457272,-1, -1, -2, -2, -1, 0, -1, -3
1503686457289,0, 0, 0, 1, -2, -2, -1, 3
1503686457310,-1, 1, 1, 0, 1, 0, -1, 0
1503686457332,-1, 0, 5, 3, 1, -1, -3, -6
1503686457348,0, -1, 1, -2, -2, 1, 1, -1
1503686457370,2, 1, 1, 3, 0, -4, -5, -1
1503686457379,-1, 0, -1, 0, -3, 1, 0, -2
1503686457400,1, 4, 4, 5, 4, 1, -1, -3
1503686457423,-1, 1, 3, -2, -3, -2, -1, -2
1503686457438,2, -6, -3, -2, -2, 2, -1, 0
1503686457460,-7, -5, -1, -2, -2, -1, 0, 1
1503686457483,8, 2, -2, 0, 1, -2, 0, 1
1503686457499,-2, 0, 6, 7, 2, 0, 2, -2
1503686457521,-1, 2, 2, -1, -1, 0, -3, -2
1503686457543,-8, -7, -10, -7, -3, -3, -3, -2
1503686457559,1, -2, -4, -1, -1, -1, -1, 1
1503686457591,8, 1, 0, -2, -2, -1, 2, 5
1503686457603,10, 8, 4, 4, 5, 2, 2, 10
1503686457620,6, 9, 1, -2, -2, 0, -2, -4
1503686457640,-7, 12, 10, 5, 4, 1, -6, -25
1503686457651,-22, -11, -2, 2, -3, -5, -10, -8
1503686457670,16, 6, 6, 5, 1, 5, 7, 9
1503686457692,-4, -2, -1, 0, 6, 13, 6, 3
1503686457708,-3, -1, -6, -13, -11, 11, -5, -13
1503686457730,-2, -1, 0, 2, -3, -2, -3, -1
1503686457754,8, 2, -3, -9, -4, -1, 5, 12
1503686457768,1, 0, 2, 2, 2, 0, 0, -3
1503686457791,3, 0, 1, 3, 4, -4, -1, 3
1503686457812,-12, 4, 10, 4, 2, -9, -3, -6
1503686457828,8, 6, 2, 4, 1, -5, -2, -3
1503686457851,-3, -9, -13, -12, -8, -5, -4, -2
1503686457872,-5, -8, -9, -2, -2, -4, -3, -4
1503686457888,12, 3, 2, 4, 2, 0, 1, 8
1503686457910,-1, 8, 5, 2, 1, -3, -4, -1
1503686457932,-2, -2, -1, -1, -4, 0, 1, -4
1503686457948,0, -1, 0, 1, 0, -2, -4, -7
1503686457970,-1, -2, -2, 1, -1, -4, -8, -9
1503686457992,12, 2, 0, 0, 1, -2, 6, 11
1503686458008,-16, -4, 1, 0, -1, 3, -1, -6
1503686458030,-5, -3, -6, -2, -3, -4, 1, 1
1503686458053,-4, -5, -4, -3, -1, -2, -6, -2
1503686458068,2, 6, 1, 1, 3, 0, 5, 5
1503686458091,0, 0, 0, -4, -2, -2, 6, 6
1503686458122,-2, 1, 4, 2, 1, 2, 4, 0
1503686458135,2, -3, -2, 0, 1, 3, 0, 1
1503686458158,23, 37, 34, 15, 5, 2, 1, 3
1503686458172,-13, -8, -8, -6, -3, -3, -7, -10
1503686458195,10, 6, -2, 2, -1, 1, 2, -1
1503686458203,-14, -16, -14, -11, -8, -4, -5, 6
1503686458211,14, 21, 21, 10, 5, 3, -2, -8
1503686458232,5, -8, -11, -6, -4, -3, -10, -1
1503686458255,-7, -10, -4, -5, -2, -1, -3, -2
1503686458270,-9, -10, -11, -6, -2, -1, -3, -6
1503686458292,1, -2, -1, 1, -2, 2, 4, 1
1503686458301,10, 1, -3, -2, 1, 1, 9, 17
1503686458323,10, 12, 9, 6, 3, 3, -2, -6
1503686458345,1, 0, -1, -3, -2, 0, 12, 45
1503686458360,8, 18, 16, 6, 4, 1, -7, -10
1503686458383,0, 5, -1, -1, -2, -1, -4, -13
1503686458405,3, -10, -13, -4, -3, -3, -1, 4
1503686458422,-10, 1, 1, -1, 0, -1, -2, -17
1503686458443,2, -5, -5, -1, 0, 0, 2, 11
1503686458465,-1, -8, -7, -3, 0, 0, 4, -1
1503686458480,7, 5, 2, 0, -3, 2, 5, 13
1503686458503,-10, -5, -1, 1, -1, -1, -4, -18
1503686458526,-7, -9, -4, -6, -3, -3, -3, -13
1503686458540,-1, -7, -1, 1, -2, -3, 1, 3
1503686458556,-1, 3, 5, 0, -1, -1, -6, 3
1503686458571,-3, -12, -12, -3, 0, -4, -8, -9
1503686458593,-15, -13, -5, -5, -4, -3, -2, -13
1503686458615,-1, -3, -4, 0, -1, 2, -4, -7
1503686458631,-5, -4, 0, -2, -3, -3, -6, -6
1503686458646,0, -4, -2, 1, -3, -2, -2, 7
1503686458661,3, 1, -4, 0, 1, -1, -1, 6
1503686458683,0, -2, -5, -5, -4, -3, 2, 22
1503686458705,2, 0, 0, -2, -1, -1, 0, -6
1503686458721,-3, -3, 1, 0, 0, -1, -4, -13
1503686458743,-4, -5, -6, -4, -2, 0, -4, -1
1503686458766,6, 3, 3, 3, 0, -1, 2, 7
1503686458780,-8, -5, 1, -2, -2, -2, 0, 1
1503686458803,5, 6, 2, 0, -2, 1, 7, 10
1503686458826,-7, 2, -2, -1, 2, -4, -4, -16
1503686458840,1, 1, 0, 1, 1, 1, 1, -2
1503686458863,-9, -4, -1, 2, 2, 0, -2, -1
1503686458885,-13, -8, -6, -6, -5, -5, -5, -5
1503686458892,-2, -3, -1, -3, -2, -1, 0, 4
1503686458915,7, 5, 3, 3, 0, -1, 3, 7
1503686458930,-8, -5, 1, 0, 2, 0, -2, -5
1503686458952,4, 2, 2, -2, -1, -3, -6, -7
1503686458976,1, 3, 3, -1, -1, 0, -1, 1
1503686458991,-3, 0, 1, -1, 2, 1, 3, 1
1503686459005,0, -2, -2, -1, 2, 0, 1, -1
1503686459020,-9, -6, -5, -4, -6, -6, -7, -5
1503686459043,-1, 2, -2, 0, 1, 0, -1, 0
1503686459065,-6, -2, -3, -7, -2, -3, -5, -12
1503686459088,-1, -4, -5, -3, -1, -1, -1, 1
1503686459103,-9, -3, 3, 1, 1, -1, -1, 1
1503686459126,3, -2, 0, -3, 0, 0, 0, -1
1503686459148,8, 13, 6, 1, 0, 2, 2, 6
1503686459164,0, -3, -2, 0, 0, -1, 1, -2
1503686459186,3, -3, 0, -1, 4, 1, 4, 8
1503686459208,0, 1, 0, 1, -4, -5, -3, -11
1503686459230,-2, -2, -1, -4, -2, 2, -1, 0
1503686459252,0, 2, -4, -3, -2, -2, -2, 0
1503686459269,-5, -2, -5, 2, 0, -1, -1, -3
1503686459283,-1, -2, 2, 2, 1, 1, 5, 6
1503686459305,4, 3, 4, 5, 2, 2, -3, -2
1503686459329,-7, -5, 0, -2, 0, -3, -5, -14
1503686459343,1, -6, -4, -4, -4, 0, 2, 0
1503686459365,0, 1, 3, 5, 1, 2, 0, 6
1503686459388,-1, -5, -7, -4, -4, -2, -6, -3
1503686459404,1, 4, 2, -1, 0, 0, 0, -3
1503686459425,4, 4, 2, 4, 1, 2, 3, 8
1503686459448,0, -3, 0, -2, -1, 0, -5, -3
1503686459478,-4, -3, -3, -2, -3, -1, -3, 7
1503686459501,-3, -4, -6, -6, 0, -2, -2, -1
1503686459516,0, 0, 0, 0, 0, -2, -1, -5
1503686459538,0, -1, -1, -3, 1, -2, -1, 0
1503686459545,4, -2, -6, -4, -3, 1, 2, 2
1503686459576,0, 1, -5, -2, -3, -6, -3, 1
1503686459600,0, -3, 2, -4, -2, -1, 6, 24
1503686459621,-3, 2, 0, 3, 1, 1, -3, -18
1503686459636,3, 5, 5, 2, -2, 1, -2, -4
1503686459659,2, 4, -1, 4, 2, -1, 2, 4
1503686459681,2, -5, -4, -4, -4, -1, 5, 18
1503686459698,-1, -4, -3, -3, -2, 0, -3, -9
1503686459718,0, 0, 1, 1, -1, -1, -3, 0
1503686459741,0, -3, -1, -5, -1, 1, 7, 15
1503686459756,-3, -4, -5, -6, -5, -4, -5, -13
1503686459778,-4, -2, -3, -2, 0, -1, -3, -10
1503686459801,-1, -5, -3, -2, -2, -2, -1, 0
1503686459816,0, -1, 1, 3, 2, -2, -5, -2
1503686459838,0, -3, 0, -4, -3, -1, 1, 6
1503686459845,-1, 2, 3, 4, 1, -2, -2, -3
1503686459868,2, 1, 4, 3, -1, 0, 1, 5
1503686459883,-1, 0, -5, -1, 1, -2, -3, -5
1503686459905,1, -4, -2, 1, 1, 1, 0, 0
1503686459928,-2, -1, 0, 0, -1, -1, -3, -6
1503686459943,0, 2, -2, -3, -5, -2, -3, -2
1503686459965,-4, -5, -3, -3, 0, -3, -1, -4
1503686459988,1, 4, 6, 5, 3, 3, 0, -2
1503686460010,0, -1, -2, -3, 0, 1, 1, 3
1503686460025,1, -3, -4, 0, 0, -2, 3, 11
1503686460048,3, 1, -1, -4, -2, -2, -4, -4
1503686460070,-8, -10, -9, -10, -5, -3, -3, -6
1503686460085,5, -1, -5, -3, -4, -3, 0, 6
1503686460108,1, 3, 2, 2, -2, 3, 0, 0
1503686460130,-2, 3, 7, 8, 1, 1, -1, -6
1503686460145,1, 1, 2, 5, 3, -2, -1, -4
1503686460168,-3, -2, -4, -5, -2, -2, 2, 2
1503686460190,-2, -3, 0, -3, -3, 0, -3, -5
1503686460206,0, 4, 2, 2, 1, 0, -2, -3
1503686460228,-6, 0, 0, -2, -1, -2, -5, -6
1503686460250,-2, -2, -3, -3, -2, -3, -3, 1
1503686460267,3, 6, 2, 0, 0, -2, -1, 5
1503686460281,0, 4, 4, -1, -1, -1, -3, -9
1503686460296,0, -3, -2, -1, 1, 2, 2, 4
1503686460319,0, -1, 1, 0, 0, -2, -2, -6
1503686460341,-2, 2, -3, -2, -2, -3, -4, 1
1503686460356,3, 1, 2, 2, -1, -4, -5, -1
1503686460378,-5, -2, -4, -10, -8, -2, -3, -7
1503686460402,2, -1, -2, 1, 0, -1, 1, 1
1503686460417,2, 4, 5, 8, 4, 0, 3, 4
1503686460439,0, 1, -2, 3, 1, 2, 0, 0
1503686460461,-2, -1, 1, -2, 0, -1, -1, -1
1503686460476,-1, -2, 1, 2, 3, 0, 1, 0
1503686460498,-1, -4, -8, -6, -2, -5, -7, -5
1503686460521,-1, -8, -6, -1, -2, -2, -1, -3
1503686460538,2, 6, 7, 3, 5, 1, 2, 5
1503686460558,0, -3, -1, -4, -2, 1, -2, -3
1503686460581,-4, 2, -3, -1, 0, -1, -2, -7
1503686460596,-3, 1, 3, -1, -2, -2, -3, -3
1503686460618,2, 0, -1, -1, -1, 1, -3, 3
1503686460641,1, -3, -6, -5, -2, -1, 0, 2
1503686460656,-4, -5, -6, -6, -3, -3, -1, -3
1503686460685,0, -1, 0, -3, -2, 0, -1, 0
1503686460701,-2, -2, -1, 0, 1, 0, -2, -7
1503686460716,-2, -5, -2, 2, -1, -2, -1, -2
1503686460739,6, 3, 5, 5, 2, 2, 4, 6
1503686460761,1, 3, 5, 5, 4, 4, 2, 4
1503686460776,-3, -6, -4, -5, -4, -3, 0, -3
1503686460799,-1, 0, -2, -4, -3, -2, -2, -2
1503686460821,0, 3, 2, 1, -2, 1, 1, 3
1503686460840,6, 17, 17, 6, 4, 1, 0, -6
1503686460859,-11, -8, -7, 1, -1, -2, -2, -4
1503686460882,1, -1, -3, -5, -5, -4, -3, 2
1503686460896,2, -2, 2, 1, -1, 1, 0, 6
1503686460919,-1, 3, 0, -5, -3, -3, -5, -2
1503686460943,-4, -9, -7, -5, -3, -1, -3, -4
1503686460963,-7, -6, -6, -3, 2, -2, -2, -3
1503686460979,3, 3, 0, -2, -4, -2, -2, 2
1503686461001,6, 1, 2, 2, 5, 2, 3, 1
1503686461030,1, 3, 4, -1, -1, 0, 1, -2
1503686461041,-2, -2, -3, 1, -1, 0, 0, 2
1503686461061,-1, -3, 3, 0, -1, 0, -1, 1
1503686461083,5, 3, 4, 3, 2, 2, 1, 1
1503686461098,-9, -2, -1, -3, -3, -1, 0, -5
1503686461121,-2, -6, -10, -3, -1, -1, -1, 0
1503686461143,-1, -4, -1, 4, 1, -1, -1, -1
1503686461159,0, 0, 2, -1, -2, -2, 0, -3
1503686461181,-3, 1, 4, -1, -1, -3, -5, -4
1503686461203,-3, 1, -2, -4, -2, -3, -1, -3
1503686461219,-1, -12, -11, -8, -4, -4, -3, -1
1503686461242,-6, -3, -3, -3, -3, -2, -3, -3
1503686461263,3, 3, 4, 1, 2, 0, 1, 2
1503686461280,1, 2, 6, 4, 4, 3, 0, 1
1503686461301,1, -2, -4, -2, 0, 1, 2, 0
1503686461323,-4, 0, 0, -2, -2, -1, 1, -1
1503686461339,-2, -2, -2, -1, -2, -3, 0, 2
1503686461361,3, 1, 0, 2, 0, 2, 0, 4
1503686461384,-7, -8, -8, -4, -5, -2, -2, -3
1503686461398,0, -4, -1, 1, 1, -1, -2, -3
1503686461421,-8, -5, -4, -3, -2, -5, -1, 4
1503686461429,0, 4, 8, 4, -2, 3, 3, 2
1503686461451,1, 1, -4, -8, -4, -3, 1, 0
1503686461473,-2, -8, -8, -6, -3, 0, -2, -3
1503686461488,13, 21, 18, 7, 4, 3, 2, 2
1503686461510,-4, -9, -5, -4, -2, -1, -2, -3
1503686461533,-3, -4, -5, -3, -3, -2, -5, -6
1503686461548,-1, -5, -2, -1, -2, 0, -1, 0
1503686461570,-5, -5, -2, -2, 2, -1, -3, -5
1503686461593,2, -2, -2, -1, -3, -2, -3, 3
1503686461610,2, 1, -2, -2, -1, -2, -2, 3
1503686461630,-2, 5, 3, -1, -3, 0, 1, -5
1503686461653,6, 14, 13, 5, 1, 1, 0, -1
1503686461668,-9, -9, -3, -1, -1, 1, 0, -4
1503686461690,-16, -22, -17, -10, -4, -5, -5, -8
1503686461714,1, 2, 0, 2, 0, 0, 2, 2
1503686461728,-1, -2, -4, -4, -1, -1, -1, 0
1503686461750,3, 1, 0, 0, -1, 0, 3, 5
1503686461773,-3, -1, -1, -1, 1, -1, -3, -8
1503686461788,3, 0, -3, -1, -2, -3, -6, -1
1503686461812,-2, -3, -1, 0, 0, -1, 1, -10
1503686461833,2, -5, -9, -10, -4, -2, -1, 1
1503686461855,-6, 1, -6, -1, 1, 0, -5, -14
1503686461871,-2, 0, 0, 2, -2, -2, -3, -3
1503686461893,7, 1, 5, 3, 1, 1, 7, 17
1503686461915,5, 0, 1, 1, 1, 2, 0, 9
1503686461930,5, 4, 0, -1, 0, -1, 1, 10
1503686461953,-2, 0, 5, 2, 0, -1, 0, -3
1503686461975,0, -14, -10, -5, -3, -2, 0, 2
1503686461999,-5, 0, 2, 0, -1, -1, 0, -5
1503686462014,-5, -3, 0, -3, 0, -1, -4, -5
1503686462035,-1, 3, 3, 1, 0, -2, 0, -4
1503686462051,-2, 0, -2, -1, -2, -1, -3, -1
1503686462073,-2, 5, 4, 3, -1, 1, -1, -4
1503686462095,1, 0, -1, 3, -3, 1, 0, 2
1503686462110,-1, 1, 5, 4, 2, 2, -1, -5
1503686462133,0, -2, -6, -11, -4, -2, 0, 0
1503686462155,4, 2, 3, 0, 3, 0, 4, 18
1503686462177,3, -1, -2, -3, 0, 0, 1, -8
1503686462193,-2, -14, -15, -7, 0, -2, -2, -1
1503686462215,-14, -8, -3, -1, -5, -6, -8, -8
1503686462224,0, 2, 1, -3, -1, -1, 1, 0
1503686462245,-4, 0, 3, 0, -1, 1, -3, -5
1503686462261,-1, 0, 1, -2, 0, 0, 2, 1
1503686462283,4, 4, -5, -1, 0, -4, -4, 3
1503686462305,5, -1, -8, -6, -4, -2, 3, 6
1503686462321,-2, 2, 2, 0, -1, -1, -5, -12
1503686462343,4, 0, 0, 0, -1, -1, 1, 11
1503686462365,-3, 1, 3, 2, -1, 0, -1, -4
1503686462383,-8, -7, -3, -8, -2, -3, 1, -4
1503686462403,1, -1, -2, -1, 0, 1, -1, -1
1503686462425,-6, -2, -3, 0, 0, -2, -2, -10
1503686462441,-1, 0, -1, 2, -5, -1, -2, -3
1503686462463,-1, -2, -2, -2, 0, -2, -1, 0
1503686462486,8, 4, 3, 1, 0, -1, -3, -2
1503686462501,-11, -7, -5, -1, 1, 1, -4, -7
1503686462523,8, 5, 2, 3, 0, 0, 1, 5
1503686462545,-9, -5, -2, -5, -3, -2, -8, -11
1503686462561,2, 9, 6, 3, 4, 2, 4, 4
1503686462584,-1, -1, -1, -2, 0, 0, 2, 3
1503686462606,-2, -5, -2, 0, -1, -2, -3, 1
1503686462622,2, -1, 0, -2, -4, 1, 0, -1
1503686462643,-7, -2, -1, 1, -3, -5, -3, 2
1503686462665,3, -1, -1, -3, -2, -8, -1, -3
1503686462681,-3, -2, 1, 3, 1, 5, 9, 6
1503686462703,-3, -3, -1, -2, 0, -1, -3, -1
1503686462725,12, 7, 0, -1, -1, 2, -1, 2
1503686462741,4, 3, 3, 2, 3, 3, -3, -2
1503686462763,-3, 0, -2, -3, -2, 1, -1, -1
1503686462786,-11, -7, -3, -3, -2, -7, -5, -10
1503686462808,-1, -3, -1, -1, -2, 1, 9, 7
1503686462823,-2, 17, 30, 13, 4, 1, -1, -1
1503686462837,12, 8, 5, -2, 0, 3, 4, 7
1503686462853,16, 19, 19, 6, 3, 0, 1, 4
1503686462874,-6, -1, -4, -3, -2, -1, -4, -6
1503686462897,2, -13, -16, -13, -3, -1, 4, 23
1503686462913,-9, -5, 1, 2, 1, 1, 2, -9
1503686462935,-13, -4, 0, 4, 0, 0, 0, -7
1503686462965,1, 5, 11, 3, 0, 0, -2, -18
1503686462973,-6, -2, -2, -1, -1, -1, -1, -4
1503686462996,5, -3, -3, 1, 1, -2, 1, 7
1503686463017,-8, 0, 0, 0, 0, 1, 1, -12
1503686463033,-9, -5, -5, -2, -1, 6, -1, 2
1503686463055,3, -2, 0, -1, -2, -6, -4, -3
1503686463077,1, -8, -4, -5, -2, -2, -2, -1
1503686463093,-4, -2, 3, -2, -6, -3, -3, 7
1503686463114,11, 2, -11, -4, -1, 1, 5, 11
1503686463137,17, 24, 24, 15, 6, 3, 4, 7
1503686463154,5, -13, -13, -10, -3, -1, 3, 21
1503686463174,0, -3, -6, -2, -1, -2, -6, -4
1503686463197,-18, -22, -12, -8, -7, -4, -1, -27
1503686463213,8, 8, 5, 4, 3, 2, 2, 16
1503686463234,-2, -4, -1, 2, 0, -2, -6, -5
1503686463257,-14, 0, 1, 1, -3, -2, -2, -7
1503686463279,-2, 0, 4, -2, 1, 0, -2, -20
1503686463295,-6, -2, -5, 0, -3, -1, -1, 1
1503686463317,-8, -9, -9, -8, -2, -2, -5, -7
1503686463333,-4, -1, -2, -4, -1, -2, -5, -3
1503686463358,-8, -7, -4, -1, 0, -1, 1, -9
1503686463377,9, 5, 5, 0, -1, 1, 5, 18
1503686463394,3, 5, 6, 4, 3, 0, -3, -8
1503686463415,-3, 5, 4, 3, 1, 0, -1, -16
1503686463437,5, 1, -1, 0, -2, -2, -8, -8
1503686463453,5, 1, 2, 2, -3, -2, 6, 17
1503686463475,5, 1, -2, -2, 0, -1, -2, 15
1503686463497,-3, 0, 1, 0, -1, -2, -2, -4
1503686463513,0, 10, -1, -5, 0, 2, 5, 10
1503686463535,-4, -9, -5, -6, -3, -3, -6, -1
1503686463557,0, -3, -6, -4, -4, 0, 2, 7
1503686463573,-5, -8, -2, 2, 1, 0, 1, -12
1503686463596,2, 6, 5, 5, 1, -1, 0, -3
1503686463617,-1, 5, 6, 7, 0, -2, -6, -12
1503686463633,-6, -4, -1, 1, 1, 3, 4, -11
1503686463655,3, 3, 1, -2, 0, 1, 0, 0
1503686463677,-1, -3, -2, -2, -2, -1, -2, 11
1503686463694,-3, -4, -2, -3, -4, -3, 0, 2
1503686463715,0, -4, 3, 3, 4, 3, 5, 3
1503686463737,3, -1, 0, 0, 2, 2, 2, -6
1503686463760,2, 4, 3, 4, -1, -1, -7, 0
1503686463775,3, 1, -4, -6, -2, -2, 4, 1
1503686463797,1, -3, -2, 0, -1, -1, 0, -2
1503686463820,7, 3, 1, 0, -1, -1, -5, -5
1503686463837,2, -5, -2, -3, 0, 0, -1, 4
1503686463862,-8, -9, -10, -6, -6, -2, 1, -7
1503686463879,0, -3, -2, -3, -3, -1, 1, 6
1503686463896,-1, 0, 2, 7, 2, 0, 3, 5
1503686463917,1, 6, 7, 4, 1, -1, -2, 2
1503686463940,0, 3, 7, 2, 1, -1, 3, 3
1503686463955,-6, -5, -5, -5, -3, -1, -3, -2
1503686463977,7, 7, 8, 0, 1, -1, 1, -4
1503686464000,3, 4, -2, -2, 0, -1, -3, -8
1503686464015,-7, -3, -6, -4, -4, -1, 2, -2
1503686464037,3, 1, 3, 3, 1, -5, -6, 5
1503686464061,-7, -2, -8, -1, -2, -1, -2, -7
1503686464075,-9, -12, -6, -13, -6, -5, -9, -7
1503686464098,0, -3, -5, 1, -1, 0, -5, -7
1503686464119,-6, 0, 1, 4, 2, 1, 3, 1
1503686464136,4, -2, -3, -1, -1, -2, -3, 0
1503686464157,-1, 5, 1, -6, -3, -3, 0, 0
1503686464179,2, -7, -4, -5, -2, 0, 4, 14
1503686464195,-6, -2, -4, -4, 3, 1, -3, -8
1503686464217,1, 1, 2, 2, -1, 2, 0, 2
1503686464239,-3, -4, -4, 0, -1, -2, -2, -9
1503686464255,0, 0, 5, 1, -3, -5, -7, 25
1503686464277,-2, -7, -6, -9, -5, -4, -3, -3
1503686464299,-2, -2, -2, 0, 1, 1, -1, -18
1503686464315,-3, 4, 6, 8, 6, 4, 1, -5
1503686464338,0, 1, -2, -1, 0, -3, -3, -5
1503686464359,-6, -6, -5, -5, -1, 0, -1, -3
1503686464368,-2, -3, 1, -3, -2, -1, -2, -5
1503686464390,1, 4, 6, 10, 0, -2, -5, -1
1503686464405,1, -4, -2, -4, 0, -1, 2, 5
1503686464428,5, -4, -3, -5, -3, -1, 6, 36
1503686464450,0, 2, -1, 3, 3, 1, -3, -29
1503686464465,8, 6, 5, 4, 3, 1, -2, -4
1503686464488,0, 0, 1, -3, -5, -3, -1, 1
1503686464510,-4, -8, -7, -5, -6, -2, -3, -1
1503686464539,-1, -3, 0, 1, -1, -1, -3, 3
1503686464541,-1, -7, -4, 1, -1, 2, 4, 2
1503686464565,-1, -5, -2, 0, 0, -3, 2, 0
1503686464579,0, 1, 4, -2, 0, 0, 0, -1
1503686464607,-5, -3, 2, -1, 1, 0, -7, -5
1503686464623,-6, -6, -11, -16, -7, -6, -5, -11
1503686464638,-1, -6, -5, -3, 0, 1, 3, 4
1503686464661,1, 8, 7, 1, -1, 0, -6, 2
1503686464689,6, -1, 1, 2, 1, 3, 7, 27
1503686464699,-1, -3, -4, -4, -2, -4, -1, -3
1503686464721,-3, -3, -3, -2, -3, -2, -2, -4
1503686464743,-1, -1, 0, -1, 0, 2, 0, -5
1503686464758,-2, -1, -1, 0, -1, -2, -1, -1
1503686464781,-6, 0, 1, 1, 0, -1, -1, -7
1503686464803,3, 4, 0, -2, 0, -2, -2, -4
1503686464818,1, -3, -4, -2, -1, -3, -2, -1
1503686464841,0, -3, -6, -5, 0, 0, 0, -3
1503686464863,1, -1, 5, 2, 1, 0, -1, -4
1503686464885,1, 2, 5, 3, 1, 2, -2, -4
1503686464902,0, 0, -2, 0, 1, 0, 0, 0
1503686464923,0, -3, -3, -5, -2, -1, -1, 0
1503686464938,-5, -2, 1, -2, -2, -2, -2, -1
1503686464961,-4, 0, -2, 2, -1, 0, -2, 2
1503686464983,5, 5, 9, 12, 4, 3, 4, 5
1503686465001,-2, 0, -2, -5, -3, -1, -2, -1
1503686465021,-2, -4, -3, -2, -3, -1, 1, 3
1503686465043,-2, 1, -2, -1, 0, -1, -1, -1
1503686465058,-1, -6, -6, -6, -2, -2, 0, -3
1503686465081,-1, 2, 1, -4, -1, -1, -2, -2
1503686465103,0, -2, 3, 0, -2, -1, 1, 1
1503686465118,0, -1, -1, 2, -2, -2, 0, 0
1503686465141,-1, -1, -4, -2, -1, 0, 0, -3
1503686465163,0, -1, -3, -3, 1, -1, -2, 1
1503686465178,-4, -9, -8, -3, -1, -1, -3, -2
1503686465193,0, 3, 0, -4, -2, -3, -1, -3
1503686465208,0, -2, 1, 3, 0, 0, -1, 0
1503686465230,0, -5, -7, -2, 1, 0, 3, 3
1503686465253,-4, -3, -1, -2, 1, 0, -1, 0
1503686465270,-1, 2, -3, -4, -2, -1, -1, 0
1503686465290,-1, 1, 5, -1, 0, 1, -4, -3
1503686465313,-3, -9, -6, -5, -4, -3, -3, -3
1503686465328,5, 8, 6, 0, 0, -1, 2, 7
1503686465350,0, -1, 2, -3, -1, -3, 0, 0
1503686465373,6, 15, 14, 8, 3, 3, 2, 2
1503686465388,-3, -5, -5, -4, -3, -2, -2, -4
1503686465411,-2, -4, -8, -2, -4, -1, -3, -5
1503686465433,-8, -10, -10, -4, -1, 0, -1, -6
1503686465448,-3, -6, -4, -1, -1, -3, -2, -3
1503686465471,7, 8, 8, 3, 0, -2, 4, 11
1503686465493,-3, -4, -1, 0, 0, 0, 0, -5
1503686465509,-5, 1, 3, 0, 1, 0, -3, -6
1503686465530,5, 2, 6, 5, 0, -1, 1, 5
1503686465546,0, 4, 3, 0, 1, -1, 1, 0
1503686465561,-6, -4, -3, 0, -2, -3, -4, -7
1503686465583,-2, -4, 2, 0, 1, -1, 0, 3
1503686465606,2, 6, 4, 0, -1, 0, -3, -2
1503686465623,3, -3, -7, -3, -1, -1, 1, 3
1503686465643,-3, -5, -5, -2, -3, -3, -4, -4
1503686465665,0, 2, 6, 2, 0, 3, 0, -1
1503686465681,-1, -2, -3, -2, -4, -5, -6, -5
1503686465706,-2, -2, -2, 0, 0, 0, -1, -3
1503686465725,-2, -5, 1, 2, 1, -1, -2, -1
1503686465741,-2, -6, -6, -4, -2, 1, 1, 3
1503686465763,1, 0, -2, -5, 0, -2, 1, 4
1503686465785,0, 2, -2, -1, -3, 0, -1, -4
1503686465793,-4, -4, 0, -2, -3, -1, -3, -10
1503686465815,-1, -4, -5, -4, -2, -2, 0, -3
1503686465837,-4, -2, -5, -3, 1, -2, -2, -5
1503686465852,0, 4, -1, -1, -2, 0, 0, -6
1503686465875,0, -6, -1, -1, -3, -1, 0, 4
1503686465890,1, 1, -1, -2, -1, -3, 0, 12
1503686465913,-3, 1, 3, 1, 0, 0, -1, -2
1503686465935,-4, -9, -9, -1, 0, 1, 4, 3
1503686465950,-1, 0, 2, 1, 1, 0, -3, -1
1503686465975,-2, 1, 4, -1, -1, -2, -2, -7
1503686465995,3, 2, -2, 2, -2, 0, -1, 0
1503686466010,-4, -4, -2, -2, -2, -4, -4, -6
1503686466032,-1, 0, 1, -1, -1, -2, -1, 0
1503686466043,-1, 1, -1, -3, -2, -2, 1, 5
1503686466063,2, 2, 4, 3, 0, -1, -1, -4
1503686466085,-2, -2, -4, -3, -4, -3, -3, -6
1503686466101,-4, -3, -1, -1, -1, -1, 0, -1
1503686466123,-1, -4, -4, -1, -2, 1, -1, -5
1503686466146,4, 4, 1, 1, 2, 0, -3, -4
1503686466161,1, -1, 0, -1, 0, -2, -1, -1
1503686466184,-1, 0, -2, -1, -1, -1, 0, -4
1503686466205,-2, 0, 2, 0, -1, 0, 2, 1
1503686466220,3, -4, -4, -5, -4, -1, -1, -4
1503686466235,-4, 2, -3, 0, -1, -1, -3, -2
1503686466250,3, -3, -5, -3, 0, -1, 0, 2
1503686466265,-3, 0, -1, -2, -3, -1, 0, -1
1503686466281,-1, -3, -3, -2, -2, 0, -1, -1
1503686466303,-1, 0, 0, 1, 3, 1, -1, -3
1503686466325,-9, -8, -7, -5, -6, -5, -4, -4
1503686466341,0, 0, 0, 0, 2, 0, 3, 0
1503686466363,3, 1, 1, 0, 0, 0, 0, -1
1503686466385,2, 0, 3, -1, -1, -3, -1, 3
1503686466401,5, 5, -2, -1, -3, -2, -1, 1
1503686466423,3, -3, -3, 0, 0, 1, 1, 2
1503686466445,1, 2, 2, 1, -2, 0, -1, 0
1503686466461,-4, -3, -3, -2, -2, 0, -2, -4
1503686466483,-2, -1, 2, -2, 2, 0, 0, 1
1503686466505,-5, 0, -3, -4, -3, -1, -2, -7
1503686466527,-1, 0, 2, 1, -1, 2, -1, -3
1503686466535,6, -1, -1, -1, 2, 0, 2, 2
1503686466557,-3, 4, 3, 0, -3, -2, -2, -3
1503686466573,-5, -5, -1, -2, 0, -1, -1, -1
1503686466596,-3, -6, -2, -2, 0, 1, -1, -3
1503686466620,-1, -4, -4, -4, 0, -1, 0, 3
1503686466635,5, 2, 0, 8, 4, 3, 0, 2
1503686466655,1, -2, -1, -3, -6, -3, -2, -1
1503686466678,2, 0, -1, -2, -3, -1, 2, 4
1503686466692,-3, -1, -4, 0, -1, -2, -4, -5
1503686466715,-2, -2, 0, -3, 0, 1, -2, -4
1503686466737,-1, -8, -6, -7, -6, -6, -3, -2
1503686466753,-2, -3, 2, 1, 0, 1, -1, -1
1503686466775,-4, 1, -1, 0, 2, 0, -1, -3
1503686466797,2, 3, 3, -1, -3, -3, -1, 1
1503686466813,-5, 3, 1, -4, -3, -2, -3, -2
1503686466835,-7, -5, -7, -5, -4, -6, -5, -6
1503686466857,1, 3, 3, 5, 2, 2, -2, -7
1503686466872,-1, 0, -1, -2, -1, 2, 0, 0
1503686466895,4, 5, 5, 0, 0, 1, 3, 2
1503686466917,-3, -4, -5, -2, 1, -1, 2, 0
1503686466932,1, -2, 2, -1, 0, 0, 2, 2
1503686466956,0, 3, 1, 2, 1, 1, 0, 2
1503686466977,1, -3, -2, -1, -1, 0, 0, 0
1503686466992,0, 0, -3, -1, -3, -3, -2, -1
1503686467008,-3, -2, 1, -3, -1, -1, 0, -1
1503686467023,-1, 8, 4, 1, 2, 0, -2, -1
1503686467045,-7, 3, 5, 3, 0, 1, 0, -4
1503686467068,0, -8, -4, -1, -2, 1, 0, 1
1503686467097,1, -1, -2, 0, -2, -1, -1, 0
1503686467113,0, -1, 4, 1, 2, 0, -1, 1
1503686467135,1, -3, 1, -2, -3, -2, -5, 0
1503686467158,2, -1, -1, 0, 0, -2, 0, 2
1503686467173,-9, -2, -3, -3, -3, -1, -5, -18
1503686467195,-6, 1, 4, -3, 0, 2, -1, -6
1503686467218,-1, -2, -2, -2, -3, -3, -4, -2
1503686467226,-1, -1, -4, -4, -2, -3, -3, 0
1503686467249,-1, 0, -1, -7, -5, -10, -6, -3
1503686467255,-2, 1, 0, 3, 3, 7, 5, 5
1503686467278,4, 1, 3, 2, 2, -6, -4, 1
1503686467293,7, 0, -2, -3, 0, 0, 2, 8
1503686467317,2, -2, 0, -3, -4, 1, 2, 1
1503686467330,1, -5, -4, -3, -2, 3, 2, 1
1503686467346,-5, -1, 0, 2, 2, 4, 4, 3
1503686467368,6, 7, 5, 0, -1, 0, 2, 7
1503686467385,-6, -9, -7, -3, -2, -3, -3, -6
1503686467406,3, 1, 2, -3, 0, -1, -5, 12
1503686467428,2, 2, 8, 6, 4, 6, 8, 14
1503686467451,-11, -1, -2, 2, 0, -3, -6, -25
1503686467465,-3, 1, 1, -3, 0, -1, -5, -4
1503686467479,7, -5, -8, -2, 0, -1, -5, 3
1503686467495,9, 2, -2, -2, -3, 2, 3, 15
1503686467519,3, 1, 2, 1, -2, -1, 1, 0
1503686467539,-9, -12, -6, 0, 2, 1, -2, -12
1503686467556,4, -1, -2, -1, -1, 0, 6, 11
1503686467578,0, -4, -5, -3, -3, -4, -3, -8
1503686467599,-7, 1, 4, 1, -3, -2, -9, -4
1503686467608,-6, -4, 2, -2, -1, 0, -6, -14
1503686467630,3, 1, -5, -3, -3, 0, -1, 6
1503686467646,0, -1, -2, 2, -1, -2, -4, -7
1503686467667,0, -2, -1, 0, 1, 1, 4, 5
1503686467675,-2, 0, 4, 1, 1, 1, 1, 0
1503686467698,-2, -1, 0, -1, -3, -1, 4, 12
1503686467720,1, -2, -4, 0, -1, 1, 0, 1
1503686467735,-1, -1, -4, -4, -4, -1, -5, -2
1503686467758,-4, -6, -5, -4, -1, 0, 0, -8
1503686467779,-4, 0, 1, 1, 0, 0, -8, -11
1503686467795,1, 2, -3, -1, -3, -3, -2, 6
1503686467818,3, -4, 3, -2, 0, 1, 6, 16
1503686467839,-2, -5, 1, 0, -2, -3, 1, -4
1503686467855,-1, 1, -1, 0, -1, 0, -1, -7
1503686467878,9, 3, 0, -1, -1, 1, 2, 9
1503686467899,-7, 0, -3, -1, 1, -1, -6, -13
1503686467915,-1, -1, -1, -1, -1, -1, -1, -10
1503686467937,-10, -8, -2, -1, 1, -3, -6, -14
1503686467959,-10, -4, 3, 1, -1, -4, -11, -22
1503686467975,-1, -8, -7, -7, -3, -2, 1, -1
1503686467998,7, 4, 4, 0, 0, 2, 4, 16
1503686468019,-11, -8, -6, -6, -5, -4, -4, 4
1503686468035,-1, -1, -3, -3, -1, -2, -1, -6
1503686468058,7, 10, 7, 3, 0, 2, 2, 4
1503686468079,-3, -1, 0, 0, 2, -1, 4, -16
1503686468095,-2, 7, 4, 3, -2, -1, -1, -5
1503686468118,9, 2, 1, 0, 0, 0, -1, 13
1503686468139,1, 1, 0, 0, 0, 0, 2, 8
1503686468156,3, -1, -1, -3, -2, 3, 4, 19
1503686468178,-4, -3, -1, -1, 1, -3, -7, -10
1503686468199,4, 0, 1, -3, -3, 1, 1, 14
1503686468215,-2, -1, 0, 1, 1, -1, 0, -5
1503686468238,-2, 0, -1, 0, -3, -3, -2, -4
1503686468260,-2, 1, 0, 0, -1, 0, -2, -8
1503686468275,8, 0, 1, -1, 2, 1, 8, 29
1503686468298,7, 3, -9, -7, -8, -1, 7, 11
1503686468319,-8, -9, -9, -5, -1, -2, -4, -14
1503686468335,-1, 3, 4, 1, 3, 0, -4, -9
1503686468365,1, 6, 8, 5, 1, 1, -4, -5
1503686468387,0, 5, 8, 5, 2, 2, -2, -1
1503686468402,-4, -12, -10, -3, -1, -4, -5, -8
1503686468418,0, -6, -5, -6, -4, -2, -3, 0
1503686468439,3, -3, 3, -2, -2, 2, 14, 40
1503686468462,-5, -2, -2, -2, -1, -2, -3, -15
1503686468477,-3, -3, -2, -1, -1, -3, -5, -9
1503686468500,-5, -2, 1, 0, 0, -3, -3, -11
1503686468522,2, 4, 3, 1, 0, 0, -1, 2
1503686468538,2, -3, -5, -2, -2, -1, -3, -5
1503686468560,-5, 4, 2, 3, 2, 1, -2, -11
1503686468582,1, -1, -1, -1, -2, 1, 0, 0
1503686468598,-2, -5, -6, -6, -2, -2, -3, 0
1503686468619,1, 1, 2, 1, -2, 0, -3, -6
1503686468642,-2, -5, -2, 0, 0, -3, -1, 1
1503686468660,0, 0, 5, 5, 3, 0, -1, -4
1503686468679,-4, -3, -4, -2, -4, -4, -2, -4
1503686468702,-3, -1, -4, -5, -2, -2, 0, -4
1503686468718,3, 4, 3, 1, 0, 0, 0, 1
1503686468739,2, 3, 2, 9, 1, 1, -1, -1
1503686468748,0, -1, -3, -1, 1, 1, 2, 0
1503686468770,2, -2, -1, 4, 0, 3, 2, -3
1503686468794,-3, -7, -7, -6, -3, 0, 1, -1
1503686468799,2, 8, 2, 4, -1, 2, 0, -1
1503686468822,-1, -6, 3, 2, 2, 0, -4, 0
1503686468838,1, 3, 4, 4, 2, 1, 0, -2
1503686468861,-3, 1, 1, -3, -2, -2, 3, 5
1503686468882,-3, -1, -5, -5, -2, -5, -2, -5
1503686468898,3, 15, 7, 4, 0, -2, -1, -2
1503686468919,0, -5, -1, -4, -3, 1, 4, 8
1503686468942,1, 9, 12, 5, 1, 1, 0, -5
1503686468958,-1, -6, -1, 0, -1, 0, -2, -2
1503686468979,-4, -2, -5, -2, 1, -3, -5, 4
1503686469002,-2, -3, -3, -2, -2, 1, 1, -3
1503686469018,1, 0, -7, -3, -4, 2, -1, -1
1503686469039,2, -3, 0, 3, 1, -1, 0, -3
1503686469063,1, 1, 4, 4, 1, -1, -5, -4
1503686469077,-3, -3, -5, 1, 0, 2, 3, 0
1503686469101,-4, -2, -3, -3, -1, -2, -4, -5
1503686469122,-1, 1, 1, -3, -1, -1, -2, -1
1503686469139,-3, -8, -8, -6, -5, -1, 0, -2
1503686469159,-3, 1, 3, -2, 3, 1, 2, 3
1503686469182,3, 2, 4, 3, 3, 3, -1, -2
1503686469199,1, 0, -3, 2, 1, -2, -1, 0
1503686469220,-3, -8, -8, -7, -5, -4, -3, 1
1503686469228,-1, -3, -2, -2, 0, 0, 0, -1
1503686469250,-1, 1, 4, 1, -1, -2, -6, -5
1503686469272,-6, -6, -5, -3, -2, 0, 1, -2
1503686469279,3, 2, 6, 3, 2, -1, 5, 18
1503686469302,-4, -4, 2, 0, 2, -1, -3, -12
1503686469324,2, 4, 4, 3, -1, -1, 0, -4
1503686469340,-3, -1, 0, 0, -2, 1, -3, -3
1503686469362,3, -1, -5, -2, -2, 0, 0, 2
1503686469384,-3, 2, 3, 3, 2, 1, -1, -5
1503686469401,-4, -9, -7, -7, -7, -3, -1, 1
1503686469422,-3, -3, -1, -5, 1, 1, 2, -12
1503686469444,4, 2, 5, 5, 4, 3, 1, 4
1503686469459,1, 4, 2, 2, 0, -4, -6, -5
1503686469482,1, 0, 4, 0, -2, 1, -1, 2
1503686469505,-6, -4, -4, -5, -4, -2, -2, -6
1503686469519,3, -6, -5, -2, 0, 1, 5, 5
1503686469543,1, 1, -3, -4, -1, -2, -4, 2
1503686469570,-8, -7, -9, -12, -7, -3, -1, 4
1503686469581,-3, -3, -2, -1, 0, -2, -1, -4
1503686469604,4, 6, 12, 7, 0, 2, 0, 4
1503686469626,-3, 7, 4, 0, 2, -2, -4, -10
1503686469648,4, 4, 4, 5, -1, 0, -3, 5
1503686469673,-3, -7, -5, -2, -2, -4, -2, -5
1503686469686,0, -2, -7, 1, 1, 1, 1, -2
1503686469709,0, -1, -4, -5, -2, -3, 2, 2
1503686469723,2, -2, -2, 0, 0, 0, 2, 1
1503686469746,-1, -2, -2, -1, -1, 1, -3, -4
1503686469769,0, -5, -2, -1, -2, -2, -1, -1
1503686469783,-2, -6, -3, -1, 1, -2, -2, -9
1503686469806,0, 0, 0, -2, 0, 1, 1, 4
1503686469828,-4, -1, -2, -2, 1, 1, -2, -1
1503686469843,0, 4, 2, 1, 0, -1, 0, 2
1503686469868,-2, 1, 1, 0, -1, -2, 0, -3
1503686469888,0, -3, -1, -4, -2, 0, -4, 0
1503686469903,-2, 4, 3, -1, -1, -3, 0, 0
1503686469926,-1, -4, -3, -1, -1, -2, -1, -1
1503686469948,0, 4, 1, 2, -1, 1, -1, -2
1503686469963,0, -2, -2, -2, -3, 0, 0, -1
1503686469986,-1, 1, -3, -4, -1, 0, -1, -3
1503686470008,-6, -7, -4, -1, -1, -3, -5, -8
1503686470023,5, 0, 1, 5, 2, -1, 0, 3
1503686470046,-2, -5, -5, -7, -3, -2, -1, -2
1503686470070,0, 6, 7, 3, 2, 2, -1, 1
1503686470083,-4, -3, -3, 2, -1, -1, 1, -2
1503686470106,0, 6, 6, 4, 1, 0, 1, 1
1503686470128,-3, -2, 2, -4, -3, -3, -2, 2
1503686470143,4, 2, 0, -5, 0, 0, 0, 3
1503686470166,-5, -9, -8, -5, -1, -1, -1, -5
1503686470188,3, 2, 3, 4, 2, -2, 1, -2
1503686470205,-3, -2, -4, -1, -2, 2, 0, -1
1503686470227,3, 10, 8, 5, 0, 0, -2, 0
1503686470248,-2, -4, 2, 2, 1, 0, 1, 1
1503686470263,-2, -8, -9, -2, -2, -1, -2, 0
1503686470278,-3, -9, -7, -1, -3, 1, 0, -2
1503686470292,1, 1, -3, 0, -3, -2, -2, 0
1503686470315,-2, 5, 4, 1, 1, 1, 1, 1
1503686470339,-1, -3, -7, -2, -2, 0, -1, -2
1503686470352,-4, -2, -1, 0, 2, 3, 1, 2
1503686470375,1, 2, 0, -1, 1, -1, -1, 0
1503686470397,4, 5, 5, 3, 2, 1, 3, 0
1503686470412,-2, -2, -4, -3, -3, -2, 1, 1
1503686470435,-5, -8, -4, -5, -2, -2, -1, -3
1503686470458,1, -4, -1, -1, -3, -1, -2, -3
1503686470473,2, -2, -3, -3, 2, -1, -1, -1
1503686470495,0, 11, 13, 6, 0, 0, 2, 1
1503686470517,0, -5, -3, -1, -1, 0, -2, 0
1503686470532,3, 6, 11, 6, 3, 0, 1, 1
1503686470555,-4, -6, -2, -2, -2, -3, -5, -4
1503686470579,0, 1, -2, -2, -3, -1, 2, 1
1503686470592,1, 9, 4, 0, 0, 0, 0, 0
1503686470615,-1, -4, -5, -1, 0, 0, 1, 0
1503686470640,-2, -4, -7, -1, -4, -4, -3, -4
1503686470653,1, 1, 1, 0, 1, 1, 2, 2
1503686470675,-3, -5, -5, -4, -3, -3, -5, -2
1503686470697,-1, -1, -2, -1, -1, 1, 1, 2
1503686470713,-1, -3, -1, 0, -1, -1, -2, -2
1503686470742,-4, -3, -4, -1, -3, -2, -2, -3
1503686470757,1, -2, 1, 1, 2, 1, 0, 0
1503686470775,-2, 3, 5, 4, 2, 2, 3, -1
1503686470795,0, -4, -8, -5, 0, -2, -1, -3
1503686470818,-1, -6, -4, -5, -2, -4, -1, -1
1503686470832,2, 3, 3, -2, -1, 0, -2, 1
1503686470855,-1, 4, 2, 2, 0, 1, 0, 0
1503686470878,4, 11, 11, 6, 3, 0, 2, 1
1503686470892,-1, 1, -2, -3, -1, 0, 0, -2
1503686470915,0, -7, -2, -1, -2, -1, -1, 0
1503686470937,-2, -5, -5, -4, -2, -1, -1, -2
1503686470954,-3, -8, -5, -3, -2, -2, -2, -2
1503686470976,8, 3, -1, 2, 2, 0, 2, 5
1503686470997,0, 2, 2, 1, -1, -2, -2, 0
1503686471012,-6, -4, -2, -2, -4, -1, -3, -5
1503686471035,0, 0, -3, -1, -1, 0, -2, -1
1503686471057,-5, -9, -3, -2, -2, 0, -4, -3
1503686471072,-7, -3, -2, 0, 0, -3, -4, -8
1503686471095,1, 1, 2, -4, -2, -1, 3, 2
1503686471118,-5, -9, -5, -1, 0, -1, 0, -2
1503686471132,5, 4, 3, 3, 1, 3, 5, 4
1503686471155,4, 5, 2, -3, -5, -3, -3, -3
1503686471178,-3, 1, -1, -1, -3, 0, -1, -2
1503686471200,1, 0, 0, -3, 0, -1, 0, 1
1503686471215,2, 0, -1, -3, -2, -2, 0, 1
1503686471238,0, 0, 2, 0, -2, -3, -4, -3
1503686471260,-1, 4, 2, -2, 0, -2, -4, -4
1503686471275,-1, -1, 3, 2, -1, 0, 2, 2
1503686471297,-2, 0, -1, 0, 1, -1, -5, -3
1503686471321,-5, -7, -3, -1, -5, -1, -1, -1
1503686471335,-1, -3, -1, 1, 2, -1, 0, 1
1503686471358,7, 15, 5, 3, 3, 2, 4, 1
1503686471382,-3, -6, -2, 1, -1, 2, 0, 3
1503686471395,6, 0, 0, 0, 2, 2, 1, 3
1503686471418,-4, -4, -2, -1, 0, 0, 0, -3
1503686471440,-4, -1, -4, -3, 0, -3, -3, -7
1503686471455,-3, -4, -2, -6, -7, -6, -4, -2
1503686471480,-1, -1, 1, -1, 2, 0, 3, 1
1503686471500,-1, -5, -4, -5, -4, -2, 0, 0
1503686471515,-5, -3, -8, -2, 2, 1, -3, -7
1503686471537,7, 0, -3, -2, 0, 2, 3, 7
1503686471560,-8, -1, 2, 0, 0, -2, 0, -4
1503686471575,6, 10, 7, 6, 1, -2, -3, -2
1503686471597,2, 0, 6, 2, 0, 2, 3, 8
1503686471620,-3, -8, -5, -4, -4, -2, -1, 1
1503686471635,-7, -5, -5, -2, -4, -2, 0, -5
1503686471658,-2, 1, 5, 6, 7, 2, -2, -2
1503686471681,-6, -6, -12, -8, -8, -5, -5, -6
1503686471695,1, 2, 0, 0, 0, 1, -1, -3
1503686471717,-1, -2, 1, 1, 3, 3, 2, 4
1503686471740,-5, -5, -4, 3, -1, -3, -7, -10
1503686471755,-3, -3, -3, -3, -3, -4, -3, -2
1503686471777,3, -3, 0, 0, -2, -1, 1, 1
1503686471800,2, 0, 2, -1, 0, 0, 1, 0
1503686471815,-2, -1, -1, -1, -2, -1, -5, 0
1503686471837,-1, -1, -2, -3, -3, 0, 1, -7
1503686471860,0, 0, 2, 1, -4, -5, -4, -3
1503686471875,-2, 0, -1, -2, -2, -3, -2, 4
1503686471898,-2, -2, 2, -1, 3, 1, 4, 9
1503686471920,7, 4, -1, -1, 1, 0, 4, 3
1503686471935,-1, 2, 0, -2, -3, 1, 5, 0
1503686471958,1, -1, 0, 0, 1, 2, 2, 0
1503686471980,3, 1, 1, -1, -2, 0, -3, -2
1503686471995,4, -2, -2, -2, 0, 0, 2, 13
1503686472018,0, 1, 0, 2, 0, -2, -5, -7
1503686472040,-5, 0, -3, 0, -3, -4, -9, -11
1503686472055,-1, -6, -2, -2, -1, 1, -1, -1
1503686472077,9, 6, 3, 2, 1, 2, 5, 13
1503686472100,-12, -10, -5, -4, -3, -2, 1, -10
1503686472122,-6, -2, 3, -1, 0, 0, -4, -7
1503686472138,3, 1, -3, 0, 0, -2, -3, -3
1503686472160,2, 1, 0, 0, -1, 1, 2, 15
1503686472184,3, -2, -1, -2, 0, -1, 4, 5
1503686472190,0, 7, 8, 3, 3, 4, 2, -2
1503686472212,-2, -5, -8, -4, -3, -2, -3, 0
1503686472229,-6, -5, -5, -5, -3, -5, -5, -2
1503686472256,4, 5, 6, 3, -2, -2, -1, -1
1503686472272,0, 1, -3, 1, 1, 0, 1, 5
1503686472288,-3, -4, -2, -3, -2, 0, 0, -1
1503686472310,1, -1, -5, -3, -3, 1, 0, -1
1503686472332,-6, -3, 1, 2, 0, -1, -3, -5
1503686472348,-7, -6, -4, -5, -1, -4, -3, 0
1503686472370,1, 1, 3, 1, -1, 0, 0, -3
1503686472393,1, 3, 5, -2, 1, 0, 4, 9
1503686472408,-4, 1, -6, 0, -4, -3, -7, -12
1503686472430,-1, -3, -3, 0, -4, -4, -7, -13
1503686472453,-6, 1, 0, 1, 1, 1, -2, -5
1503686472468,2, -3, -5, -4, -2, -4, -7, -1
1503686472490,0, -2, 1, 0, 1, 1, 5, 4
1503686472512,2, -4, 1, -2, 0, -1, 1, 5
1503686472528,-5, -1, 1, 1, -1, 1, 3, -12
1503686472550,-5, 0, 3, 0, 0, -2, -4, -4
1503686472572,1, -1, -5, -1, -2, 0, 2, 2
1503686472592,1, -1, -1, -3, 1, 1, 3, 8
1503686472610,2, 2, 2, 1, -5, -1, -6, 2
1503686472632,-3, -6, -2, 1, 2, 1, 2, -2
1503686472648,2, 1, 2, -3, -1, -1, -3, 1
1503686472670,4, 1, -1, -1, -1, -2, 6, 4
1503686472692,-2, -1, -1, -2, -2, -1, 1, -3
1503686472700,-5, -6, -5, -3, -3, -3, -5, -12
1503686472722,2, -3, -1, -1, -2, -2, -1, 5
1503686472737,11, 3, 4, 3, 2, 3, 12, 23
1503686472760,-11, -2, -3, -4, 0, -2, -4, -9
1503686472782,-3, -5, -2, -2, -1, -1, -4, -6
1503686472798,3, 0, 1, 5, 0, -2, -3, -4
1503686472823,4, 4, 2, -2, -2, -2, 0, 0
1503686472842,-4, -4, -1, -1, -1, -1, 0, -13
1503686472858,-2, -1, 2, 0, -3, 1, -1, 0
1503686472880,0, -2, -7, -2, -2, 1, 1, 3
1503686472902,13, 7, 3, 2, 2, 1, 9, 23
1503686472917,0, -1, 1, -1, -1, -2, -2, -2
1503686472940,-3, 0, -1, -1, -1, -1, 0, -1
1503686472962,-2, -2, -3, -2, -2, -2, -2, -3
1503686472977,-4, -4, -1, -2, -3, -1, -3, -5
1503686472993,-1, -1, 1, -2, 2, 0, 4, 4
1503686473008,-1, -1, 0, -1, 0, 1, 3, -4
1503686473030,3, -3, 0, 0, 2, 3, 4, 7
1503686473052,0, 1, 2, 3, -1, -1, -2, -1
1503686473075,2, 2, 4, -1, -1, 0, 0, 3
1503686473090,-2, -1, -2, -2, 0, -2, -3, -3
1503686473112,0, -3, -4, -1, -4, -4, -4, -5
1503686473135,-2, 0, -4, -2, -2, -2, -1, -3
1503686473150,-2, -3, 1, 1, 1, 2, 1, -2
1503686473172,-2, -4, 1, -2, -1, -1, 0, 1
1503686473195,1, -2, -1, -3, -2, -1, -1, 1
1503686473210,2, 1, 0, -1, 0, 1, 5, 3
1503686473234,0, 2, 4, 3, 1, -2, -4, -1
1503686473255,3, 9, 4, 1, -1, -1, -1, -1
1503686473270,-2, -6, -4, -3, -1, -1, 1, 5
1503686473293,1, 5, 4, 3, 2, 2, -2, -6
1503686473315,-1, -5, -2, -3, -3, -1, -3, 5
1503686473330,-4, -2, -2, -1, 0, -1, -1, 3
1503686473352,1, -3, -4, 0, -1, -1, 0, -3
1503686473375,-4, -4, -4, -1, -4, -5, -3, -6
1503686473392,-4, -3, -5, -5, -1, 0, -1, -2
1503686473412,-2, -4, -1, -2, -5, -1, 0, -4
1503686473435,0, 0, 0, 2, 0, 1, 3, 2
1503686473459,0, 1, -1, 3, 3, 0, -6, -5
1503686473472,2, -1, 6, 3, -2, -1, -4, -4
1503686473495,0, -2, -3, -7, -1, -1, -1, 6
1503686473511,0, 2, 1, 1, 2, 2, 5, -2
1503686473532,0, 4, 7, 6, -1, -2, -4, -9
1503686473540,1, 2, 5, 0, 0, 0, 2, 2
1503686473563,-4, -6, -6, -3, -1, -1, -4, -6
1503686473584,3, 7, 2, 0, 0, 0, -2, -13
1503686473600,0, 3, 5, 3, -1, -2, -1, -6
1503686473622,2, -6, -1, -7, -6, -1, 7, 19
1503686473644,2, -1, 2, 5, 0, -2, 1, 10
1503686473667,-4, -5, -6, -1, 2, 1, -4, -4
1503686473682,2, -1, 1, -1, 0, 0, 2, 10
1503686473704,1, -4, -6, -10, -4, -3, 0, -4
1503686473720,-4, -3, -1, 4, -1, -3, -1, -3
1503686473742,3, 0, 1, 0, 3, 2, 1, -4
1503686473765,-5, -9, -11, -11, -5, -3, -2, -1
1503686473787,1, 4, 2, 4, 0, 0, -2, -11
1503686473802,2, 1, 2, 3, 0, -1, -2, 1
1503686473824,-4, 1, -1, -2, 0, -2, -7, -6
1503686473840,-2, -1, -1, -4, -3, -2, -1, -5
1503686473862,1, 0, -3, -5, -2, 0, 0, -3
1503686473872,2, 4, 8, 8, 3, 3, 2, 2
1503686473892,4, -1, -7, -7, -2, -2, 2, 16
1503686473915,-3, -2, -1, 0, -1, 0, 1, -10
1503686473930,-3, -3, -5, -3, -4, -4, -6, 6
1503686473944,6, 8, 7, 5, 4, 1, 2, 19
1503686473967,0, 2, 4, 2, 1, 1, -2, 3
1503686473998,-4, -2, -1, -3, -3, -2, -6, -7
1503686474012,1, 0, 0, -1, -1, -2, 1, -2
1503686474035,-2, -3, -2, -4, -4, -4, -1, 5
1503686474057,1, 5, 2, -1, -1, 1, 4, 5
1503686474072,2, 2, 2, 1, 1, -1, -4, -5
1503686474087,1, -2, -4, -3, -3, 0, 2, 4
1503686474102,0, -2, -3, -1, 0, 1, 0, -5
1503686474124,-1, 2, -1, 2, -1, -6, -6, -6
1503686474147,1, -1, 2, -2, 0, 1, 4, 10
1503686474166,-5, -4, -4, -2, 0, 2, -1, -9
1503686474184,1, -5, -6, -3, -3, -2, -1, 0
1503686474207,-1, 2, -3, -5, -3, -1, -3, -1
1503686474215,1, -1, 3, 2, 1, 1, -1, -4
1503686474237,-1, 6, 2, 2, 1, -2, -3, -3
1503686474252,-2, -6, -6, -8, -5, -2, 3, 0
1503686474275,-2, 1, 0, -2, 1, 1, 0, -2
1503686474299,0, 4, 4, 2, -2, -3, -3, -3
1503686474312,0, 1, -1, -2, -3, 1, 2, 6
1503686474335,-1, -4, -4, 3, 1, 3, 0, -5
1503686474357,-3, -8, -5, -6, -4, -2, 1, -3
1503686474372,-2, -2, -3, 0, -3, -1, 0, 1
1503686474395,0, 2, 2, 3, 1, 0, -1, 0
1503686474417,-3, 0, -3, -7, -4, -3, -2, -4
1503686474433,3, 6, 5, 1, 1, -1, -1, 3
1503686474455,-3, -5, -3, 0, 0, 0, -2, -4
1503686474478,-3, -5, -3, -4, -3, -1, -2, 0
1503686474492,1, 2, 2, 2, 0, 1, -1, -1
1503686474515,-3, -9, -8, -4, -4, -5, -5, -3
1503686474538,-3, -4, -2, -1, -4, -2, -4, -8
1503686474552,0, -1, 0, -1, 1, -2, 1, 2
1503686474576,-3, -2, -4, -4, -2, -2, -3, -5
1503686474597,0, 1, 2, 0, -1, -1, 0, 3
1503686474613,1, 0, -1, 0, 2, 0, -2, -1
1503686474636,2, 4, 8, 4, 2, 2, 1, 0
1503686474657,-2, -4, -5, -5, -2, -3, -4, -3
1503686474668,-2, -1, 0, -2, 0, 0, -2, 0
1503686474688,3, 6, 7, 7, 0, -2, -2, 0
1503686474717,1, 2, 4, -4, -3, -1, -1, -3
1503686474725,1, 4, 4, 4, -2, 2, 2, -1
1503686474748,3, 4, -1, -5, -2, -4, -1, -1
1503686474771,-3, -7, -4, -3, -2, 1, 1, 5
1503686474792,-1, -4, -5, -3, -1, 2, -3, 3
1503686474808,1, 7, 6, 4, 2, 1, -2, 1
1503686474830,-3, -5, -2, -3, 1, 2, 0, 0
1503686474846,-3, -9, -5, -2, 0, 0, 1, -4
1503686474869,-5, -6, -6, -3, -2, -5, -5, -7
1503686474890,2, 13, 5, 1, 0, -1, -1, -3
1503686474906,-8, -10, -9, -7, -4, -5, -3, -7
1503686474928,-1, -1, -4, -2, 0, -2, 2, 0
1503686474950,0, -1, 2, 0, -2, 1, -2, -2
1503686474965,0, 1, 0, -1, 0, 0, 0, 0
1503686474988,-3, -7, -2, 1, -2, -1, -2, -3
1503686475010,-1, -2, -4, -2, -3, 0, -1, 1
1503686475026,2, -3, -3, -4, 0, -1, -1, 0
1503686475048,-1, -2, 3, 3, -2, 0, 0, 3
1503686475071,2, -2, -2, -1, 0, -1, 0, 1
1503686475085,-4, 0, 0, 0, -2, 0, -2, -3
1503686475108,5, 7, 2, 0, -1, -1, 1, 7
1503686475130,3, 2, 3, 0, 1, 0, 0, -5
1503686475145,-3, -1, -4, 0, 0, -2, 1, 0
1503686475168,-2, -5, -2, 1, 0, 0, 0, 1
1503686475190,0, 3, 3, 1, 1, 0, -4, -3
1503686475207,-5, 2, 7, 2, 2, 5, 7, 1
1503686475228,2, -2, -5, 0, 0, -2, -3, -1
1503686475250,1, -1, 4, 1, 0, 0, -1, 1
1503686475265,-4, 0, -3, -5, -4, -4, -1, -1
1503686475288,-2, -6, -7, -2, -1, -2, -4, -4
1503686475312,-3, -1, -5, -2, -2, -1, -4, -7
1503686475325,-4, -7, -4, 0, -2, 0, 0, 3
1503686475348,0, 2, 3, 0, 0, 0, 0, -6
1503686475370,-1, -1, 0, -3, -3, -3, -1, 4
1503686475385,-1, 1, 3, 2, -1, -2, -2, -6
1503686475408,-1, -2, 2, -2, 1, 0, -1, 4
1503686475430,1, 2, -2, 0, -1, 0, -2, -3
1503686475445,-2, -3, -3, -2, -2, -1, 0, 2
1503686475468,7, -1, 0, -1, -1, -1, 2, 2
1503686475490,4, 2, 3, 2, 2, 2, 1, 4
1503686475508,0, -1, -2, -2, -4, 0, 0, 0
1503686475528,-2, 2, 2, 2, 1, 0, -2, -4
1503686475550,-3, -6, -6, -4, 0, -1, -2, 2
1503686475565,-4, -8, -3, -1, -3, -2, -2, -7
1503686475590,-5, -3, -1, -3, -1, -3, -4, -6
1503686475610,1, 2, -2, -1, 0, 2, -2, -1
1503686475625,-1, -2, 0, -1, -1, -1, 4, 5
1503686475648,-1, -2, -3, 0, -2, 0, 3, 4
1503686475670,5, 3, -4, -4, -1, -1, -1, 7
1503686475685,-2, 4, 5, 3, 1, 0, -5, -5
1503686475711,-2, 0, -1, -2, 0, -4, -4, -12
1503686475730,-3, -2, -1, 1, -1, 0, -2, -8
1503686475745,-2, 2, 1, -2, -4, -2, -3, -4
1503686475768,-1, 0, -1, -4, 1, 0, 0, 0
1503686475790,3, 5, 5, 2, -2, 2, 3, 9
1503686475805,2, 10, 10, 3, 1, -1, 0, 2
1503686475828,-2, -4, -3, -1, 1, -4, -2, -3
1503686475851,-3, -7, -4, -2, -1, 1, -2, -2
1503686475872,0, -4, -4, 1, 0, 0, 0, 2
1503686475888,-1, -3, 0, 0, 1, 0, 1, 2
1503686475911,-3, 0, -1, -1, -1, -4, -3, -5
1503686475932,2, -2, -2, -1, -2, -1, 2, -1
1503686475948,-1, 0, -3, -2, -4, -1, -1, -1
1503686475970,-3, -2, 2, 0, 0, 0, 0, -1
1503686475992,-1, -5, -3, -2, -1, -2, -2, -3
1503686476008,1, -1, -2, -1, 0, -1, 0, 0
1503686476030,2, 0, -1, 1, -1, 0, -2, -1
1503686476053,-2, 0, 3, 1, 0, -1, 0, 0
1503686476060,0, 0, 1, 1, 1, 0, 0, 2
1503686476082,-2, -5, -6, -3, -3, 0, -2, -1
1503686476097,4, -2, 0, -2, -3, 0, 1, 0
1503686476120,-3, -1, -1, 2, -1, 1, -1, -1
1503686476145,0, 0, 1, 0, 0, -3, -1, -1
1503686476157,1, 2, 1, -1, 0, -1, -1, -1
1503686476180,-4, -3, -3, 1, -3, 0, 1, -2
1503686476202,-4, -8, -8, -7, -4, -3, -4, -2
1503686476217,1, 0, 0, -1, 2, -1, 0, -3
1503686476240,2, 0, 0, -1, 0, 0, -1, 7
1503686476262,0, 2, 4, 0, 0, -1, -3, -8
1503686476279,-5, 2, 2, -1, 1, -1, 0, -1
1503686476299,-2, 4, 2, 2, 2, -1, -1, -1
1503686476322,-3, -5, -6, -5, -4, -3, -4, -3
1503686476337,2, 2, 1, 0, 0, 2, 1, 2
1503686476360,5, 1, 3, 0, -2, 1, 1, 2
1503686476382,-1, 3, 3, 3, -1, -2, -1, -2
1503686476397,-5, -4, -5, -3, -2, 0, -2, -4
1503686476421,-2, 1, 0, 4, 4, 1, 1, 0
1503686476443,2, 0, -3, -6, -4, -3, -1, 2
1503686476457,2, -1, -2, -3, -1, -2, 6, 16
1503686476486,1, 4, 7, 6, 1, 1, -4, -4
1503686476502,-21, -10, -5, -6, -2, -4, -7, -21
1503686476518,9, 0, 0, -2, -2, 0, 1, 4
1503686476540,3, 0, 1, 0, -2, 3, 2, 2
1503686476562,0, 2, 0, -1, -1, -2, -2, -3
1503686476577,-1, -3, -6, -5, -1, 0, 2, -1
1503686476600,-2, -6, -6, -1, 1, 0, -2, 2
1503686476622,-3, -5, -3, -4, 0, -2, -3, -6
1503686476637,6, 14, 13, 8, 2, 0, -1, 2
1503686476660,-2, -10, -9, -4, -3, 0, -3, -1
1503686476683,-7, -10, -5, -8, -3, -2, 4, 11
1503686476697,-1, 1, 2, 2, 0, 0, 0, -4
1503686476720,1, 0, -1, 0, 0, 1, -3, -7
1503686476742,0, -1, -1, -1, 4, 9, 0, -8
1503686476764,-4, 1, -2, -13, -15, -23, -9, -9
1503686476780,0, 1, 1, 9, 6, 8, 6, 2
1503686476795,-3, -3, -8, -8, -7, -10, -6, -4
1503686476810,-9, -1, 1, 2, 3, -1, -6, -7
1503686476832,-8, -5, 1, 0, 0, -6, -5, -9
1503686476855,3, 11, 7, 1, -3, -5, 0, -7
1503686476870,-11, -5, -10, -10, -5, -1, -8, -17
1503686476893,11, 13, 16, 2, 3, 2, 9, 23
1503686476915,-2, -4, -3, -2, 0, 0, 0, -5
1503686476930,-1, -8, -2, 2, -4, 0, 2, 7
1503686476953,7, 0, 0, 3, 0, -1, 4, 13
1503686476975,-1, -10, -11, -8, 0, -1, 0, -7
1503686476993,-3, 1, -3, -5, -3, -2, -4, -6
1503686477013,-6, -3, -4, 1, 0, 2, -3, -24
1503686477035,1, 2, -2, -2, 0, -1, -6, -2
1503686477053,5, 8, 9, 3, 4, 4, 6, 5
1503686477073,-2, 3, 2, 0, -1, 0, 1, -5
1503686477095,-14, -19, -3, -3, -3, -3, -7, -15
1503686477110,8, -2, -2, 0, -3, 1, 3, 16
1503686477133,3, 12, 6, 6, 3, -1, -3, 1
1503686477156,-8, -7, -8, -6, -5, -6, 4, 3
1503686477170,0, 1, 0, 2, 1, 0, -7, -6
1503686477194,8, 5, -1, 1, 0, -1, -2, 6
1503686477215,-4, -6, -3, -5, -5, -2, -4, -2
1503686477224,-7, 9, 11, 4, -1, -3, -7, -11
1503686477244,2, 0, -6, -6, 0, 0, 5, 5
1503686477261,-12, 1, 0, -2, -4, -1, -8, -25
1503686477282,-5, -2, 0, 4, 4, 0, -2, -2
1503686477304,-8, -1, 2, 2, 3, 1, -2, -18
1503686477327,-3, -7, -7, -4, -4, -4, 2, 17
1503686477349,17, 11, 9, 7, 3, 5, 6, 12
1503686477364,-8, -13, -5, -6, -4, -5, -6, -7
1503686477380,-6, -3, -3, -1, -1, 2, 2, -4
1503686477402,5, -2, -3, 0, 0, 0, -2, 8
1503686477425,-5, -10, -3, 0, 1, -2, 1, 3
1503686477439,2, -1, -6, -4, -2, -1, -1, -5
1503686477462,0, -2, -2, -1, 0, 2, 2, -3
1503686477484,-1, -6, -7, -5, -2, -4, -3, -4
1503686477499,9, -3, 0, 1, -1, 1, 10, 17
1503686477514,14, 6, -5, -1, -1, 1, 5, 7
1503686477538,-19, -7, -6, 1, 2, -1, -7, -20
1503686477561,7, -4, -7, -2, 0, 1, 1, 13
1503686477575,10, -6, -4, -2, -2, -1, 13, 32
1503686477595,8, 0, 3, -1, 0, 2, 5, 6
1503686477613,-6, -10, -6, -2, -3, -1, -2, -2
1503686477635,19, 12, 4, 1, -3, -1, 3, 14
1503686477650,6, -3, 2, -2, -1, 0, 0, 6
1503686477673,3, 4, 2, 0, 0, 1, 6, 7
1503686477699,-2, 6, 5, -1, 1, -1, -5, -11
1503686477717,-12, -5, -1, 0, 1, -3, -6, -19
1503686477734,6, -3, -4, -6, -6, 0, 11, 30
1503686477756,0, -2, -2, -1, 0, -1, -5, -1
1503686477777,3, 2, 8, 6, 3, 0, 4, 12
1503686477794,-2, 8, 4, 1, 0, -3, -6, -15
1503686477815,-2, -6, 1, 0, -1, 0, -1, -7
1503686477837,-5, 6, 3, 2, 2, 0, -4, -10
1503686477845,-1, -13, -5, 0, -1, 0, 8, 4
1503686477866,1, 5, 5, 0, 1, 0, 1, 0
1503686477875,-13, -6, -5, -6, -3, -2, -4, -7
1503686477898,1, 4, 2, -1, -1, -2, -3, -5
1503686477913,-5, -7, -6, -5, -1, -3, -2, -4
1503686477934,-2, -4, -3, 2, 0, 3, 5, 6
1503686477958,-2, 5, 4, 4, 1, -2, -1, -12
1503686477973,7, 2, -3, -4, 1, 1, -1, 8
1503686477995,1, -3, -5, -3, -3, 0, -3, -1
1503686478017,2, 5, 4, 3, -1, -2, -6, -7
1503686478033,-4, -2, 1, 0, 1, -3, -3, -8
1503686478047,-2, -2, 3, 9, 2, 1, 2, -4
1503686478064,-2, -2, 0, 2, 1, -1, 3, 8
1503686478085,4, 11, 8, 4, 4, 1, 3, -1
1503686478106,-9, 1, 2, 1, 0, -2, -2, -6
1503686478122,1, -3, -2, -2, -1, -2, -6, -3
1503686478145,6, -1, -6, -3, 1, 3, 6, 19
1503686478167,-2, -1, -2, -3, -4, -3, -4, -7
1503686478182,2, 7, 9, 4, 0, 0, 0, 2
1503686478205,-6, -7, -4, -3, -3, 0, 1, 0
1503686478230,-4, -3, -6, -9, 0, -3, -4, -13
1503686478242,-2, -8, -7, -7, -4, -3, 2, 6
1503686478265,-1, -7, -6, -3, -6, -1, 0, 0
1503686478286,1, 7, 1, -1, -1, 3, 0, -4
1503686478302,5, -3, 7, 6, 4, 2, 0, 0
1503686478325,-4, -3, -5, 0, 0, -2, -3, -13
1503686478346,-3, -3, -6, -3, -2, -3, -3, -2
1503686478362,4, 8, -2, -1, 0, -1, 2, -1
1503686478384,0, 1, 5, 3, -3, -4, -8, -3
1503686478406,-1, -5, 1, -2, 0, 1, 2, 10
1503686478422,-9, -14, -12, -9, -4, 0, 0, -10
1503686478444,-3, 4, 6, 7, 4, 0, -4, -9
1503686478466,1, 5, 1, -4, -2, 0, -2, -3
1503686478482,0, -3, -8, -9, -4, -1, 1, 4
1503686478505,-5, -11, -5, -3, -2, 0, 2, 3
1503686478529,7, 13, 20, 11, 3, 0, -1, 5
1503686478542,-2, 2, -4, 0, 1, 2, -6, -10
1503686478565,13, -1, -8, -3, -3, -3, 7, 38
1503686478586,-5, -1, 0, 2, 1, -2, -1, -16
1503686478609,1, 2, -2, 2, -3, -1, -2, -1
1503686478632,-6, -4, 0, 0, 0, 1, -2, -15
1503686478646,-3, -1, 0, -3, -1, -2, 1, 1
1503686478669,-3, 2, 2, 3, 4, 1, 0, -4
1503686478684,0, -1, -1, -1, -1, -3, -4, -1
1503686478706,2, 0, 4, 4, 0, 0, 0, -4
1503686478730,0, 7, -3, -4, -3, -5, -2, 1
1503686478744,-3, -8, -5, -7, -2, 0, -3, -1
1503686478766,9, 2, 2, -3, -1, 0, 6, 13
1503686478789,-4, -3, -3, -1, -1, 1, -6, -12
1503686478805,4, 8, 13, 5, 2, 0, 0, 3
1503686478826,-7, -6, -5, -7, -2, 0, 1, -4
1503686478849,-4, -3, 0, 2, -2, -1, -2, -1
1503686478865,-1, 0, 3, -1, 0, -2, -1, -1
1503686478886,-3, -4, -4, -1, -1, -2, -4, -5
1503686478909,0, -5, -3, -3, -2, -1, 0, 6
1503686478924,1, 3, 3, 1, 1, 1, 2, 2
1503686478940,-2, -4, -1, -2, -3, -3, -3, -7
1503686478954,0, -1, -2, -5, -3, -1, -3, -2
1503686478977,-4, -2, 0, 2, -1, -1, 1, 0
1503686479000,4, 2, 3, -1, 0, 0, -2, 5
1503686479014,-2, 8, 2, 1, 1, -1, -3, -8
1503686479038,-6, -8, -5, -6, -2, -1, 3, 2
1503686479059,1, -2, -2, 0, 0, 0, 0, 3
1503686479074,-1, 1, 1, -1, -1, 0, 1, -3
1503686479099,-2, 0, -1, -1, -1, 0, 0, -1
1503686479119,1, 3, 3, 6, 1, 0, -1, -1
1503686479135,-4, -4, -5, -3, -1, 0, -1, 5
1503686479157,-1, 0, 3, 0, 1, -2, -1, -2
1503686479180,1, 1, 2, 1, 1, 0, 0, 4
1503686479194,0, 3, 2, 4, 1, 0, -1, 1
1503686479209,0, -1, -4, -2, -1, -2, -3, 1
1503686479225,0, -2, -1, 2, -2, 0, 0, 1
1503686479246,-1, -1, 0, -5, -5, -2, 0, 0
1503686479271,3, -2, -2, -1, 1, 2, 1, 0
1503686479285,-1, -1, -4, -5, 1, 0, 1, 2
1503686479307,-3, -4, -5, -6, -3, -2, -1, -2
1503686479329,2, -2, -2, -4, -1, 0, -2, -1
1503686479338,-2, 1, 3, -1, -1, 0, -3, -3
1503686479360,-3, -3, -4, -2, 0, -2, -1, -2
1503686479375,0, 2, 0, 1, -1, 1, 1, -1
1503686479397,-3, -7, -1, 0, -4, -1, -4, -3
1503686479420,-1, 0, -4, -2, -1, -1, -1, -1
1503686479435,-1, -1, -7, -2, 1, -3, -2, -2
1503686479458,-5, -5, -6, -6, -4, -1, 2, 0
1503686479480,-1, -1, -1, 2, -1, 0, -1, 0
1503686479495,2, -2, 0, 2, 0, -2, -1, 1
1503686479518,-1, 5, 6, -1, 2, 1, 0, 1
1503686479541,0, 1, 0, -2, 0, 0, -1, -1
1503686479546,-3, 2, 1, -3, -2, -1, 1, -1
1503686479570,-1, -1, -1, 1, -3, 2, -2, -3
1503686479592,1, -2, -2, -4, 1, -1, -1, 0
1503686479607,-2, -1, -5, -2, 1, 0, 0, 0
1503686479630,-2, -1, 3, -4, -4, -3, -1, 0
1503686479652,-4, -3, -3, -2, -1, -1, -2, -1
1503686479666,-4, -3, -3, -1, -2, -4, -3, -2
1503686479689,-6, -3, 0, -2, -2, 1, -2, 1
1503686479713,2, 2, -1, 1, 2, 0, 0, -1
1503686479727,0, 1, 0, 0, -2, 0, 0, -4
1503686479749,-4, -6, -3, -1, 0, -2, -1, -2
1503686479771,4, 3, -2, -2, -2, -3, -1, -1
1503686479795,2, 1, 1, 5, 3, 0, 1, 2
1503686479810,0, -5, -3, -8, -2, -2, 0, -2
1503686479833,1, 1, 2, 1, 0, -1, 0, 0
1503686479855,4, 2, 3, 2, -2, 0, -1, -1
1503686479873,3, 2, 2, -1, 2, 0, 0, 2
1503686479892,-3, 2, -1, -4, -1, -1, -3, -2
1503686479915,0, 8, 11, 3, 1, 1, 0, 0
1503686479930,-6, -7, -10, -6, -3, -2, -3, -4
1503686479952,-4, -4, -3, 0, -1, -2, 0, 0
1503686479974,-3, -1, -2, -2, -3, -2, -4, -4
1503686479982,-8, -10, -3, -2, -2, -3, -2, -3
1503686479997,0, 7, 4, -1, 2, 0, 0, 2
1503686480019,-4, 0, -2, 1, 0, -2, -1, -2
1503686480042,0, -2, -5, -3, 0, 1, -3, 0
1503686480057,2, 1, 3, -1, -2, 0, -3, -2
1503686480079,0, 3, 1, 0, 0, 0, 1, 0
1503686480094,3, -2, -4, -3, 2, -1, 1, 1
1503686480110,-5, 0, 5, 0, 0, -3, -1, -1
1503686480132,-4, -2, -4, -1, -1, -2, -1, 1
1503686480154,-3, 0, -1, 1, -1, 0, -1, -1
1503686480170,1, 1, -2, -2, -3, 0, 2, 1
1503686480192,-1, 1, 0, -3, 4, 0, -1, 2
1503686480199,-1, -3, -1, -2, 0, -1, -1, -2
1503686480222,2, 2, 1, -2, -1, 1, 0, 0
1503686480237,-3, -3, -2, -2, 0, -2, -1, 0
1503686480259,1, -2, -2, 2, 0, -2, -2, -3
1503686480282,-2, -1, -1, -2, -1, -1, -2, -1
1503686480297,1, 0, 0, 1, 1, -1, 2, 2
1503686480319,-1, -2, -1, 0, 0, -1, 0, 0
1503686480342,-3, -1, -4, -3, -3, 0, -3, -4
1503686480357,0, -1, 1, -3, -1, -1, 0, 0
1503686480381,-2, 0, -1, -1, 0, 0, -1, -3
1503686480402,0, -5, -5, -2, -3, -2, 1, 2
1503686480417,2, -3, 0, 3, 0, 0, 0, -3
1503686480441,-1, -3, -2, -3, -3, -3, -1, -2
1503686480463,2, 4, 5, 0, 2, 2, 1, 2
1503686480477,-3, -6, -5, -3, 0, 1, -2, -1
1503686480500,-7, -4, -3, 0, -1, -2, -2, -2
1503686480522,1, -3, -1, 0, -1, -3, -3, -2
1503686480545,-4, -1, -1, -3, -2, -2, 0, -1
1503686480560,2, 0, -2, -1, -1, 0, -1, 0
1503686480582,2, 4, 0, -1, -1, -1, -3, 1
1503686480605,0, 1, -1, 0, -5, -1, 0, -1
1503686480619,-3, -2, -1, -1, 2, -1, -4, -4
1503686480643,-1, 1, 1, -4, -2, 1, -1, 1
1503686480664,6, 0, -1, -1, 1, -2, 1, 2
1503686480680,-2, 0, -1, 2, 0, 0, -1, 1
1503686480702,-4, -4, 1, -1, 1, -2, 2, 0
1503686480724,-2, 1, -1, 2, 0, 0, -1, 1
1503686480739,0, 1, 2, 1, 0, 1, -2, -3
1503686480770,-4, -2, 2, -1, 0, -1, 0, -4
1503686480787,3, 0, 2, -1, 2, -1, -1, -3
1503686480800,0, 4, 2, 2, -1, 0, 0, 1
1503686480830,-2, -1, -2, -1, 0, -1, 0, 3
1503686480855,2, 0, 0, -2, 0, 2, -3, 1
1503686480874,-4, -1, 1, 0, 1, 0, -3, -4
1503686480890,-3, 0, -2, -2, -2, -2, -2, -2
1503686480913,-3, -3, -3, -1, 0, -2, 0, -1
1503686480936,4, 4, 0, 1, 0, 0, 0, 2
1503686480952,5, 2, -1, -2, 0, 0, 2, 3
1503686480972,-7, -5, -6, -3, -2, -3, -3, -4
1503686480985,7, 1, 1, 3, 1, 1, 2, 4
1503686481002,1, -2, -1, 0, -1, -2, -5, -1
1503686481024,-7, -3, -1, -2, 0, 0, -2, -5
1503686481032,-6, -4, 0, 0, -2, -1, -1, -3
1503686481055,-1, -1, -1, 0, 0, 1, -3, -5
1503686481070,-8, -2, 0, 1, 0, -1, -1, -3
1503686481099,-7, -3, -1, 5, 2, 1, 2, -1
1503686481115,-2, -2, -4, -2, 0, 3, -2, 0
1503686481130,1, -2, 1, -5, -4, -4, -1, 1
1503686481166,1, 1, 0, -1, -2, -2, 0, -2
1503686481175,2, -2, -4, 0, -3, -2, -4, 1
1503686481190,1, -1, 5, 4, 1, 0, 0, 0
1503686481215,-6, -4, -6, -6, -3, 0, -1, -5
1503686481220,-2, -3, -1, 0, -3, -2, -2, -3
1503686481242,-3, 0, -1, -5, -3, -1, -5, -1
1503686481264,-10, -5, -6, -3, -3, -2, -1, -6
1503686481282,-1, -4, -2, -2, -2, -2, -4, -5
1503686481302,3, 4, 4, 2, 0, 0, 1, 5
1503686481325,6, 2, 0, 2, 2, 1, 2, 2
1503686481340,7, 3, 0, -2, -2, -1, -4, 2
1503686481356,5, 4, -1, 2, 1, 1, 1, 4
1503686481370,-3, -1, -2, 0, 2, 1, -2, -2
1503686481385,4, 4, 2, 0, 3, 4, 7, 4
1503686481399,-6, -4, -3, -2, -2, -4, -3, -3
1503686481422,0, -3, -1, 0, -1, -1, 2, 3
1503686481444,-5, -3, -2, -2, 1, 0, -3, -5
1503686481467,-8, -5, -1, -4, -4, -4, -4, -7
1503686481484,10, 1, 0, -3, 0, 1, 12, 50
1503686481504,-1, 0, 0, 2, 2, 1, -3, -14
1503686481527,-4, -1, 0, 3, 3, 1, -1, -11
1503686481542,-9, -7, -1, -3, -3, -2, -6, -9
1503686481564,-2, 1, 2, 0, -4, -4, -4, -4
1503686481591,-3, -2, 0, 1, -3, -2, -4, -9
1503686481603,-3, -7, 1, -1, -2, 1, 3, 0
1503686481625,1, 2, -1, 3, 3, -1, -2, 1
1503686481647,-3, -5, -5, -5, -4, -4, -3, -2
1503686481664,-3, 2, -6, -2, -3, -4, -8, -11
1503686481684,-2, 4, 6, 3, 1, -1, 0, 2
1503686481692,-7, -5, -3, -2, -3, -1, -6, -22
1503686481717,-6, -6, -4, -1, 0, 0, -2, -11
1503686481737,-2, -7, -7, -4, -6, -5, -12, -11
1503686481753,6, 7, 7, 1, 2, -1, 3, 11
1503686481775,-3, -4, 1, -2, 0, -4, 5, 13
1503686481797,-3, 2, 1, -1, 0, 6, 4, -6
1503686481812,-9, -3, -1, 1, 3, -1, -8, -12
1503686481835,4, 0, 1, -1, -5, -2, -7, -1
1503686481857,0, 0, 0, -5, -2, -1, 1, -2
1503686481872,0, -4, -4, -4, 0, -3, -5, -1
1503686481895,0, 0, 3, -3, -1, -1, 0, 6
1503686481919,-2, -4, -10, -1, -3, 1, 3, 3
1503686481932,-2, 0, 4, 2, 0, 1, 1, 8
1503686481955,-11, -10, -4, -3, -2, -3, -3, -10
1503686481977,5, 11, 5, 4, 1, 2, 0, 0
1503686481992,-1, -1, -1, -3, -3, -2, -3, -3
1503686482019,-3, -4, -1, 0, -1, -2, -8, -5
1503686482037,14, 4, 1, 2, 1, 1, 3, 2
1503686482053,-11, -5, -3, -5, -4, -2, -2, -8
1503686482075,1, 3, 1, 0, 0, 0, 0, -7
1503686482097,-5, 0, 3, 1, -5, -6, -4, -4
1503686482112,7, 3, 1, 6, 5, 3, 8, 7
1503686482135,-7, -5, -1, -1, -5, -5, -7, -8
1503686482157,1, 0, -4, -1, -1, 2, -3, 1
1503686482172,3, -2, -2, -4, -2, -3, 1, 12
1503686482196,-1, -3, -3, -2, 2, 0, 2, -5
1503686482217,9, 3, 2, 2, 0, 0, 1, 8
1503686482232,3, 6, 6, 1, 1, 2, 0, -3
1503686482259,-11, -8, -3, -5, -4, -1, -5, -17
1503686482277,-12, 0, -12, -10, -6, -2, -7, -23
1503686482293,0, -9, -6, 1, 1, 1, 6, 21
1503686482315,-3, 0, 2, -2, -3, -4, -5, 3
