1503957322495,7, 4, -1, 0, 1, 0, 1, 5
1503957322519,-3, -5, 1, 0, -2, -1, -1, -4
1503957322540,-3, -3, -1, -2, -1, 0, -1, -2
1503957322557,6, 2, -2, -1, 0, -2, -2, 3
1503957322585,0, -4, 0, -1, -1, -1, 0, 0
1503957322607,1, 0, 2, 2, 1, 0, 1, 1
1503957322629,-3, -3, -2, -3, 0, 0, -1, -1
1503957322644,1, 2, 0, 1, -1, -1, 1, 0
1503957322668,-3, -3, -2, -3, -1, 0, 0, -2
1503957322689,1, 3, 1, 0, -3, -1, -1, -1
1503957322704,0, 6, 3, 0, 0, -2, -1, -1
1503957322727,-2, -2, -2, 0, -1, -1, -2, 1
1503957322749,0, -5, -1, -2, 0, -1, -1, 3
1503957322765,3, 2, -4, -1, -1, 0, -2, -3
1503957322787,3, -2, -1, 0, -1, -1, 0, -5
1503957322809,-3, -3, 0, -1, 0, -2, 1, 2
1503957322824,2, -2, 0, -1, 0, -1, -1, -1
1503957322848,-2, -3, 0, 0, 0, 0, -1, 0
1503957322869,-4, -2, -1, -1, -1, -1, -3, -3
1503957322884,0, 11, -1, 2, 0, 0, 1, 0
1503957322908,-1, 3, -1, -2, -2, -1, -2, -2
1503957322929,-4, -6, -2, -3, 0, -1, -1, -3
1503957322945,-1, 0, -1, -1, -2, 0, -3, 2
1503957322967,-1, -1, -1, 0, 1, -1, 0, -1
1503957322989,0, -4, -1, -1, -2, 0, -1, 2
1503957323005,-3, -6, -3, -4, 0, 0, -3, -1
1503957323027,1, -7, -2, -2, -1, -3, 0, -1
1503957323049,-3, 1, -1, -2, -2, -1, -2, -1
1503957323071,1, 1, 0, 0, -1, 0, 2, -2
1503957323087,-2, 0, 0, 1, -1, -1, -1, -2
1503957323110,0, 0, -1, -1, -1, 0, 1, 2
1503957323131,2, 1, 1, 1, 0, -1, -1, 1
1503957323154,0, -4, -4, -1, -2, -1, -3, -1
1503957323177,-2, -3, -2, -3, 0, -1, -2, -2
1503957323191,0, 1, -1, -2, 1, 0, -2, 0
1503957323207,-1, -1, -1, 0, -1, 0, -2, 0
1503957323229,0, -6, -1, -1, 1, -1, 2, 1
1503957323251,-1, 2, 0, 0, -2, 0, 0, -1
1503957323268,0, -8, -2, -2, 0, -1, 0, -2
1503957323282,-2, 3, 0, 1, 0, -1, 1, 0
1503957323297,5, 2, 0, -2, 0, -2, 1, 2
1503957323319,-3, -4, -1, -3, -1, -1, -2, 0
1503957323342,-1, 3, -1, 1, -1, -1, -1, -1
1503957323357,0, -4, -3, -1, -2, -3, -5, -2
1503957323379,1, 2, 4, 0, 1, 2, 0, 0
1503957323403,1, 0, -4, -1, -1, -1, -3, -1
1503957323417,-5, -9, -2, -2, -3, 1, -2, -4
1503957323439,-2, -5, -1, -2, 0, -2, 2, -1
1503957323462,-5, -3, 0, 2, 0, 0, 0, -1
1503957323478,1, -1, 0, -2, -2, -2, 0, -2
1503957323499,0, 0, -2, -2, 0, 0, -1, 2
1503957323522,0, -3, -1, 0, -1, 0, -1, -2
1503957323538,1, -1, -3, -1, 1, -2, -1, 0
1503957323559,-2, -1, -2, 0, 0, -1, -1, -1
1503957323582,6, 5, 1, 0, -2, -1, -2, -1
1503957323597,-5, -6, -2, -1, -3, -1, 1, -3
1503957323619,-3, -3, -1, -2, -1, 0, -4, -1
1503957323643,-1, 0, 0, -1, -2, 1, 0, -1
1503957323657,3, 2, -1, -2, -1, -2, -1, 1
1503957323672,0, -3, -2, -2, -2, 0, -4, -3
1503957323687,0, -1, 1, -1, -1, -1, 0, -1
1503957323710,5, 13, 4, 3, -1, 0, -5, 1
1503957323731,1, 10, -2, 0, 0, 1, -1, 0
1503957323748,-1, -4, -2, -2, 0, 0, 2, -1
1503957323773,0, -6, 1, 0, -1, 0, -1, -3
1503957323791,0, -2, -3, -1, 1, -2, 0, -1
1503957323807,-3, -2, -4, -2, -1, -1, -3, -1
1503957323829,-2, -9, -1, -2, -1, -1, 1, 0
1503957323851,0, -1, 0, 1, -1, 0, 2, 2
1503957323867,1, 1, 1, 0, -1, 1, -1, 1
1503957323889,2, 6, -1, 0, -1, -2, -4, -1
1503957323911,-2, -8, -2, -2, -1, -1, 1, -2
1503957323927,0, 0, 0, -2, -1, -2, -1, -4
1503957323949,-1, 0, 0, 0, -2, 0, 1, 0
1503957323973,-1, 1, -2, 0, 0, 0, -3, -1
1503957323993,7, 13, 2, 0, 0, -2, 0, 0
1503957324009,0, -1, 0, -1, 0, 0, -1, 0
1503957324031,-3, -5, 0, 0, -1, 0, 0, 1
1503957324054,-2, -6, -1, -2, 1, -2, -3, -1
1503957324062,-2, -1, 0, 1, -1, 0, -1, -1
1503957324084,0, 1, 0, -2, -1, 1, -2, -1
1503957324099,-4, 2, 1, 0, 0, -1, 0, -2
1503957324122,-2, -6, 0, 1, 1, -2, 2, 0
1503957324144,3, 3, 0, 0, 0, -2, 0, 1
1503957324159,0, 3, 2, 0, 0, -1, 2, -4
1503957324182,-1, 2, -1, -1, -1, -1, -2, 0
1503957324204,6, 2, -2, -2, -1, 1, -1, 0
1503957324219,-3, -2, -3, -1, 0, 0, -2, -1
1503957324242,-3, -8, -1, -1, 0, -2, 0, -2
1503957324264,1, 0, 1, -2, 0, 1, 0, -2
1503957324279,1, 4, 0, 0, -2, 0, -5, 0
1503957324294,-6, -4, 1, 0, -1, -3, 0, -2
1503957324309,-4, -3, -2, -1, -2, 0, -2, 0
1503957324331,-2, 1, -2, -2, 0, 0, 0, -2
1503957324353,-4, -3, -1, -1, -1, -2, -3, -2
1503957324369,1, -2, 1, 1, -1, 1, -1, 1
1503957324391,0, 1, -1, 0, 1, 0, -1, -1
1503957324414,0, -1, -1, -1, -1, -2, 0, 1
1503957324429,2, 2, 2, -1, 0, -1, -1, 0
1503957324452,2, 12, -2, -1, 0, 0, -4, -1
1503957324473,-4, -4, -3, -3, -2, -1, -2, -1
1503957324482,-2, -2, 0, 0, -1, -1, 1, -1
1503957324505,-2, -4, 0, -1, 0, -1, 0, -2
1503957324520,1, 2, 3, -1, -2, 0, -1, -1
1503957324542,1, 6, 2, 0, 1, -1, -1, -2
1503957324565,5, 5, 0, 0, -1, -1, 0, 0
1503957324584,0, 1, 0, 0, 1, -1, 0, 0
1503957324602,-1, -3, -1, 0, 0, 0, 0, 0
1503957324624,-3, -3, 1, 1, -1, -1, 0, 0
1503957324639,-4, -5, -2, 0, -2, -2, -1, -2
1503957324662,-3, 4, 0, -3, -1, -1, -2, 0
1503957324685,-2, -7, -3, -1, 0, 2, -1, -1
1503957324699,-1, -2, 1, -1, 0, -1, 0, -3
1503957324716,-1, -3, -3, -1, -1, 0, -1, -3
1503957324729,-1, 1, 1, 0, 0, -3, -2, 0
1503957324751,-1, -1, -1, 0, 0, 1, 3, 1
1503957324773,1, 4, -2, 0, -2, -1, -2, -4
1503957324789,0, -7, -1, -3, 0, -2, -1, -4
1503957324812,-6, -3, -3, -1, -2, -1, -1, -2
1503957324820,-2, -2, 0, 0, -1, -1, -1, -3
1503957324842,0, -2, -2, -1, -2, 0, 0, -2
1503957324865,-1, 4, -2, -1, -1, 0, -2, 1
1503957324881,2, 2, 0, -2, -1, -2, 3, 2
1503957324902,-3, -7, -1, -2, 0, -2, -1, -2
1503957324925,2, 1, 0, 0, 0, 1, 0, 1
1503957324947,0, -2, -2, 0, 0, 0, -2, 1
1503957324962,-2, -7, 0, 1, -1, -2, -3, -2
1503957324985,-3, -1, 1, 1, -2, -2, 1, -1
1503957325007,-3, -6, -2, -4, -2, 0, 0, -3
1503957325022,-1, -2, -1, 0, -1, -1, -1, -4
1503957325044,3, 3, -1, -1, -2, 0, -1, 0
1503957325067,-4, -1, -1, -2, 0, 0, -3, -1
1503957325082,-1, -1, -1, 0, -1, 0, -3, -1
1503957325104,2, 5, 1, 1, -1, -1, -1, 0
1503957325127,-4, -8, -1, -2, -1, -3, -3, -3
1503957325142,1, 2, 1, 1, -1, 1, 0, 0
1503957325164,-1, 0, -1, -1, -1, 1, -1, -1
1503957325187,-1, 1, 0, 0, 0, -1, 3, -2
1503957325202,3, 1, -2, -1, -1, -2, -1, 1
1503957325225,-1, 0, -3, -2, -1, 0, -1, -1
1503957325249,-1, 5, 0, -2, 0, -2, 1, -2
1503957325262,-1, -3, -1, 0, -1, -1, -2, 0
1503957325285,-1, -1, -1, -4, -1, -1, -2, -1
1503957325307,0, 2, 0, 0, -1, 0, -1, 1
1503957325322,0, 2, -1, 2, 0, 0, -1, -2
1503957325344,-1, -4, -2, 0, 0, -1, -1, -1
1503957325367,-2, -4, -2, -3, -2, -1, -1, 0
1503957325383,-4, -4, 0, 1, 1, -1, 1, -1
1503957325398,0, 2, -1, -1, 0, 0, -3, -3
1503957325412,-4, -5, -3, -2, -1, 2, -1, -2
1503957325435,0, 0, 0, 1, -2, -1, -1, -2
1503957325457,-2, -6, -1, 0, -1, 0, 0, 1
1503957325472,1, -2, 0, -2, -2, -2, -3, 1
1503957325495,0, -3, 1, 2, 0, -1, 0, 0
1503957325519,3, 1, 0, -1, -1, 2, 1, 0
1503957325539,-3, -1, -2, 1, -2, -1, 0, -3
1503957325555,0, 2, -2, -3, -1, -1, -1, 0
1503957325577,3, 2, 0, -1, 1, -2, 0, 2
1503957325599,-1, 0, -1, -1, 0, -1, 0, 0
1503957325615,-5, -5, -5, -2, -2, 0, -3, -1
1503957325637,0, 3, 1, 0, 0, -1, -1, 1
1503957325660,0, 4, 3, 1, 0, 1, 0, 0
1503957325675,-2, -6, -3, -2, -1, 0, 0, -1
1503957325697,-1, -2, -1, -1, -1, 0, -2, -2
1503957325720,-3, 0, 0, 1, -1, -1, -1, -2
1503957325735,-2, 2, 2, 0, -1, -1, -1, -5
1503957325757,3, -5, -3, -2, -1, -2, 0, 1
1503957325780,-1, 4, 0, 0, 0, -2, -2, -3
1503957325795,-3, -5, -1, -1, -1, -1, -1, 2
1503957325819,-1, -3, -1, 0, -1, -1, -1, -3
1503957325839,-1, -2, -1, -1, -1, 0, -1, -1
1503957325868,-3, 0, -2, -2, -2, -3, 1, -1
1503957325877,-3, -1, 1, -1, -2, 0, 0, -1
1503957325899,0, -1, 0, -1, 0, -2, 0, -1
1503957325915,-1, 2, -2, -2, -2, -1, -2, -1
1503957325937,0, -2, -1, 0, 0, -1, 1, -1
1503957325959,-1, -3, -1, -2, 0, 0, -4, -1
1503957325975,2, 0, 1, -1, -2, 1, 0, -1
1503957325997,-3, 0, 0, -2, -1, 0, -1, 0
1503957326021,0, -3, 0, 1, 0, 0, 1, -1
1503957326035,-3, -9, -5, -4, -1, -2, -4, -1
1503957326057,5, 2, -1, -1, 0, 0, 0, 1
1503957326079,0, 2, -1, 0, -1, 0, 0, 0
1503957326095,-2, 0, 0, -2, -3, -2, -2, -1
1503957326124,6, 2, 0, 1, 0, 0, 2, 1
1503957326139,-4, 0, -1, 0, 0, -2, 0, -3
1503957326157,-2, -3, 0, 1, -3, -1, -2, 0
1503957326177,1, 0, -1, -3, 1, 0, -1, -1
1503957326199,0, 7, 0, -1, -2, -2, -3, -2
1503957326215,-3, -5, 1, 0, 0, -1, 1, 0
1503957326237,-2, 4, -1, -1, -1, 0, -3, 0
1503957326259,2, 3, 0, -1, 2, 1, -1, -1
1503957326275,-6, 0, -2, -1, -3, -1, -2, -3
1503957326298,-4, -5, -3, 0, 0, -2, -1, -2
1503957326319,-2, -4, -1, -2, -1, 0, -1, -2
1503957326335,2, 3, 1, 2, 0, -2, -4, -1
1503957326358,1, 1, 1, -2, -2, 1, 1, 1
1503957326379,-2, -6, -2, -1, -2, 0, 1, -3
1503957326395,0, -4, -1, 0, 0, -2, 1, 0
1503957326417,0, 2, 0, -1, -3, -2, -1, 0
1503957326439,1, 2, 1, -2, 0, -1, 1, 0
1503957326457,-2, 2, 0, 0, 0, -1, 0, -1
1503957326477,0, -2, -2, -1, 0, 0, -2, -1
1503957326500,2, -5, -3, -1, -1, -1, -1, -2
1503957326524,-3, 4, 1, -2, -1, 0, 0, 0
1503957326537,5, -4, -2, 0, 0, -1, -3, -1
1503957326560,-2, -2, 0, 1, -1, -1, -2, -1
1503957326567,0, -5, -1, 0, 0, 0, 1, -1
1503957326592,0, 0, -2, 0, -1, -2, -1, -1
1503957326604,5, -5, -4, -1, 1, -1, 0, -1
1503957326627,-1, 6, 1, 0, -1, -1, 0, -1
1503957326649,1, -1, -2, -2, 0, -2, -2, 0
1503957326664,-2, -5, -3, 0, -2, -1, -1, 0
1503957326687,1, 1, -1, -1, -1, -1, -1, 0
1503957326709,-3, -2, 0, -2, -1, 0, -2, -1
1503957326726,-2, 1, 1, 0, -2, 0, 0, -2
1503957326746,-1, -3, -2, -1, 0, -1, 0, -1
1503957326769,-1, -3, -2, -1, -1, -3, -2, -3
1503957326793,1, 0, -2, -1, 1, 0, 0, 1
1503957326807,-11, -3, 1, 0, -4, -1, -2, -4
1503957326829,0, 4, 2, -1, 0, 0, 0, -2
1503957326852,-1, 1, 0, -1, 1, 0, 0, -2
1503957326867,-3, 0, -1, 0, 0, 0, 0, -1
1503957326889,-1, -5, -2, -1, -1, -1, -3, -1
1503957326912,-1, -1, -1, -1, -1, 0, 0, 2
1503957326928,4, 5, 1, 0, 1, 0, 0, 2
1503957326949,-2, -7, -7, -3, 0, -1, -3, -2
1503957326972,-5, -2, 1, 0, 0, -1, -1, -4
1503957326988,0, 1, -2, 1, -1, -2, -1, 1
1503957327009,0, -1, -1, -1, -1, 0, 0, -1
1503957327032,4, 2, 0, 0, -1, -3, 1, 0
1503957327046,0, -2, -1, -2, -4, 1, -4, 0
1503957327070,2, 3, 1, 0, -1, 0, 0, 0
1503957327092,-3, -7, -4, -3, 2, -2, -2, -3
1503957327107,1, -1, -1, 0, -1, 0, 0, 0
1503957327137,0, 0, -2, -2, -1, -1, -2, -1
1503957327152,0, 2, 2, 0, -1, -1, 0, -2
1503957327167,0, 0, -1, -1, -1, 0, 0, -2
1503957327189,-4, -1, 0, -1, -3, -3, 0, -3
1503957327212,-1, -4, -3, 1, 0, 0, -2, 2
1503957327227,-1, 4, -1, -1, -2, -1, -1, 1
1503957327242,-2, 0, 0, -1, -1, -1, -1, -3
1503957327257,5, 0, 2, 0, 1, -1, 3, 1
1503957327272,-1, -6, -2, 0, 0, -1, -1, 0
1503957327286,2, 15, 3, 1, -2, -1, -2, 0
1503957327309,-5, -8, -1, -1, -2, -1, 0, -3
1503957327332,0, 2, -3, 0, 0, 0, -1, 1
1503957327346,-1, 0, -1, -1, -2, -3, -2, -2
1503957327369,-2, -4, 1, -2, 0, -1, 1, -2
1503957327391,1, 0, -1, -2, 0, -1, -3, 1
1503957327407,0, -2, 0, 0, 0, -2, -1, 0
1503957327431,3, 2, -2, 0, -2, -2, -2, 0
1503957327451,-1, -2, 6, 23, 12, 2, -1, 1
1503957327467,1, 0, 0, -10, -6, -1, 0, -1
1503957327489,-5, -5, 0, 0, 0, 0, 1, 0
1503957327512,0, 5, 14, 18, 8, 2, 3, 5
1503957327520,1, -1, -3, 3, 2, -2, 3, 8
1503957327542,7, 24, 23, 14, 11, 4, -1, 5
1503957327557,-4, -10, -15, -19, -17, -10, -15, -19
1503957327579,-7, -8, -39, -22, -2, -2, -11, -4
1503957327602,-1, 14, -69, 32, 12, 7, 11, 6
1503957327617,-19, -12, 4, -34, -17, -12, 0, -2
1503957327640,0, -16, 7, 25, 17, 7, 17, -8
1503957327661,-12, -16, 21, 4, -4, 3, 11, -3
1503957327677,6, -9, 6, 0, 6, 5, 14, 10
1503957327701,-6, -9, 18, 0, 1, 0, -7, -12
1503957327722,4, 0, 4, -8, -6, -6, -10, 1
1503957327744,18, 20, 7, -10, -6, -11, -14, 6
1503957327760,6, -5, -3, 0, -2, 3, -10, -8
1503957327781,-8, -5, 1, 3, 0, -1, -1, -2
1503957327807,4, 12, 4, 2, 1, 6, 2, 11
1503957327820,17, -7, 3, -3, -1, 2, 7, 5
1503957327842,16, 16, 13, 5, -4, -2, -6, -3
1503957327864,-11, -7, -1, -1, -1, 2, -4, -2
1503957327880,-4, 33, 12, 8, -2, -2, -14, -3
1503957327905,2, 10, 2, 10, 11, 4, -5, -11
1503957327924,3, -20, -8, -9, -14, -22, -5, -1
1503957327943,-12, -5, -1, -2, -3, -8, -4, -21
1503957327961,-24, -58, -9, -24, -22, -1, 13, 1
1503957327984,20, 42, 22, 3, -24, 5, 8, 27
1503957328002,-42, -13, -10, -4, 2, -3, -4, -3
1503957328021,0, -16, 6, 6, 0, 12, 20, 5
1503957328044,54, 111, 4, 45, 72, 54, 59, -8
1503957328060,55, -40, -6, 21, 63, 23, 11, 102
1503957328082,-30, -23, -9, 28, 76, 36, 19, -38
1503957328104,-31, -23, 1, -26, -72, -56, -19, -48
1503957328120,1, 1, 3, -20, -29, -21, -31, 8
1503957328142,1, 24, -15, 0, -17, -5, -2, 53
1503957328164,4, 10, 7, -5, -16, -8, -17, -27
1503957328180,-23, -41, -5, -15, -14, -9, -11, -30
1503957328203,9, -15, 5, -2, -18, -6, -12, -10
1503957328224,-2, -1, -3, -10, -2, -6, -9, -13
1503957328240,-6, -13, 0, 11, 1, 0, -2, -2
1503957328261,-3, 0, 0, -6, -9, -4, -3, -2
1503957328271,-1, -10, -4, -1, 2, 1, 0, 4
1503957328291,-2, -12, -11, -3, -5, -1, -6, -3
1503957328300,-2, -5, -3, -4, -6, -2, -2, -2
1503957328322,-2, -2, 1, -3, -3, 0, -4, -4
1503957328351,1, 0, 0, 0, 0, 0, -2, 0
1503957328359,0, 4, 1, 1, 0, -3, -1, -1
1503957328367,1, -3, -2, -2, -1, -1, -1, 1
1503957328382,-2, -3, 1, 0, 0, -1, -2, 0
1503957328405,-2, -3, -1, -3, -3, -6, -10, -6
1503957328421,-1, 2, 0, -2, -4, -1, -1, -1
1503957328442,-3, -3, -1, 0, -1, -1, 0, 0
1503957328464,2, -3, 0, 2, 0, 0, 1, 1
1503957328483,0, -3, -1, -4, -1, -1, 0, -1
1503957328502,-4, -3, -4, -8, -4, 7, 0, -4
1503957328524,-1, 0, 0, -3, -2, -1, -5, -5
1503957328544,0, 0, -4, -10, -9, -2, -5, 0
1503957328554,0, -1, 0, -1, 1, 5, -1, 1
1503957328569,-1, -2, 2, 2, 2, -5, -2, -1
1503957328591,0, -7, 0, 2, -3, -4, -4, -14
1503957328614,6, 2, -5, -6, -6, -4, -3, -11
1503957328640,1, 7, -4, -3, -4, 3, -10, -49
1503957328652,8, 24, 9, 10, 1, -1, -1, 23
1503957328674,-7, -22, 1, 0, 2, -5, 5, -9
1503957328696,-1, -2, 1, -4, 0, -1, -1, 11
1503957328712,-5, -1, 2, -7, -2, 3, 0, 11
1503957328733,7, -2, -10, -10, -15, -4, -2, 3
1503957328756,4, 18, -10, 18, -6, 3, -12, -12
1503957328774,-4, -22, -3, -2, 0, -3, 0, 16
1503957328793,4, 3, 6, 14, 18, 8, -2, 14
1503957328816,-8, 2, 1, -8, 3, -3, 5, 3
1503957328831,-23, -8, -2, -6, -4, -3, 3, -23
1503957328847,7, -5, 1, 0, -1, -3, 0, 5
1503957328861,12, 9, -3, 1, 2, 1, -6, -12
1503957328884,-4, -11, -2, -2, -1, 0, -5, 12
1503957328908,-13, 9, 8, 8, 1, 1, 3, 1
1503957328922,-9, -9, 1, -1, -6, -2, 0, -15
1503957328944,6, 3, -1, -3, 1, 2, -2, 2
1503957328966,6, 4, 0, 3, 0, -3, -12, 1
1503957328982,-2, -1, -3, -5, -2, -3, 2, 12
1503957329004,1, -7, -4, -2, -1, -1, 2, 1
1503957329026,13, 2, -12, 2, 0, -1, -6, -2
1503957329045,-3, -5, -1, -5, -3, 0, -1, 1
1503957329064,4, 9, 6, 3, 2, -2, 1, 0
1503957329086,1, -3, 1, -1, 2, 0, 3, 11
1503957329102,3, 5, 1, -2, -3, 0, 3, 5
1503957329124,8, 4, 1, -1, -1, 1, 0, -4
1503957329147,4, 0, 3, -1, -1, -2, 3, -1
1503957329162,-1, 5, 0, -1, 10, 1, -2, -4
1503957329185,-1, 5, 6, -2, -5, -3, -7, -1
1503957329207,-12, -12, -4, -6, -5, -2, 2, -13
1503957329222,4, 38, 5, 8, -1, 0, -1, -1
1503957329245,-8, -4, -2, 0, 0, -3, -1, 2
1503957329267,3, -8, -4, -3, 2, 0, 2, 1
1503957329274,8, -6, 2, -3, -6, -4, -3, -2
1503957329296,-9, -8, 2, -1, 1, -11, -13, -13
1503957329312,-22, -23, -3, -1, -19, -6, 1, -4
1503957329334,-3, 4, 0, -2, -7, -1, -2, -1
1503957329356,-1, 0, -2, 0, 8, 3, 3, -2
1503957329371,7, 3, -3, -2, 1, -5, -6, -5
1503957329387,10, 6, -11, 0, -7, -5, -13, 1
1503957329402,-7, -21, -3, -6, -3, -4, -2, -3
1503957329424,12, 14, 5, -3, 3, 1, 1, 5
1503957329447,10, 4, 4, 5, 9, 5, 1, 6
1503957329462,12, 4, 1, -4, -13, -1, 7, 8
1503957329484,8, 18, 17, 10, 1, -3, -6, -2
1503957329507,-10, -5, -6, -5, -3, -2, -4, -7
1503957329522,5, 17, 8, 4, 1, -2, 0, 8
1503957329546,30, -6, -8, -6, -4, -4, 0, 0
1503957329567,-2, -4, 3, -2, -3, -5, -1, -1
1503957329589,-1, -10, -8, -5, 3, -1, -3, 0
1503957329604,-11, -7, -3, -3, -3, -2, -2, -5
1503957329627,1, 15, -2, 1, 2, -2, -5, -3
1503957329650,4, 0, -2, -1, -6, -4, -10, -9
1503957329664,-5, -10, -2, -1, -2, 2, -2, -5
1503957329687,-6, -6, -2, -2, -1, 0, 2, 2
1503957329709,-7, -5, -1, -4, -2, 0, 1, 0
1503957329724,-10, -8, -1, -1, -3, 1, 6, 1
1503957329749,8, -4, -6, -4, -3, -2, 2, 2
1503957329769,-13, 8, -1, 1, -4, -3, -15, -20
1503957329784,11, 3, -1, -2, -1, -2, 2, 16
1503957329807,-2, 0, 1, 4, 4, -1, -1, -8
1503957329829,-3, -7, 0, 0, 0, 1, 4, -11
1503957329844,-5, -8, -4, -1, -1, 0, -2, 0
1503957329866,9, 2, -1, -4, -3, 4, 6, 19
1503957329890,-5, -1, 1, -2, -1, -2, 2, 2
1503957329904,-1, -2, -3, 0, -1, -2, -7, -17
1503957329926,2, 3, 0, -3, -1, -1, 2, 1
1503957329949,-1, -3, -4, -1, -1, 1, 5, 6
1503957329964,1, -2, 3, 1, 0, -2, -2, -1
1503957329986,17, 2, 1, 1, -2, -5, -5, -1
1503957330009,2, -11, -6, -5, -2, -3, -2, 0
1503957330024,-2, -22, -10, -5, -2, 0, -4, 5
1503957330046,-12, -8, -5, -6, -2, 1, -5, -13
1503957330069,-2, 11, 4, 3, 0, -1, -7, -8
1503957330084,6, 3, 2, 2, 0, -1, 2, 0
1503957330106,-5, 4, 2, 0, -2, 0, -1, 3
1503957330129,1, 12, 5, 2, 0, -2, 4, 3
1503957330144,-10, -13, -1, -3, 0, -1, -3, -7
1503957330166,-5, -1, -2, 0, -1, 0, 0, 1
1503957330189,-2, 3, 0, 0, -3, -4, -3, 2
1503957330204,5, 2, 6, 4, 1, 1, 5, 9
1503957330226,-12, 6, 1, 2, -2, 1, -3, -1
1503957330250,-3, -5, -4, -3, -2, 0, 2, 0
1503957330264,1, 15, 2, -3, -2, -2, -1, 0
1503957330287,0, -8, -11, -4, -4, -1, -4, 1
1503957330309,11, -2, -1, 0, 2, -1, 1, 6
1503957330324,-7, -4, 4, 5, 4, 1, -2, -6
1503957330346,1, -2, -3, -2, -1, -1, -1, -3
1503957330369,-2, -2, 0, 1, 2, -2, 3, -3
1503957330384,1, 5, 6, 1, 1, -1, 2, 2
1503957330406,-7, 5, -2, -5, 0, -2, 0, -6
1503957330429,-1, -4, -3, -4, -4, -3, -1, 2
1503957330444,-3, -1, 1, -5, -2, -3, 0, -1
1503957330466,2, -2, 0, 1, 1, 1, 3, 0
1503957330490,-2, -10, 2, -1, 1, 0, -1, -1
1503957330511,6, 4, -2, 0, 0, 1, -3, 4
1503957330527,9, -5, -4, -2, -2, 0, -3, 1
1503957330549,-5, 2, 1, 3, 1, 2, 0, -5
1503957330571,3, 1, -1, 0, 0, -2, 0, 3
1503957330588,-4, -1, -3, -2, -3, -1, -3, 0
1503957330609,-4, -4, -2, -4, -2, -2, -2, -1
1503957330631,-9, -6, -3, -3, -2, -2, -2, -4
1503957330646,-14, -1, -2, 2, 0, -3, -6, -21
1503957330663,-4, -2, 0, 1, -2, -1, 2, -2
1503957330677,2, -4, 1, 0, 1, -1, 1, -1
1503957330699,-4, -4, -5, -4, -4, -2, -1, -3
1503957330722,-5, -5, -4, -2, -4, -2, -5, -8
1503957330737,-6, 0, 0, -2, -1, -1, -4, -4
1503957330762,-14, -4, 1, 2, 4, 0, 1, -12
1503957330782,6, 3, 4, 0, 1, -1, 4, 8
1503957330797,3, 6, -1, -1, 1, -1, -4, -2
1503957330827,1, 3, 3, 0, -2, -1, 3, -7
1503957330842,0, -1, 7, 8, -2, 2, 6, 6
1503957330857,3, -8, -3, -1, 2, 1, -3, 13
1503957330879,8, 52, 18, 10, -1, 1, 2, 3
1503957330902,4, -11, -6, -5, 1, 0, -2, 5
1503957330917,-7, -11, -9, -17, 1, 0, -8, 14
1503957330939,0, -9, -4, 4, -1, -1, -2, -21
1503957330963,18, -4, 0, 23, -1, 3, 10, 32
1503957330977,-10, -15, -2, 0, 0, -3, -4, -20
1503957330999,-5, -4, -7, -17, -2, -2, -5, -5
1503957331023,-3, -2, -3, -13, -5, -4, -5, 18
1503957331037,-2, 3, -1, -1, -1, -1, -2, -18
1503957331061,-4, -4, -2, 1, 0, -2, -6, -26
1503957331084,-3, -3, -3, -2, 2, 0, 1, -71
1503957331099,0, -3, -1, -5, -3, 0, 4, 60
1503957331120,-26, -25, -5, -4, -4, -2, 1, 34
1503957331143,4, 15, -5, -2, -3, -3, -4, -19
1503957331159,-4, 0, 1, 3, 1, -1, -3, 5
1503957331180,-4, 2, 6, 6, 3, 2, 1, 0
1503957331202,20, 2, -6, -4, 0, -1, 4, 1
1503957331217,1, 3, -3, -7, -4, -1, 2, 0
1503957331239,-2, -4, -1, 1, 5, -4, -7, -8
1503957331262,-3, -5, -3, -2, -6, -2, -4, 2
1503957331284,-8, -22, -4, -1, 1, 3, 4, 1
1503957331299,1, -3, 0, 0, 2, 0, 6, -1
1503957331322,-3, 4, -4, -2, -4, -3, -3, -3
1503957331344,-4, 3, 4, -1, -1, -7, -2, -4
1503957331360,12, 10, 1, 1, -4, -2, -5, 1
1503957331382,0, 1, 1, 3, 0, 1, 3, 2
1503957331404,-2, 0, -3, -3, 1, 2, -1, -6
1503957331419,-11, 0, -3, -2, -3, 0, 2, -1
1503957331442,0, 4, 3, -1, -7, -1, 0, 1
1503957331464,1, 3, 0, 3, 2, -1, -4, -4
1503957331479,7, -3, -2, 1, -2, -2, -2, -4
1503957331502,-6, -4, -1, -1, 0, 1, 0, 0
1503957331525,6, -5, 0, -1, -1, -1, 3, 3
1503957331531,-5, -2, -1, -3, -3, -1, -2, -3
1503957331554,-15, -3, -1, -4, -4, -4, -6, -17
1503957331569,-3, -1, 4, 2, -1, 0, 2, 3
1503957331593,13, 3, -2, 1, 1, 2, 0, 4
1503957331614,-7, -2, -1, 0, -2, -2, -1, 1
1503957331629,-2, -3, -2, 0, -1, -2, 0, -3
1503957331644,-2, -5, -5, -11, -9, -3, 0, -1
1503957331660,8, 2, 0, 1, 1, 0, -4, -1
1503957331682,-5, -1, -2, -4, -2, 0, -4, -3
1503957331704,8, 2, 1, 5, 2, -2, -1, 3
1503957331719,-5, -1, 1, 2, 2, -1, 2, -3
1503957331742,-2, -2, 0, 2, 2, 0, -1, -1
1503957331764,-2, -1, -1, -2, 0, 0, 0, 1
1503957331779,-1, -2, -1, -3, -1, -1, 1, 0
1503957331802,2, 4, 0, -1, 0, 0, -2, 0
1503957331824,7, 4, 0, 1, 1, -1, 0, 1
1503957331840,-6, -2, -2, -2, -1, -3, -1, -2
1503957331864,-5, -3, -2, 0, -2, -3, -2, -5
1503957331884,-3, -5, -2, -1, 0, 0, -3, -4
1503957331900,19, 5, 2, -1, 1, 4, 4, 13
1503957331922,-9, -4, 0, -2, -2, -3, 2, -1
1503957331944,0, -1, 3, 6, -2, 1, 0, 1
1503957331959,-5, -6, -4, -2, 0, 1, -3, -5
1503957331982,-2, 3, 1, 0, -1, -3, -3, 2
1503957332005,-3, 0, 0, -1, -2, -1, 0, -3
1503957332019,-4, -6, 0, -1, -1, -2, 2, -2
1503957332042,-1, 0, -3, 1, -1, 0, -2, 0
1503957332064,3, 2, -2, 0, 0, -1, -2, -1
1503957332079,-5, -7, -3, -3, 1, 0, -2, -6
1503957332109,1, 6, -1, -2, 0, 0, -2, 1
1503957332124,-1, -2, 1, 2, 0, -2, 1, -1
1503957332132,-3, -5, -3, -3, -2, -2, 0, 1
1503957332154,0, -3, -1, 2, 2, 0, 3, -1
1503957332169,-33, -9, 0, -1, -2, 0, -1, -5
1503957332191,10, -2, -3, -5, -2, 0, -1, 0
1503957332214,-8, -3, -2, 0, -1, 0, -2, -2
1503957332235,9, 5, -1, 0, 1, -1, 0, -2
1503957332251,9, 0, -1, -2, -2, -3, 0, 5
1503957332274,15, 27, 5, 6, -1, 4, -3, 5
1503957332289,-16, -13, -2, -2, -1, -1, 0, -7
1503957332311,-6, -2, -1, -5, -4, -1, -2, 0
1503957332334,3, -3, 0, -3, 0, -2, -2, -3
1503957332349,-4, -3, -3, -1, -1, -1, -2, -1
1503957332371,6, -5, -1, -1, 0, 0, 3, 5
1503957332394,3, 0, -1, 1, 0, 0, 0, -2
1503957332416,17, 6, -2, -2, 2, 0, -3, 0
1503957332433,17, 2, 0, -1, -2, 2, -2, 3
1503957332454,-12, -3, -1, -1, 0, -3, -2, -3
1503957332476,-2, 3, 2, 2, -1, -1, -1, -4
1503957332492,-5, -5, 0, 0, -1, 1, -1, -8
1503957332514,-14, -6, 0, -2, -3, 0, 0, 0
1503957332537,-1, -1, -2, -3, -2, -2, -1, 1
1503957332551,1, 0, -3, 1, 0, -1, 0, 2
1503957332575,2, -1, 0, 0, 0, -1, 2, 4
1503957332596,-2, -2, -1, -3, 0, -2, 1, -1
1503957332612,-2, -3, -3, -3, -2, -1, -2, -5
1503957332634,1, -2, -3, 2, -2, 1, -3, 0
1503957332657,0, -3, 1, 2, 1, 0, 0, 2
1503957332672,-2, 6, 0, -1, 0, -1, 0, 7
1503957332694,11, 0, -3, -3, -2, -1, -2, -2
1503957332716,-2, -3, 0, 0, 1, 1, 3, 1
1503957332731,1, 6, 2, 1, -1, -2, -2, 1
1503957332754,-10, -7, 0, -2, -4, -1, -2, -4
1503957332776,-1, 8, 4, 2, 1, 0, -3, -4
1503957332784,-5, -5, -1, -3, -1, -1, 0, -4
1503957332806,17, 12, 2, -1, 0, 0, -1, 5
1503957332814,-8, -8, -3, -3, 0, -3, 0, -5
1503957332836,6, 4, 1, 0, 1, -1, -1, 3
1503957332851,1, -1, -1, 0, 0, -1, -1, 1
1503957332874,-1, 1, -2, -1, 2, 0, 0, -2
1503957332897,-1, -1, -1, -2, 2, 2, -1, -1
1503957332912,-1, -2, 0, 0, -1, -1, 0, 0
1503957332936,2, -13, -11, 0, -5, -1, -5, -1
1503957332956,-4, -7, 0, 0, 0, -2, 3, 0
1503957332972,-6, 1, 1, -3, -4, -4, -3, -7
1503957332994,6, 5, 1, 1, 2, 2, -2, 0
1503957333016,5, 4, 0, -2, 1, 2, 0, 2
1503957333031,0, 3, 0, 1, -2, 0, -1, -3
1503957333054,-7, -5, 0, -4, -2, -3, -1, -2
1503957333079,3, 0, 1, -1, -1, -2, 1, 0
1503957333091,-19, 5, -1, 1, -2, -2, 0, 1
1503957333114,3, -5, -5, -1, -2, -1, 0, 3
1503957333138,1, 0, -1, -3, -1, -1, -3, -4
1503957333151,-1, -3, 0, 1, -1, -2, -4, -7
1503957333174,2, 1, 0, -1, -1, 0, 0, 2
1503957333196,5, -1, -3, -1, -1, -1, 0, 2
1503957333211,-2, -7, -2, -4, -2, 0, 2, 2
1503957333242,0, 1, 5, -1, 0, 2, 3, -2
1503957333264,-3, 11, 10, 3, 2, 2, 4, -2
1503957333286,-3, -7, -6, -2, -2, 0, 0, 1
1503957333311,-2, -9, -5, -3, 0, 0, -2, -3
1503957333324,2, 0, -1, 0, -1, 1, 0, 0
1503957333346,3, 1, 0, 0, 0, 0, -2, 0
1503957333376,-2, 5, 2, 0, -1, -2, 0, -2
1503957333384,0, -4, -4, -1, -1, 1, -1, 0
1503957333406,-1, -5, -4, -2, 0, -1, 2, 0
1503957333429,17, 1, -4, -4, 0, -2, 1, 5
1503957333444,-5, -1, -2, -2, -3, 1, -3, -4
1503957333466,-4, -1, -1, 0, -1, -1, 0, 1
1503957333489,-4, -2, 0, 0, 0, -1, 0, 0
1503957333506,-4, 0, 0, -1, 0, -2, -2, -1
1503957333526,-6, 0, 1, 0, -1, -2, 0, -2
1503957333549,-3, -2, -2, -2, -4, -1, 0, -1
1503957333564,2, 5, -1, 0, -1, 1, 0, -1
1503957333586,-10, 9, 7, 4, 2, 0, -1, -2
1503957333609,2, -3, -2, -1, -1, -1, -2, 0
1503957333624,-1, -5, -1, 0, -1, -1, -3, 0
1503957333647,-1, -3, -4, -2, -2, -2, -1, -1
1503957333669,1, -2, -2, -1, -2, 0, 0, 0
1503957333685,-4, 12, 5, 5, 0, 0, -1, 1
1503957333708,-9, -16, -5, -4, 0, -1, 4, -2
1503957333729,3, -2, -3, -2, -3, 0, -4, 0
1503957333745,-1, 2, 2, 1, -1, -1, -1, -1
1503957333766,4, 0, -1, -1, 0, -1, -1, 0
1503957333789,0, -8, -3, -3, 0, -2, -1, -7
1503957333804,13, -2, -2, -1, -2, 0, -1, 3
1503957333826,-6, 0, 0, -2, -1, 0, -1, -4
1503957333849,5, -1, 0, -4, -2, -2, -2, 1
1503957333856,-4, 3, 0, 2, 0, 0, -2, -3
1503957333878,0, 3, 0, 1, -1, -2, -2, -1
1503957333894,1, 2, 0, 0, -1, -1, -1, -1
1503957333917,-9, 1, -1, 0, -1, -1, 0, -1
1503957333938,1, -4, 0, -1, -1, 0, 0, 0
1503957333954,-8, -7, 0, 0, -2, -1, -1, -2
1503957333978,6, 0, -3, 0, -1, -2, -1, 1
1503957333998,3, -2, 0, -1, 1, -1, -1, 0
1503957334014,-3, 0, 2, 1, 0, -1, 0, -3
1503957334029,1, 0, 2, 0, -1, -2, -1, -1
1503957334044,-4, -1, -1, -1, -1, 1, -2, -1
1503957334067,-1, -11, -2, 0, -1, -1, -4, -1
1503957334089,1, 24, 9, 3, -1, -1, -1, 0
1503957334104,1, -7, -4, 0, 0, -2, 0, 1
1503957334127,3, -2, 1, 1, 0, 0, 1, 3
1503957334150,-2, 1, 0, -2, -2, 1, 2, -1
1503957334164,-3, -4, -1, -1, -2, -2, 0, 0
1503957334186,-2, -1, -6, -2, 0, -1, -2, 0
1503957334209,-2, -8, -2, -3, -2, -1, -3, 0
1503957334224,4, 11, 4, 1, 0, 1, -1, 1
1503957334246,-5, -7, -4, -3, 0, -3, -1, -1
1503957334269,-3, -1, -2, -2, -1, -1, -1, -4
1503957334291,-3, -2, -1, -2, -1, 0, -1, 0
1503957334306,-4, -4, -2, -3, -1, -1, -1, -5
1503957334329,-5, -14, -3, 0, -1, -3, -1, 0
1503957334351,3, 1, 0, -1, 1, 0, 4, 1
1503957334366,-15, -9, -2, 0, -3, 0, -2, -4
1503957334389,1, 1, -1, 0, -1, -1, 0, -3
1503957334414,6, 6, -1, 1, 1, -1, -1, 2
1503957334426,4, 12, 1, 1, 0, -2, -5, 0
1503957334449,-5, 0, -1, -3, 0, 1, -1, 0
1503957334471,3, 1, 0, -2, 0, -2, -2, -3
1503957334486,2, 1, 1, 1, -2, 1, -1, 1
1503957334509,0, -4, -1, 0, 0, -1, 0, -1
1503957334531,-1, -1, -1, -1, 0, 0, -1, 3
1503957334547,1, -2, -3, -2, -1, -2, 1, 0
1503957334569,5, -1, -1, -1, -1, -2, -2, 0
1503957334591,16, -9, -3, -2, -1, 0, 4, 5
1503957334606,-5, 1, 1, 1, 1, -1, -5, -9
1503957334629,-1, 5, 2, -1, 0, -1, -2, 1
1503957334658,-6, -3, 2, -1, -1, -1, -1, -2
1503957334674,-7, -7, -4, -2, -1, -1, -2, -3
1503957334689,-4, -10, 0, -4, -4, -3, -5, -3
1503957334711,-16, -4, -2, -2, -2, -1, 0, -6
1503957334726,-1, 1, 1, 1, 0, -2, 1, 1
1503957334749,0, 6, 0, 4, -2, -14, -3, 1
1503957334771,4, 4, 0, -3, 0, 2, -1, 2
1503957334786,2, 2, -1, 1, 0, 5, 2, 2
1503957334809,-3, -1, -3, -1, -1, 1, 2, 0
1503957334831,0, -4, -3, -2, -1, -3, -1, -1
1503957334846,-5, -7, -2, -3, -1, 1, 0, -6
1503957334869,2, 10, 3, 1, 0, 1, 1, -1
1503957334891,-1, 2, 2, 2, 1, 2, 0, 0
1503957334906,1, -1, -3, -1, -3, 0, -2, 1
1503957334922,-4, 1, 1, 1, 4, 5, -3, -1
1503957334936,-6, 2, -2, 0, -2, -1, 0, -2
1503957334959,4, 1, 1, -1, -1, -2, 0, 0
1503957334980,2, 6, -3, 0, -2, -1, -1, 1
1503957334996,-5, -4, -1, 0, -1, 1, -1, -3
1503957335018,1, -1, 1, 1, 0, 0, 1, -1
1503957335040,7, 1, -1, -1, 0, -1, 0, -2
1503957335057,-9, -1, -1, -2, -3, 0, -1, -3
1503957335078,-3, -2, 0, -2, -2, -1, 0, -5
1503957335108,5, 0, -1, 1, -1, -1, 1, 2
1503957335118,3, -1, -1, -1, -1, -1, 1, -1
1503957335139,-2, -5, 2, -1, 0, -4, -1, -1
1503957335162,-12, -2, -2, -1, -3, -2, 3, 0
1503957335185,-1, 1, -3, 1, 0, -1, -2, -1
1503957335198,18, 3, -2, -1, 0, -9, -4, 1
1503957335220,5, -2, -4, -3, -4, -3, -2, -1
1503957335229,-3, -1, 0, -4, -3, 2, 0, -1
1503957335252,-15, -21, -3, -5, -5, -7, 3, -2
1503957335274,10, 10, -1, 4, 1, 1, -5, 0
1503957335289,-1, -4, -5, -2, -1, -6, -10, -7
1503957335311,-2, -8, -4, -2, 2, 4, 4, 1
1503957335334,1, 8, 4, 3, 1, -1, -3, -1
1503957335349,3, 4, 1, 0, 0, 0, 0, 0
1503957335371,-5, 0, -2, 1, 0, -1, 0, 0
1503957335394,21, 5, 0, -1, 1, -2, 4, 6
1503957335409,-12, -5, -1, -4, -6, -2, 2, -5
1503957335431,-1, 1, 2, 2, 4, 5, -2, -3
1503957335455,-2, -5, 0, -5, 0, -1, 2, 1
1503957335469,-8, -21, -10, -2, 0, -1, -4, -8
1503957335491,7, -8, -7, -4, -3, -2, 0, 3
1503957335507,5, -5, -5, -5, -4, -2, -5, -7
1503957335527,-2, 4, 3, 3, 0, 4, 2, 7
1503957335544,-2, -7, -4, 1, 2, 3, 3, 3
1503957335567,-5, -8, -5, -3, -3, -5, -4, -9
1503957335582,-5, -3, -2, -2, 1, -2, 2, 2
1503957335604,3, 5, 2, 1, 1, 2, 2, -2
1503957335627,1, 3, 2, 0, 1, 0, -7, 5
1503957335642,-12, -7, -1, 0, -3, -4, 3, -7
1503957335664,0, -1, -3, -3, -5, -4, -4, -1
1503957335692,1, -1, 1, 0, 0, 1, -1, 1
1503957335702,4, 0, -3, -3, -1, -2, -10, -16
1503957335725,-13, -12, -8, -2, -3, -3, -3, 9
1503957335747,18, 6, 3, -2, -2, -4, -1, -3
1503957335762,-6, 12, 2, 0, -1, 0, 4, -3
1503957335784,6, -3, -3, -2, -2, -3, 0, 3
1503957335807,4, 1, -2, -2, 2, 3, 1, 4
1503957335814,-15, -5, -5, -5, -5, -4, 3, 1
1503957335829,-13, -6, -2, 1, -1, -3, -2, -9
1503957335851,-3, 5, 2, -1, -1, -1, -4, 24
1503957335873,2, 3, 2, 1, -1, -3, -3, -11
1503957335890,3, 1, -1, 4, 1, -1, -6, -10
1503957335911,9, -5, -6, -1, 1, 1, -1, 3
1503957335934,-9, -9, -3, -3, -3, -1, 0, -10
1503957335951,-15, -5, 0, -1, -2, 0, 0, -6
1503957335971,9, 5, 3, 4, 2, 0, 3, 6
1503957335994,-1, 1, 2, 0, 1, -1, -2, 6
1503957336008,6, -10, -2, 2, -2, -1, -9, -23
1503957336033,-22, -13, -2, -9, -2, -2, 4, 4
1503957336054,6, -1, -3, -1, -1, 0, -1, 7
1503957336071,1, 2, 0, -5, 0, -7, 6, -5
1503957336092,0, 4, 2, 1, 0, 2, -3, -1
1503957336114,5, 9, 1, 2, -1, -4, 0, 13
1503957336136,6, 15, 5, 6, 2, 2, 0, -4
1503957336151,4, -4, -3, -4, -1, -1, -3, -3
1503957336174,1, 1, -5, -2, -1, 1, -1, 0
1503957336196,3, 6, 4, 3, 1, 2, -2, 2
1503957336211,0, -6, -2, -2, -1, -2, 5, 6
1503957336234,6, 4, 1, 2, -3, -1, -4, -20
1503957336256,-4, 0, 0, -2, -1, 5, 4, 5
1503957336271,-9, -9, -3, -2, -1, -2, 1, -9
1503957336294,-1, -6, -6, -4, 3, 0, 0, 11
1503957336302,-4, 0, 1, 0, -3, -3, 2, -2
1503957336326,9, 3, 0, -1, 0, 0, 2, -2
1503957336347,-7, -6, -2, -4, 0, -2, 1, 0
1503957336362,5, 0, 1, -2, -1, -3, -4, -7
1503957336384,-5, 2, 0, -1, -1, 0, 3, 4
1503957336407,-4, 0, 0, 0, -2, -1, -2, -4
1503957336422,-4, -3, 0, 0, -1, -1, -2, -1
1503957336444,-4, 1, 1, 0, -1, 0, -1, -2
1503957336467,3, 2, 0, -1, 0, 1, 1, -2
1503957336482,-7, -3, -1, -2, -1, 0, 6, 10
1503957336504,-9, -5, -1, -1, 1, 0, -3, -16
1503957336528,-5, -2, 0, -1, -1, 0, 4, 2
1503957336542,0, -1, -2, 0, -1, -3, -2, 2
1503957336564,-9, 0, -2, 0, -1, -1, -5, -4
1503957336587,-9, -5, -2, 0, 2, 0, 1, -1
1503957336603,3, 3, -3, -3, -1, -1, -3, 2
1503957336624,1, -1, 1, 1, -1, 0, 1, -12
1503957336647,-2, -4, -3, -2, -4, -1, -2, -8
1503957336662,3, -4, 0, -4, 0, -2, -1, 3
1503957336685,-6, -3, -1, 0, 0, 0, -2, 3
1503957336707,-5, 2, -1, -3, -1, 1, -1, 2
1503957336722,3, 3, 1, -2, -2, -3, 1, 7
1503957336744,10, 2, 1, 1, 0, -2, 2, -2
1503957336767,4, 0, -2, 0, 0, -1, -1, 1
1503957336782,-4, -4, -4, -1, 1, 0, 0, 5
1503957336805,7, 4, -1, 1, -1, -1, -1, -5
1503957336828,1, -12, -8, 0, -2, 0, 0, 2
1503957336842,-9, -7, -1, -2, -1, -2, -1, -6
1503957336865,14, 6, 1, -1, 2, 0, 2, 3
1503957336887,-6, -2, -1, 0, -1, -1, -2, 1
1503957336902,-6, 2, 2, 1, 2, 3, -2, 0
1503957336924,0, 2, 2, -1, -3, -2, 0, 3
1503957336947,1, 1, 0, -2, -2, -2, -3, 0
1503957336964,12, 3, -2, 2, -1, -1, -3, 2
1503957336984,-1, -2, -2, -2, 0, 0, 1, 6
1503957337007,-1, 0, -1, -2, 0, 1, 1, 1
1503957337014,-3, -4, -3, -3, -2, 0, -4, -5
1503957337036,-2, 1, 1, -1, -2, 1, 0, 4
1503957337059,1, 15, 4, 3, 2, -1, -1, 0
1503957337074,-8, -10, -5, -3, -3, -1, -3, -3
1503957337099,0, -4, -2, 1, 1, 0, 1, 0
1503957337119,-2, 0, -1, -2, -2, 0, -1, -1
1503957337136,-2, -4, 0, 1, 0, -2, 0, 2
1503957337156,1, -3, 0, -2, 0, 0, 7, 4
1503957337179,4, 0, 0, -1, -1, -2, 2, -1
1503957337194,-1, -4, -5, -4, -4, -1, -5, 0
1503957337216,-3, 13, 2, 3, -1, -1, -3, -2
1503957337239,0, -6, -3, -4, -2, -1, -3, -3
1503957337253,-2, -2, -4, 0, -1, -1, -2, -1
1503957337269,2, -1, -1, 1, 1, 0, -1, 2
1503957337284,3, -1, -1, -1, -2, -2, 0, 1
1503957337308,4, -1, -1, -3, -2, -1, 1, 2
1503957337329,-11, -4, -2, -4, -2, -1, -3, -3
1503957337344,0, 19, 0, 1, 0, -1, -4, -2
1503957337367,0, -6, -2, -1, -2, 0, 2, 2
1503957337389,9, -2, 2, 2, 0, -1, 0, 1
1503957337405,-3, -4, -4, -4, -2, -1, -1, -5
1503957337427,3, 3, 4, 3, 0, -1, 1, 1
1503957337449,0, -8, -2, -4, -1, -1, 1, 0
1503957337464,-7, 0, 2, 2, -1, 0, 0, -2
1503957337487,-2, -2, -4, -4, -3, -2, -5, -1
1503957337509,11, 6, 0, -2, -1, -2, -3, 2
1503957337516,-7, -4, 0, 3, 1, 0, 0, -2
1503957337540,-10, -6, -2, 2, 2, 1, 1, -5
1503957337553,3, 0, -4, -6, -1, 0, -3, -2
1503957337576,2, -1, 0, -3, -2, -5, -3, -2
1503957337599,0, -1, -2, -1, -1, 4, 4, 3
1503957337614,1, -2, 2, 1, 0, 1, -2, -1
1503957337629,-5, -25, -3, 1, -1, -1, 2, -4
1503957337644,-10, -10, -4, 0, -2, -1, 2, -24
1503957337669,2, -4, -2, -3, -2, -1, 3, -12
1503957337674,6, 6, -3, -5, -4, -3, -3, 24
1503957337696,8, 9, -1, 1, -5, -1, -8, 20
1503957337719,-4, -9, -1, 7, -3, 0, -5, -7
1503957337735,9, 4, 1, -2, 1, 1, 1, 18
1503957337756,-2, -6, -5, -7, -1, -2, -1, 70
1503957337779,-2, -3, -4, -5, 2, -4, -2, -75
1503957337793,3, 2, -1, 0, -1, 0, 2, -42
1503957337816,-7, 1, 0, 1, 2, -2, 2, -22
1503957337839,6, 7, 4, -3, 0, 1, 2, 5
1503957337853,-2, -1, -3, -2, -1, -1, 0, 4
1503957337876,0, -3, -6, -6, -2, 1, 6, -45
1503957337898,3, 2, 7, 7, 2, 0, -2, -22
1503957337913,-9, -9, -4, -5, -3, -1, 0, 21
1503957337938,-5, 1, 1, -2, -4, -1, 0, 74
1503957337958,-2, 5, 3, 1, 0, -1, -1, 13
1503957337967,-12, -3, 1, 4, -2, 0, -6, 2
1503957337988,-23, -3, -2, 0, 2, 0, -1, 5
1503957338012,18, 1, 4, 1, -2, -4, 2, 4
1503957338027,5, -8, -3, -7, -3, 3, 11, 0
1503957338048,0, 0, 2, 5, 4, 0, -5, -10
1503957338072,-3, -2, -4, -3, -2, -1, -1, -5
1503957338086,8, 22, 4, 1, -1, 2, 1, 0
1503957338109,8, 1, -3, -1, -1, -1, -3, 1
1503957338131,0, -4, -2, -2, -4, -2, -3, -3
1503957338139,33, -5, -5, 1, 2, -3, -1, 32
1503957338160,-8, -3, 1, 1, 0, -4, 0, -16
1503957338177,-11, -4, 1, 1, -1, -3, -3, -10
1503957338198,-10, -8, -2, -4, -3, -1, 1, 0
1503957338220,-3, -9, -2, -3, -2, 0, -4, 2
1503957338236,-3, 1, 3, 2, -3, 0, -1, -3
1503957338258,1, 3, 6, 4, 2, 0, 6, -2
1503957338281,-14, -8, -3, -2, 0, 0, 0, -1
1503957338296,-5, 0, -2, 0, -1, 0, 1, -4
1503957338318,2, 1, 0, -1, 2, -3, -3, -4
1503957338344,-6, -1, -2, 1, 0, 1, -4, -4
1503957338356,-1, -1, -4, -6, -6, 0, -6, -1
1503957338379,-19, -8, -3, -1, -2, -4, -2, -7
1503957338400,5, 1, -1, -1, -1, 0, 2, -1
1503957338417,-2, 0, 1, 1, 2, -1, 1, -2
1503957338441,1, -1, 1, 0, 0, -1, -2, -9
1503957338460,1, 0, -1, -1, 0, 3, 2, 2
1503957338476,8, 2, 0, -1, -1, -1, 0, 3
1503957338499,-7, 0, -1, -1, -2, -1, 3, -4
1503957338520,8, 0, 1, 0, -1, 0, -3, 3
1503957338529,-6, -4, -1, -1, 0, -1, -4, -2
1503957338551,-7, -10, -2, -4, -1, 0, 1, -5
1503957338567,0, -12, -3, -1, 0, -1, 2, -1
1503957338589,-18, -14, -9, -6, 1, -3, -2, -3
1503957338612,1, 7, 5, 0, -3, 0, -1, 0
1503957338627,17, 12, 4, 4, 0, -1, -1, 1
1503957338649,13, 6, 0, 0, -1, 2, 0, 1
1503957338671,6, 5, 0, -1, -2, -1, -3, 2
1503957338687,1, -6, -1, -2, -1, -4, -3, -6
1503957338711,-9, 1, -1, 0, 0, -1, -1, -4
1503957338731,-5, -3, 2, 0, -1, -2, 3, 6
1503957338747,-14, 0, -3, 0, 0, 1, 0, -5
1503957338769,-5, 0, -1, 0, -2, -1, -2, -2
1503957338778,-3, -4, -3, 0, -2, 0, -3, -4
1503957338798,-12, -4, 0, -1, 0, 0, -1, -4
1503957338807,-3, 1, 1, 0, -1, 2, 1, 3
1503957338828,-16, -8, -2, -2, 0, -2, -4, -14
1503957338851,9, 7, 1, 1, -1, -1, 0, 1
1503957338867,-5, -5, -2, -2, 1, -1, -1, 1
1503957338889,2, -4, -3, 0, 0, 1, 0, 2
1503957338912,-8, -6, -3, 0, 3, -1, 3, -1
1503957338920,7, -1, -1, -1, 0, -1, 1, 2
1503957338941,6, 3, 4, 3, -2, -1, 0, -7
1503957338963,-16, -3, -4, -3, -1, -3, -3, -8
1503957338979,0, 2, -3, -2, -1, 1, -2, 1
1503957339001,3, -13, -7, -6, 1, -3, 2, 9
1503957339023,23, 6, 5, 3, -1, 2, 8, 37
1503957339038,6, 6, 3, 1, -2, 3, -6, -17
1503957339061,-20, -8, -2, -2, -2, -4, -3, -15
1503957339083,-20, -1, 8, 1, -5, 0, 0, -13
1503957339098,9, -8, -11, -2, 3, -2, -6, 12
1503957339121,65, 21, 5, 3, 0, 2, -9, 13
1503957339143,-38, -18, -5, -6, -2, -3, 0, -18
1503957339158,-8, 0, -2, -3, 0, -1, 1, 7
1503957339181,-14, -6, -3, -3, -3, -2, -2, -1
1503957339203,-8, 1, 1, 0, 1, 1, 10, -16
1503957339218,-3, 8, 4, 1, -2, 0, -2, -23
1503957339234,6, -5, 0, -1, 0, 3, 3, 7
1503957339252,-6, -12, -8, -5, -1, 0, -2, -5
1503957339271,12, 25, 13, 10, -1, 0, -4, -7
1503957339300,-7, -8, -3, -4, -2, 1, 2, 5
1503957339309,1, -7, -7, -5, 0, 0, -2, -6
1503957339331,30, 3, -2, -1, 4, -1, 5, 3
1503957339354,-6, -3, -2, -2, -3, 1, 1, 12
1503957339369,-9, -6, -3, -1, 0, -2, 0, -10
1503957339391,-26, -9, -1, -4, 1, 0, 4, -1
1503957339415,-21, -4, -2, 0, 2, -1, 1, -9
1503957339429,4, -1, -4, -4, 1, -2, -8, -22
1503957339451,6, -4, -3, 0, 1, -1, 1, 10
1503957339473,-5, -4, -3, -3, -4, -2, -1, -8
1503957339490,3, -3, 0, -3, -1, 0, 0, 8
1503957339511,7, 3, 3, -1, -6, -5, -4, 7
1503957339533,0, 0, -2, 0, -3, -1, 0, 6
1503957339549,7, 4, 1, 1, 0, 1, -4, -1
1503957339571,-39, -14, -2, 0, -1, 1, -2, -11
1503957339579,-11, -8, -3, -2, -1, -3, -5, -9
1503957339601,1, -2, -2, -1, -4, -5, -16, -12
1503957339623,-9, -2, 0, -1, -1, -2, 10, -16
1503957339639,5, 2, 0, 0, 0, 2, -10, 0
1503957339661,2, -2, -4, -3, 1, 3, -1, 2
1503957339684,7, 3, -1, 0, 1, -1, 5, 8
1503957339698,-4, -3, 1, -2, -1, -1, 0, 2
1503957339721,1, 0, 2, 2, 0, 0, 1, 1
1503957339743,6, -14, -15, -1, -6, -1, 0, 3
1503957339759,-4, -11, -2, -3, -2, -2, 2, 1
1503957339783,-4, 5, 1, 0, 1, 1, -2, -3
1503957339803,-9, 5, 4, 1, 0, -1, 1, -4
1503957339819,9, 7, 0, -3, -1, 0, 0, 1
1503957339841,3, 1, 2, -1, -3, -1, -2, 0
1503957339863,-3, 3, 1, 1, 1, -1, -8, -1
1503957339885,-10, -5, -1, -1, 1, -2, 2, 0
1503957339901,11, 5, 2, -1, 0, -1, 0, 3
1503957339923,-6, -3, -2, -2, -1, -1, -2, -2
1503957339946,-4, -1, -2, -2, 0, 0, 2, 0
1503957339961,-2, -4, 0, 0, 0, -1, 1, -1
1503957339986,5, 7, 7, 3, -1, 0, 0, -1
1503957340005,1, 6, -4, 2, -2, -1, -1, -1
1503957340022,-2, -3, -3, -2, -1, 0, 0, -2
1503957340043,-29, -14, -2, -4, -1, -1, 0, -1
1503957340065,8, 0, 1, 0, -1, -1, -2, 0
1503957340081,6, 3, -1, 0, 0, -1, 1, 3
1503957340103,2, -1, -2, -2, -3, -1, 0, -1
1503957340125,0, -2, -2, -1, 3, -1, -4, -2
1503957340141,6, 5, 2, -1, -2, -1, 0, 0
1503957340163,7, 5, 0, -1, 0, 1, 0, 0
1503957340186,2, 1, 1, 2, -3, -1, -1, -2
1503957340193,-14, -1, 2, 0, -1, -1, 0, -6
1503957340216,3, 2, 0, 0, 0, -2, -2, -3
1503957340231,0, 2, 0, -2, -2, 1, 1, -1
1503957340254,-1, -2, -1, -2, 2, 0, 2, 3
1503957340276,-1, -1, 0, -2, -1, -1, -2, 0
1503957340291,-3, -13, -3, -3, -2, -2, -1, -3
1503957340313,-4, 0, -1, -4, -3, 0, -2, -1
1503957340336,-1, -3, 0, 1, -1, -3, -2, -7
1503957340351,0, 3, 1, 0, 0, -2, 0, -2
1503957340373,1, 1, -1, -1, 0, 0, -3, -2
1503957340396,0, 3, 1, -1, -1, 1, 2, 0
1503957340411,-1, -8, 0, -1, -1, 0, 0, 1
1503957340433,4, 0, 0, 1, -1, -1, 0, 1
1503957340456,-1, -3, -2, 0, -2, -1, 0, 1
1503957340464,-2, 1, 1, 0, 1, -1, -2, -1
1503957340485,-3, 0, -1, -2, 0, -1, -3, -2
1503957340501,-2, -3, 0, 0, -1, -1, -1, -2
1503957340523,2, -17, -7, -2, -2, -1, -1, 1
1503957340545,0, -1, -1, -1, 1, -2, 1, -1
1503957340561,0, 6, 2, 1, -1, 1, 1, 0
1503957340583,-1, 4, -2, -1, -2, 0, -3, -1
1503957340605,-4, -2, -2, 0, 0, 0, -1, -3
1503957340629,1, 1, -2, -1, 0, -1, -1, -2
1503957340644,-1, -18, -8, 0, -3, -1, -3, 0
1503957340666,-1, 3, 2, -2, 0, 0, 1, 2
1503957340691,1, 17, 2, 0, 1, 1, -3, -1
1503957340704,-2, -1, -1, -1, -1, -2, -2, -2
1503957340727,-3, 2, 0, 0, -3, -3, 0, -1
1503957340749,-2, -1, 0, -2, 0, -2, 1, -1
1503957340764,2, 5, 3, 3, 0, -1, 0, 1
1503957340786,-1, -2, -2, -3, 0, 0, -3, -1
1503957340809,1, 5, 4, 1, 1, 1, -4, -3
1503957340824,-2, -3, -2, -2, -1, -1, 0, 0
1503957340846,6, 21, 4, 4, -1, -1, -1, 2
1503957340869,-2, -8, -1, -3, -1, -1, 2, -2
1503957340884,-2, -8, -1, 0, -1, 0, 2, 1
1503957340906,0, -2, -2, 0, -2, -2, -2, 0
1503957340929,-2, -3, -3, -1, -2, -2, 0, -2
1503957340944,-5, -4, -2, -2, -2, 0, -2, -4
1503957340967,-1, 4, 0, -1, -1, 0, -2, 0
1503957340989,-1, -6, -5, -2, -1, 0, 0, -1
1503957341004,-1, 1, -1, 0, 1, -2, -1, 0
1503957341027,-1, -3, -1, 0, 0, -2, 1, -1
1503957341049,-1, 0, -1, 0, 0, 0, -1, 0
1503957341074,1, -4, 0, -2, -1, -2, -2, -2
1503957341094,-1, -2, 0, -1, -1, 1, -2, -1
1503957341109,-1, -3, -4, -2, -1, -1, -5, -4
1503957341137,-2, -4, -1, -1, -1, -2, 2, 1
1503957341148,2, 6, 2, 4, 0, -1, -1, -1
1503957341171,-6, -4, 2, -3, -1, 0, 3, 1
1503957341184,-1, 1, 2, 0, -2, -1, -1, -1
1503957341199,1, -1, -1, 0, -2, 0, -1, -1
1503957341216,-2, -2, -2, -2, -1, -1, -1, 0
1503957341236,-1, -1, 0, -1, 1, 0, -1, -2
1503957341262,1, 2, 1, 1, 0, -1, 1, 1
1503957341273,-2, -4, -4, -3, -1, -2, -1, -2
1503957341300,0, 0, -2, -1, -3, -1, -3, -1
1503957341318,1, 10, -2, -2, -2, 0, -2, 0
1503957341349,1, 0, 0, -2, 0, 1, 0, -2
1503957341365,-3, -4, -4, -1, -2, -2, -5, -8
1503957341386,-1, 1, 1, -1, -1, -1, 1, 3
1503957341409,-1, 0, 0, -2, -1, -1, 1, 2
1503957341424,-1, -3, -1, -1, -2, 0, 0, 1
1503957341446,-1, -1, -1, 0, -1, -2, -1, -1
1503957341470,-3, -1, 1, -1, 0, 0, 1, -2
1503957341484,1, 0, -1, 0, 0, -1, 0, 1
1503957341506,-1, 1, 0, -1, 0, 0, -2, -1
1503957341530,0, 6, -1, -1, -2, -1, 0, 0
1503957341544,1, 5, 3, 1, -1, -1, -7, -6
1503957341567,-2, -4, -4, -3, -1, -1, 1, 0
1503957341589,0, -4, -3, -1, -1, 0, -1, 0
1503957341604,-3, -1, -1, 0, -1, 0, -1, 0
1503957341626,0, -1, -1, -1, -1, 0, 0, 2
1503957341649,-3, -8, -3, 0, -2, 0, -3, -2
1503957341664,-4, -2, -4, -1, 0, -1, 0, 0
1503957341686,4, 3, 1, 0, -2, -1, 0, 0
1503957341709,1, 0, 2, 0, 0, -1, -2, 0
1503957341731,-1, 0, -1, -2, -1, 0, -1, 1
1503957341746,-2, -2, -2, 0, 0, -2, 0, -2
1503957341769,-2, -5, 0, -2, -2, -2, 0, 0
1503957341791,-2, -8, -4, -4, -2, 0, -1, 0
1503957341806,1, 2, 0, 2, 0, 1, 1, 0
1503957341834,-1, 0, 1, 0, -1, -2, 1, 1
1503957341851,-3, -1, -2, -2, 0, -1, -1, -5
1503957341869,1, 1, -1, 1, -2, 0, -1, -2
1503957341889,3, 4, -2, -2, -1, -1, -1, -1
1503957341911,0, -1, 1, -2, -2, -1, -2, 0
1503957341927,-2, -1, 0, 0, -1, 0, 1, 1
1503957341949,1, 6, 4, 1, -2, -1, -2, -1
1503957341971,3, 17, 10, 4, 4, -1, 3, 3
1503957341986,-2, -9, -4, -4, -1, 0, 2, 1
1503957342009,-4, -7, -5, -2, 0, -1, -2, -2
1503957342035,-2, -2, -4, -1, -1, -1, -2, 2
1503957342046,0, -1, -2, -1, -1, 0, -1, -3
1503957342070,-2, -3, -2, -1, 0, 0, -4, -4
1503957342091,0, -4, -2, 0, -1, -3, -1, 3
1503957342106,2, -2, -2, 0, -2, 0, -1, -1
1503957342129,-2, 1, 0, -2, -1, 0, -3, -1
1503957342151,-2, -6, 0, -3, -2, -1, -1, -2
1503957342168,-2, 1, 0, -2, -2, 0, -2, -1
1503957342189,-1, -3, -1, -1, -2, -3, -3, -5
1503957342211,5, 4, 1, 4, 2, 0, 3, 3
1503957342226,0, -5, 3, 3, 0, -1, -2, -1
1503957342249,-3, -3, -2, -3, -2, -1, 1, 0
1503957342271,-2, 3, 1, -2, -1, -2, 0, -3
1503957342286,-2, -2, -1, -2, 0, 1, 0, -1
1503957342310,-1, -1, -2, 1, -1, -1, 0, -1
1503957342338,3, 0, 0, -1, -2, -1, -1, -1
1503957342346,-3, 0, 0, -3, -2, -1, -3, -2
1503957342374,-7, -3, -2, -1, 0, -1, -2, -2
1503957342391,-1, 0, -2, -1, -1, -1, -1, 1
1503957342406,8, 2, -2, -1, -6, -4, 6, 3
1503957342429,-9, -8, -3, -2, 1, 4, 1, 1
1503957342451,-9, -3, -2, -1, 0, 0, -3, -5
1503957342470,3, 2, -2, -1, -2, -2, -2, 2
1503957342489,-3, -11, -3, -2, -2, -2, -1, -1
1503957342511,-11, -9, -4, -5, -4, -13, -9, -14
1503957342526,9, 10, 2, -1, 0, 3, -1, 1
1503957342549,11, 6, -1, 2, 6, 29, 6, 2
1503957342573,1, 5, -1, -3, -1, -6, -13, -3
1503957342586,-3, 0, 2, 1, 0, -1, 6, 1
1503957342609,0, 0, 1, 3, 1, -1, 6, 11
1503957342631,-17, -9, -4, -7, -7, -8, -3, -16
1503957342653,0, -1, 1, 3, 3, 0, 0, 0
1503957342671,-1, -3, 0, 1, 3, 9, -2, 7
1503957342691,12, 16, 5, 2, -3, -7, -4, 2
1503957342743,-9, -2, 1, 0, 1, -2, -7, -7
1503957342758,-1, -1, 0, -4, -1, 4, 1, -2
1503957342765,-6, -7, 1, 3, -2, 1, 5, -11
1503957342781,-4, 2, 3, 1, -1, 0, -6, -11
1503957342810,-7, 13, 1, 3, -2, 0, 2, 4
1503957342818,8, -4, -5, -6, -5, -4, 2, 12
1503957342835,-1, 8, 2, 2, 6, 4, 9, 5
1503957342849,-9, -19, -5, -4, -1, -2, -6, -4
1503957342873,-7, -5, -5, 0, -5, -5, -10, -16
1503957342893,-2, -11, -8, -5, -4, -4, 2, 11
1503957342909,6, 7, 5, 2, 1, 1, 6, 13
1503957342932,2, 4, 0, 4, 0, 0, -1, -14
1503957342953,11, 5, -1, -1, -7, -3, 4, 11
1503957342969,-6, -11, -1, -4, -1, -2, 2, 9
1503957342991,-10, -11, -2, -2, 0, 0, -1, -10
1503957343014,6, 5, 1, 2, -2, 4, -4, 6
1503957343029,4, 6, 1, -2, 1, 0, 2, 10
1503957343052,-5, 2, -2, -3, -4, -3, -5, 0
1503957343075,11, 9, 8, 7, 5, 2, 1, 11
1503957343089,-7, -5, -1, -4, -2, -1, 6, -13
1503957343112,1, 2, 0, 2, 5, 6, -5, 2
1503957343133,5, 4, 0, -6, -3, 2, -11, -9
1503957343150,-17, -13, -6, -6, -4, -8, 4, -9
1503957343172,5, 6, 1, 5, 0, 0, 0, 3
1503957343193,-10, -6, -2, -2, 0, -1, -1, 3
1503957343209,11, 3, -4, -3, -6, 2, 1, 5
1503957343231,-3, 1, 2, 0, 1, -4, -1, -8
1503957343253,0, -2, -2, 0, -5, -1, 0, 3
1503957343269,-10, -4, 0, 1, 4, 4, 0, -3
1503957343291,-1, -1, 0, -3, -7, -13, -3, -6
1503957343314,-3, -4, -1, -3, -1, -2, 0, 5
1503957343329,1, 0, 0, 0, -2, 0, -1, -18
1503957343351,-6, -6, -4, -2, -1, -3, -4, -11
1503957343374,13, 11, 2, -1, 1, 1, -3, 13
1503957343390,-13, -17, -5, -3, 0, 0, 1, -3
1503957343412,4, 6, -1, 1, 0, 0, 2, 7
1503957343433,-7, 4, 4, 3, 0, -2, -3, 5
1503957343449,7, 0, -2, -1, -1, -2, -5, -3
1503957343471,4, 3, 0, -1, 0, 0, 6, 5
1503957343493,-3, -3, -3, -3, -3, -4, -4, -6
1503957343510,-1, 1, -2, -2, 0, 0, 1, -2
1503957343531,-2, -2, 0, 0, 0, 1, -2, 2
1503957343553,-1, 11, -1, -1, -2, -1, -5, 0
1503957343577,1, -6, 0, -1, -1, 1, 0, -2
1503957343591,-7, -8, -2, -1, -3, 0, 1, -6
1503957343613,11, -2, -1, -1, 0, 0, -2, -8
1503957343636,-4, 6, -2, 0, 0, 0, 1, 1
1503957343653,-1, -5, -1, -1, -1, -1, -1, 2
1503957343673,4, 2, 0, 1, 0, -1, 0, 5
1503957343696,-1, -2, 0, 2, -2, -11, -6, -2
1503957343718,-4, -4, -1, -2, -1, 2, 1, -3
1503957343733,-6, -4, -8, -2, -4, -1, -4, -5
1503957343756,-13, -10, 3, -2, -1, 2, 2, -2
1503957343771,6, 18, 9, 6, 2, 2, -1, 1
1503957343793,8, 0, -2, -3, 0, 2, 1, 4
1503957343816,0, 0, -2, -1, 0, 0, -1, -2
1503957343831,0, -3, -3, 0, -1, -2, -2, -4
1503957343854,3, -3, 1, -2, -3, -6, 0, 6
1503957343880,1, -3, -5, -3, -1, 1, 1, 3
1503957343884,-5, 1, 5, 1, -1, -3, -1, -3
1503957343905,-8, -14, -9, -6, -2, -3, 0, -6
1503957343922,-2, -18, -8, -5, -1, -1, 4, 9
1503957343946,2, 6, 0, 1, -4, 0, -6, 4
1503957343965,-6, -2, 0, 1, 0, -3, 0, -2
1503957343981,-3, 6, 1, 0, -2, -3, -3, -7
1503957344003,-1, 3, 0, -2, 0, -1, -3, -4
1503957344025,-4, 1, 2, 1, 0, 6, 3, 3
1503957344041,0, 0, 2, 1, -1, -1, -6, -2
1503957344063,9, -2, -1, -1, -4, -2, 5, 9
1503957344086,4, 5, 3, 0, 1, -1, -1, -1
1503957344101,-2, -3, -1, 1, 0, 0, 0, -1
1503957344123,1, 2, -4, -1, 0, -2, -4, -5
1503957344147,1, 0, -2, -1, -2, -2, 0, -1
1503957344161,-14, -6, -2, -3, -2, -3, -3, -6
1503957344183,25, 9, -2, 0, 1, -1, 0, 5
1503957344205,-8, -1, 0, 1, 1, 0, -2, -1
1503957344221,0, -2, -1, -2, -3, -2, -1, -3
1503957344243,-5, -1, 0, 0, -1, -2, -2, -2
1503957344265,-2, -2, -1, -3, 0, 0, -1, -2
1503957344282,-8, -17, -7, -4, -2, -1, -3, -17
1503957344303,-13, 4, 0, 3, 0, 0, 0, 1
1503957344325,2, -1, -1, -2, 0, 1, 2, 3
1503957344341,0, 1, 2, -3, -3, 0, 1, 2
1503957344363,3, 1, -1, -3, -3, -1, -3, 0
1503957344372,-3, 0, 1, -1, 0, -1, -1, -4
1503957344393,-1, -6, -3, 0, -2, -1, 1, 2
1503957344417,-4, 2, 2, 1, 1, 0, 0, -1
1503957344431,12, 44, 4, 2, -3, 0, -9, -9
1503957344453,-4, -12, 0, -3, 0, -2, 1, 2
1503957344476,-3, -8, -3, -1, -1, 0, -1, -1
1503957344498,3, -1, 3, 1, 0, -1, 2, 2
1503957344513,0, -3, 0, 0, 2, -2, 2, 1
1503957344536,-7, -5, -5, -4, -3, -1, -1, -8
1503957344559,1, -3, 1, 0, -1, -1, -1, -2
1503957344573,-4, -2, 2, 0, 0, 0, 1, -2
1503957344596,-1, -5, -6, -4, -1, -1, -2, 3
1503957344622,5, 3, 0, 1, 0, 2, 2, 6
1503957344633,-1, -6, -4, -1, -1, -1, -2, 2
1503957344656,-5, -10, -2, -2, -1, -1, -1, -2
1503957344678,6, 6, -1, -1, 0, 0, -1, 4
1503957344693,-10, -7, 0, -3, -1, 1, 0, -4
1503957344717,2, 1, 0, -1, 0, 0, -3, -1
1503957344738,1, -4, -5, -3, -3, -3, -4, -8
1503957344754,1, 2, 2, 3, 1, 1, -2, 3
1503957344776,-7, 0, 1, 0, -1, -2, -4, -4
1503957344799,0, -7, -2, -4, -1, -1, 2, -7
1503957344814,2, 5, 2, 2, 1, -1, 2, -2
1503957344836,10, -2, -1, -2, -2, -1, -4, 17
1503957344844,3, -1, 2, 2, -1, 0, -5, 20
1503957344865,13, -2, -10, -8, -3, -3, -5, 34
1503957344888,-11, -9, 3, -3, 4, -4, -2, 59
1503957344910,11, 13, -3, -5, 1, -1, -9, -54
1503957344933,-9, -5, 2, 9, 3, 0, 5, -42
1503957344947,-5, -3, 3, 1, -3, -1, 2, -24
1503957344963,-2, -1, 0, 4, -1, 0, -3, -17
1503957344989,6, 2, 4, 1, -1, 1, 2, -3
1503957345007,4, 5, -5, -5, -3, -4, -8, -6
1503957345016,-1, -4, -2, -3, -1, 0, -2, 8
1503957345038,-3, -9, -2, -2, -2, -1, 0, 1
1503957345054,-3, -6, -4, -6, -1, 1, 1, -11
1503957345076,-3, -2, 2, -3, 2, -2, 1, -7
1503957345098,-4, -9, -2, 0, 2, 2, 2, -8
1503957345113,-2, -2, -3, 0, 1, -1, 9, -120
1503957345136,-1, -3, 0, 1, -11, -6, -16, 111
1503957345158,-2, 0, -1, -4, -8, 1, -1, 116
1503957345173,-3, -2, -1, 0, 7, 4, 12, 15
1503957345197,-2, -3, 0, 2, 3, -3, -3, -11
1503957345218,3, 1, -1, -3, -5, -6, -5, -8
1503957345235,-6, -1, -1, -3, -1, 2, 2, -12
1503957345256,0, -3, -3, -1, -3, -4, -1, -10
1503957345278,3, 1, 1, 0, 1, -3, -3, -13
1503957345293,-2, -2, 2, 1, 2, 1, -3, -12
1503957345308,7, -8, -3, -2, -1, 1, 0, -5
1503957345323,5, -7, -2, -1, -2, 0, -5, 2
1503957345346,-8, 1, -1, -1, -3, -1, -3, -4
1503957345368,0, 2, -1, -1, 0, -2, -1, -1
1503957345383,17, 12, 2, 0, 0, -1, 0, 1
1503957345405,-1, 0, -2, -1, 0, 1, 1, -1
1503957345428,2, -4, 0, 0, -1, -1, 0, -3
1503957345450,1, 4, 3, 1, -1, 1, -1, -1
1503957345466,-2, 1, -1, 0, -1, 0, -1, 0
1503957345492,11, 0, -2, -3, -1, 0, -1, -1
1503957345510,-20, -14, 1, -1, -2, -3, 0, -4
1503957345527,0, 4, 3, 0, 1, -2, 0, -1
1503957345548,0, -7, -5, -1, 0, 0, -2, -1
1503957345570,-2, 1, -1, 0, 1, 1, -1, -2
1503957345585,-2, 1, -4, 0, -2, -1, 0, -1
1503957345607,11, 5, -1, 0, -2, -2, -1, 3
1503957345631,-2, 0, 0, -3, -1, 0, -2, -2
1503957345647,0, 4, 2, 0, 1, -3, 1, 0
1503957345668,3, -1, 0, -1, -1, -1, 0, 0
1503957345694,-4, 0, -2, 0, 0, -2, 1, 1
1503957345706,-6, -1, 0, -1, -1, 1, -3, -4
1503957345729,-2, -3, -1, -1, -1, -2, -3, 0
1503957345750,-3, 0, -1, -1, -1, -1, 1, 1
1503957345766,-5, -2, 1, -1, -2, 2, -1, -3
1503957345791,-14, -2, 2, 0, 0, 0, -2, -3
1503957345796,-2, -5, -2, 0, -1, -2, -3, -1
1503957345818,2, 1, -1, -1, 1, -1, 0, -2
1503957345841,-5, -5, -3, -1, -1, -1, -1, -1
1503957345856,-4, 1, 0, -1, -2, 1, 0, 0
1503957345878,2, 3, 3, 2, -1, 1, -1, 0
1503957345901,3, 2, 0, -1, 0, -1, -2, -2
1503957345916,5, -8, -3, -3, -1, 1, -1, 5
1503957345938,-4, 9, 8, 1, -2, -1, 1, -2
1503957345961,-2, -1, -3, 0, -1, -1, 0, 0
1503957345976,-6, -5, -2, -2, 0, -4, -3, -3
1503957345998,0, -3, -1, -4, -3, -1, -2, 0
1503957346021,-2, -2, -1, -1, 1, -1, 0, -3
1503957346036,1, 0, 1, 0, -1, -1, 0, 0
1503957346061,-1, 1, 1, -1, 0, 0, -1, 2
1503957346081,-2, -2, -4, -1, -3, -1, 0, -2
1503957346096,-1, -1, -2, 0, 0, 0, 0, -2
1503957346118,1, 0, -2, 0, -1, 1, 0, 0
1503957346141,0, -1, -1, 0, 2, 0, 0, -1
1503957346156,-1, -1, 1, -1, -1, -1, -2, 1
1503957346178,-1, 0, 1, 0, 0, -1, 0, -2
1503957346201,0, -2, -3, -2, -2, -3, -1, -2
1503957346216,1, -5, 0, 2, -2, 1, -2, 0
1503957346238,-1, -2, -4, 0, 0, -2, -1, 0
1503957346262,-2, 1, -2, -2, 1, 1, -1, -1
1503957346276,-2, -1, -2, -2, -1, 0, -1, -2
1503957346298,0, 0, 1, -1, 0, -1, 0, 1
1503957346314,1, 4, 5, 2, -1, -1, -1, -5
1503957346329,-3, -6, -2, -3, -1, -2, 1, 1
1503957346351,-1, 0, -3, -1, 1, -1, -1, -2
1503957346358,-1, -4, -1, -1, -1, 0, -2, -1
1503957346381,1, 6, 2, 2, -1, -1, 1, 0
1503957346403,-1, 2, 0, -1, 0, -1, 1, 0
1503957346418,0, 2, -4, -2, 0, 0, 1, 1
1503957346441,-2, -1, 2, 0, -2, 2, -2, -2
1503957346464,-2, 0, 4, 0, 0, -2, 2, 1
1503957346478,-1, 1, -1, -1, -1, -1, -3, -2
1503957346501,-1, -4, -5, -2, -2, 0, -2, -3
1503957346523,-1, -9, -1, -2, -3, -1, 0, 0
1503957346539,-2, -1, 0, -1, 0, -3, -2, -3
1503957346561,-2, -6, -7, -1, -1, 0, -2, 1
1503957346583,0, -1, 0, -2, 0, -2, 0, 0
1503957346599,-1, 4, -2, -1, 0, -1, 0, -3
1503957346621,0, 3, 2, 0, 0, 0, -2, 0
1503957346643,0, 0, -1, 1, 0, 0, 1, 2
1503957346658,-1, -1, 0, -1, -2, -1, 0, -1
1503957346681,-1, 2, 0, 1, 0, -1, -1, -2
1503957346703,-1, -1, 0, -1, -2, -2, -2, 1
1503957346718,1, -6, -5, -1, 0, 0, 0, -2
1503957346741,-3, -10, -4, -5, -2, -1, 0, 0
1503957346766,-1, -4, 1, 1, -1, 0, -1, -3
1503957346778,1, 10, 2, 1, 1, -1, -2, 0
1503957346801,2, 3, -1, -1, -2, 0, 0, 1
1503957346823,-1, 1, 0, -1, -2, -2, -2, -2
1503957346838,0, 1, 1, 0, 3, 0, 0, -2
1503957346861,0, -4, -3, 0, 0, -2, -1, -2
1503957346884,4, 7, 2, 1, -1, 0, -1, -3
1503957346900,-2, -1, -3, -2, -1, -1, -1, -1
1503957346921,-4, 1, 1, -1, -1, 0, -1, 0
1503957346943,-2, -2, 0, 0, -1, 0, 0, -1
1503957346958,-2, -4, -1, -1, -1, -1, -1, -1
1503957346981,-4, -2, 0, -1, 0, 0, -1, 1
1503957347003,1, -2, -1, 0, -1, -1, 0, -1
1503957347018,-2, 0, 0, -2, -2, -1, -1, 0
1503957347041,-2, -2, 0, 0, 1, -2, 1, 0
1503957347063,-1, -2, -1, -2, -1, -1, -3, -1
1503957347078,-1, -6, -5, -3, -1, -2, 0, -1
1503957347102,1, 1, -1, -1, -2, -2, 0, -1
1503957347123,-4, -4, -4, -4, 0, 1, 0, -2
1503957347138,2, -2, 1, 0, -1, 0, -1, 0
1503957347161,0, 3, 1, 0, -2, 0, -3, 0
1503957347183,0, 2, 3, 1, 0, -1, 1, -1
1503957347198,1, -2, -5, -2, -3, 0, 0, -1
1503957347221,0, 15, 5, 2, -1, 0, -2, -1
1503957347243,-1, -7, -4, -2, -2, -1, 0, -2
1503957347258,0, -1, 0, -1, -1, -2, 0, -1
1503957347281,-2, -3, -1, 0, 0, -1, -1, -1
1503957347304,0, -3, -1, -1, 0, -2, -1, 0
1503957347327,-1, -2, -2, -1, -1, 0, 0, 0
1503957347341,-1, -4, -2, -2, -1, -1, -2, -2
1503957347363,0, 1, 0, 0, -1, -1, 0, 0
1503957347386,0, -2, 1, -1, 0, -1, 1, 0
1503957347403,-2, 0, -1, -1, -1, 0, -2, -2
1503957347423,1, 2, -1, 1, 0, 0, -1, -1
1503957347446,-1, 0, 0, 0, -1, 1, -1, -1
1503957347462,1, 5, 5, 3, -1, 0, -2, -2
1503957347483,-1, 1, -2, -1, -1, -1, -3, 0
1503957347508,-4, -2, -2, -2, -1, -1, 0, -1
1503957347521,-1, -6, -3, -3, 0, -1, -2, -1
1503957347544,0, -2, -3, 0, 1, 0, 0, 1
1503957347566,-2, -1, -2, -3, 0, -1, -1, -1
1503957347575,-3, -3, -1, 0, -1, 0, -1, -1
1503957347596,-1, -10, -2, -3, 1, -2, -2, -2
1503957347614,-1, -3, -2, -2, -3, 0, -3, 1
1503957347634,0, 3, -1, -2, -2, -2, -2, -1
1503957347656,0, 1, -1, 1, 0, 1, -1, 0
1503957347673,0, 2, 1, -1, 0, 0, 0, 0
1503957347694,-1, 1, 0, -1, -1, -2, -1, -2
1503957347716,-1, -3, 0, -2, -1, 0, -2, -1
1503957347731,0, 8, -3, -3, -2, 1, -2, -1
1503957347754,-2, -10, -3, -1, -1, 0, -1, 0
1503957347776,-1, -7, -2, 0, -1, -1, 0, -1
1503957347791,-3, 0, 0, 0, 0, 0, 0, -1
1503957347815,0, 0, -1, -1, -2, 0, 0, 0
1503957347836,0, -2, -2, -1, 1, 1, 0, -1
1503957347851,-2, -1, 1, -1, -1, -2, 0, -2
1503957347874,1, 7, 2, 1, 0, -2, -1, 2
1503957347895,-1, 0, 1, 1, 0, -1, 0, 0
1503957347913,0, -1, -3, -2, -1, -2, -1, -1
1503957347934,0, -1, 0, -1, -1, 0, -1, -2
1503957347956,-1, 1, 2, -1, -2, -4, -3, 0
1503957347971,1, -1, 3, 0, 0, 0, 0, -2
1503957347994,-1, -3, -2, -1, -2, 1, -2, -2
1503957348016,-3, 0, -2, -2, -1, 0, -2, -4
1503957348031,0, -1, -1, -1, 0, -1, 0, 0
1503957348054,-2, 0, -1, 0, -1, 0, 0, 0
1503957348076,-1, -1, 1, -2, -2, 1, -1, 0
1503957348091,-1, 0, -3, -2, 0, -3, 0, -2
1503957348114,-1, 0, 3, 2, 0, 0, -1, -2
1503957348136,-1, 0, -3, -2, -3, -2, 0, -1
1503957348151,1, -2, 1, 1, -1, 0, 0, 0
1503957348175,1, 5, 3, 2, 1, -1, 0, -1
1503957348196,0, -3, -3, -1, -2, -1, 0, 1
1503957348212,0, 1, 1, 1, 1, 0, -1, 0
1503957348234,-1, -3, -1, -1, -1, -2, -1, -2
1503957348256,-1, 0, -1, -1, 0, -2, -3, -2
1503957348278,-1, 3, 7, 2, 0, -2, 0, 0
1503957348286,-2, -12, -3, -2, -2, -1, -3, -3
1503957348309,-1, 2, 1, 0, 1, -2, 0, 2
1503957348323,0, 4, 4, -1, -3, -1, 0, -1
1503957348346,-1, 2, 0, 2, 1, 1, 1, 0
1503957348367,0, 1, 0, -1, 1, -2, -3, -1
1503957348383,0, -6, -1, -2, -1, 0, -1, -4
1503957348405,1, 4, 4, 1, 1, -1, 1, 1
1503957348427,0, 4, -1, -2, -1, 0, -2, -1
1503957348444,-1, -2, -3, 0, -3, 0, 1, 0
1503957348466,-3, 1, -1, 1, 1, -1, -2, -1
1503957348487,1, 3, 0, 1, -1, 0, -3, 0
1503957348503,-2, -3, 0, -3, -2, -4, -3, -6
1503957348526,-3, -3, -2, -2, -1, -2, -1, -2
1503957348547,-1, -3, -3, 0, -1, 0, 1, 0
1503957348563,1, -2, -1, -1, -2, 0, 0, 0
1503957348586,0, -3, 0, 0, 0, -1, 1, 3
1503957348607,-1, 0, -2, 0, -1, -1, 2, 1
1503957348623,0, 2, 0, -1, 2, 0, 0, -2
1503957348647,-2, 0, -2, -2, -1, 1, -1, -4
1503957348667,0, -1, 1, -2, -1, 0, -2, -1
1503957348683,-1, -3, -3, -3, -1, -3, -1, -1
1503957348705,2, -4, 2, 2, -1, -1, -3, -1
1503957348727,-3, -6, -2, -1, 0, 0, 1, 0
1503957348750,-1, 4, -3, -2, -1, -2, -3, 1
1503957348772,0, 0, -1, -2, -2, -1, 0, 0
1503957348788,0, -1, -2, -1, -2, 0, -1, -2
1503957348803,-1, 0, 0, 0, -1, 0, -1, -2
1503957348826,0, 0, 1, 1, 0, 0, -1, 1
1503957348849,-1, 3, -2, 0, 0, 0, -1, -2
1503957348863,-2, -6, -1, -2, -2, -2, 0, -2
1503957348890,-1, -3, -5, -2, 0, 0, -2, 0
1503957348907,3, -1, 1, 0, -2, -2, -1, -1
1503957348923,-4, -3, -4, -3, -1, -1, -2, -2
1503957348952,1, 3, -1, 1, -2, -1, -2, 1
1503957348968,-1, -1, 2, 0, -1, 0, 1, -1
1503957348983,-1, 0, 2, 1, 1, -1, 0, 1
1503957349005,-1, 1, 1, -1, 0, 0, 0, 0
1503957349028,-1, 1, 0, -1, -1, -1, -1, -1
1503957349043,-1, -5, -2, -2, 1, -1, -2, -2
1503957349069,-2, -1, 0, -1, 0, 1, 1, -2
1503957349088,2, 9, 5, 3, -1, -1, -1, -1
1503957349103,-1, 0, -2, -2, 0, 0, -1, 0
1503957349126,0, -2, -1, 0, -1, 0, -2, 0
1503957349154,-3, -7, -6, -3, -3, -1, -3, -2
1503957349170,0, 3, 1, 0, -1, 0, -1, -1
1503957349186,-3, -2, -3, -2, -1, -3, -2, -2
1503957349207,0, -4, 0, 0, 0, 0, 0, 0
1503957349230,-3, -10, -5, -4, -1, -1, -4, -8
1503957349245,-2, 3, -1, 1, -1, 0, -2, -4
1503957349267,0, -2, 0, 1, 1, 1, 1, 4
1503957349290,0, 1, 1, -3, 0, -2, -4, 0
1503957349306,1, 3, -3, -1, 0, 0, 1, 2
1503957349328,0, 1, 0, 0, -3, -1, 1, 0
1503957349354,1, -3, -2, -2, -1, 0, -2, -1
1503957349365,0, -4, -1, 0, 0, -1, 0, 0
1503957349388,-2, -1, 0, -1, -1, 0, 2, 0
1503957349410,0, -1, -1, 0, 0, 0, 0, 2
1503957349426,-5, 2, -1, -4, -3, -2, 1, 0
1503957349441,-1, -2, -1, -1, 1, -1, 2, -2
1503957349457,0, -3, -2, -2, -1, -1, -2, -1
1503957349485,0, -1, -1, -1, 0, -1, -2, -2
1503957349501,-1, 0, -2, 0, -1, 0, -1, 2
1503957349519,-1, -2, -2, -2, -1, 0, -1, -2
1503957349538,0, -2, 0, -1, -3, 1, -2, -2
1503957349561,2, -4, 1, 2, -1, 0, -1, 1
1503957349576,-3, -4, -5, -3, -2, -1, 2, -2
1503957349598,-4, -4, -4, -4, -2, -1, -3, -3
1503957349621,-2, 4, 3, 3, 0, -1, -1, 0
1503957349635,0, 1, 1, 0, 0, -1, 0, 0
1503957349658,-2, -2, -2, -1, 0, 0, -1, -1
1503957349682,2, 0, -1, 0, -1, -2, -2, 0
1503957349696,-1, 2, 0, -1, -1, 0, -1, 0
1503957349720,-1, 4, 0, -1, -1, -2, 0, 0
1503957349740,-1, -4, -1, 0, 0, -1, -1, 0
1503957349748,0, -3, -3, -2, -1, -1, -1, -2
1503957349770,0, -5, -1, -1, -1, 0, -1, -2
1503957349787,-3, 3, 4, 1, 0, 0, 0, -2
1503957349808,-1, -2, -5, -4, -3, -1, -1, -1
1503957349830,-2, -2, -4, 0, 0, 0, -2, -2
1503957349846,-1, -1, -1, -1, 1, -3, 0, -1
1503957349868,-2, -3, -2, 0, -2, -1, -1, 1
1503957349893,2, 11, 4, 4, -2, 2, 1, 1
1503957349906,-2, -4, -3, -4, -3, -1, -2, 0
1503957349929,-2, -3, -2, -3, 0, 0, -1, 0
1503957349950,-2, -4, -2, -2, -1, -2, 0, 0
1503957349966,0, 0, 0, -1, 0, 0, 1, 0
1503957349989,-1, 1, 0, -2, 0, -2, -1, 0
1503957350010,0, -5, -1, 2, 0, -2, 0, 2
1503957350027,0, 1, 1, 0, -1, -3, -1, -3
1503957350049,1, -2, -3, -2, -2, -1, -2, -1
1503957350072,2, 11, 0, -1, -2, -1, -1, -2
1503957350092,0, 3, 4, 1, 3, -1, 2, 2
1503957350101,2, 2, -5, -4, -4, 0, -4, -2
1503957350124,1, 13, 0, 0, -1, 0, -1, -1
1503957350138,-3, -2, -1, -1, -1, -1, -2, 0
1503957350161,0, -3, 2, 0, -1, 0, 1, 1
1503957350183,0, 1, -1, 0, 1, -2, 0, -1
1503957350198,-3, -4, -2, -3, 0, 1, 1, -1
1503957350222,-3, -6, 1, 0, -2, -1, 1, -1
1503957350243,-2, -3, -3, -2, -2, -2, -1, -2
1503957350258,-2, -5, -2, 0, 0, -1, -1, -1
1503957350281,-2, 0, -1, -1, -2, 0, -2, -1
1503957350303,-1, 2, 3, 1, 0, 1, 1, 1
1503957350318,-2, -4, -2, -1, 0, -1, -2, -2
1503957350340,-1, -3, -4, -1, -1, 0, 0, -1
1503957350363,0, 1, 2, 0, 0, -2, 0, -1
1503957350378,-1, -2, -3, -1, -1, -2, -2, -1
1503957350401,-1, -3, -2, -2, -3, -1, -1, -1
1503957350426,-2, 3, 0, 0, -1, 0, -2, -1
1503957350431,-2, -1, -1, -2, 0, -1, -3, -3
1503957350452,0, -3, -3, 0, 1, 1, -1, 1
1503957350469,2, 0, 0, 2, -1, -1, 0, 0
1503957350496,-1, -1, 1, -1, -2, 2, 0, 0
1503957350512,1, 3, 1, 0, -2, -1, 1, -1
1503957350528,-1, 5, 2, 0, 0, -1, -1, 0
1503957350550,0, -6, -2, -1, 0, -1, -2, -1
1503957350572,-2, -5, -5, -2, -2, 0, -2, 0
1503957350588,-1, 0, -3, -1, -2, -1, 0, 0
1503957350610,-1, -1, 1, 0, 1, -2, -1, 0
1503957350633,0, -5, -2, -1, -1, 0, -1, -2
1503957350648,2, 11, 2, 1, 0, -1, 1, 0
1503957350670,-3, -1, -1, -2, -2, 0, -1, -1
1503957350693,-3, -6, -3, -2, -1, 0, -1, -1
1503957350708,-1, -1, -1, 1, -1, -2, 0, 0
1503957350730,0, 0, -1, -2, -1, -2, -3, -1
1503957350753,-2, -3, -2, -3, 0, 0, -2, 0
1503957350768,-1, -6, 1, 2, 0, -1, 1, -1
1503957350790,-2, -2, 0, -2, 1, -1, 0, 0
1503957350813,0, 3, 0, -1, -1, 0, 0, -2
1503957350821,-1, -3, -4, -2, -2, -1, -1, -1
1503957350843,-1, 2, 0, 1, 1, 2, 0, -2
1503957350858,-4, -2, -1, -2, -2, -2, -3, -1
1503957350880,2, -3, -2, 1, -2, 1, -2, -1
1503957350904,1, -1, 1, -2, -1, 0, 1, 0
1503957350918,-2, -2, -3, -1, -3, -1, 0, 0
1503957350941,-1, -1, -2, 0, -1, -1, 0, -2
1503957350967,-1, 2, 0, -2, 2, -1, -1, -1
1503957350978,0, 0, 1, -2, 0, -2, 0, 0
1503957351001,-1, -1, -2, 0, 1, -1, 0, -2
1503957351023,-2, 7, 3, 1, -2, 0, -2, -1
1503957351046,0, -1, -1, -2, 0, -1, -1, -1
1503957351062,-1, -2, -1, -2, 0, 0, 1, -1
1503957351083,1, 1, -1, 2, -1, -1, -2, -2
1503957351106,-3, -5, -6, -2, -2, -1, -1, 0
1503957351120,1, -1, -1, -3, 0, -1, -1, 0
1503957351143,0, -3, 0, 1, -1, 0, 1, 0
1503957351169,1, 4, 1, 1, 1, -1, 0, -1
1503957351180,0, -5, 1, 0, -2, -1, -3, 0
1503957351203,-3, -2, 0, -2, -1, -1, 0, 0
1503957351226,-2, 0, -1, -1, -1, -2, 0, -1
1503957351241,0, -2, -2, 1, 1, -1, 0, 0
1503957351264,0, 2, 0, -1, -1, 0, 0, 0
1503957351286,0, -2, 0, 1, 0, 2, -3, -2
1503957351316,-1, 2, 0, 0, 0, 0, 0, 1
1503957351332,-2, -1, -3, -1, -3, -2, -2, -2
1503957351354,0, -3, -1, 0, 2, -1, 0, -2
1503957351376,1, -2, 1, 0, -2, 0, -1, 1
1503957351391,1, 0, 0, 0, 1, -2, 0, -1
1503957351413,0, -7, -3, -1, 0, 1, -2, -3
1503957351436,-4, 0, 0, -2, -1, 1, 1, 0
1503957351451,1, 4, -2, 0, -1, -1, -2, -3
1503957351474,-1, 1, 0, 0, -2, 1, -1, -1
1503957351496,0, 1, 0, 0, 1, 1, 1, 1
1503957351511,0, 1, 1, 0, -3, -1, -2, 0
1503957351535,-2, -2, -1, -2, -1, 0, -1, -2
1503957351557,5, 14, 3, 2, -1, -1, -2, -2
1503957351572,-4, -8, -4, -4, -2, -1, 1, 2
1503957351586,0, 4, 3, 0, -1, -1, 0, -2
1503957351601,-1, -8, -4, -2, -1, 0, 0, -1
1503957351623,-3, -5, -3, -2, -2, -2, -1, -8
1503957351646,-1, 1, -1, 0, -1, -2, -2, 2
1503957351660,0, -1, -5, -3, -3, 1, 1, 5
1503957351683,1, 0, 1, 2, -1, 1, 2, 6
1503957351706,1, 1, -1, -1, -2, 0, 1, 1
1503957351720,5, 2, 0, -1, 1, 0, -2, -2
1503957351737,0, -2, 1, 1, 1, -3, -1, -4
1503957351751,9, 3, -2, -1, -1, -1, -1, 2
1503957351774,-4, -2, 1, 1, -1, -2, 0, -3
1503957351796,10, 2, 1, 0, 1, -2, 0, 1
1503957351811,-1, -3, -1, -2, -1, -1, -1, -1
1503957351834,-3, -2, -1, -1, 2, 2, 1, 1
1503957351856,-6, 2, -1, 1, -1, -1, -6, -7
1503957351873,-1, -4, -2, -2, -2, -2, 2, -1
1503957351893,-16, -5, 0, 3, 13, 16, 9, -2
1503957351902,2, 1, 0, -2, -5, -12, -3, -1
1503957351923,2, 1, -2, 2, 1, 2, -2, -1
1503957351945,-10, -6, 3, -1, 1, -3, 5, -1
1503957352020,-22, -6, -3, -1, 3, 6, 2, -2
1503957352036,-6, -5, 2, -12, -1, 0, -5, -6
1503957352043,-1, -2, 1, 1, 0, -1, -5, -3
1503957352059,-3, -2, -2, 2, -1, 2, 3, 5
1503957352066,-5, -13, -2, -1, 1, 2, 0, -11
1503957352088,6, 5, 1, 4, 2, -2, -7, 1
1503957352103,4, 0, 4, 3, 3, 6, 9, 2
1503957352125,0, -1, -2, -4, 3, 8, -4, -6
1503957352148,-34, -25, -4, -2, 0, -7, -10, -9
1503957352163,8, 3, 1, -2, 4, 20, 7, 11
1503957352186,10, 12, -1, -3, -6, -12, -6, 0
1503957352208,7, 1, 0, -2, -4, -6, 1, -9
1503957352223,14, 21, 11, 6, -2, -2, 5, 18
1503957352246,-8, -10, -6, -2, -4, -4, -7, -24
1503957352268,-6, -1, -3, 3, 1, -1, -1, -7
1503957352283,-2, 11, 1, 1, -1, -1, 4, 9
1503957352306,-4, -22, -3, -7, -1, -2, 2, 14
1503957352328,-9, -8, -9, -1, -3, -2, -3, 2
1503957352343,20, 0, 1, -2, -3, 1, 4, 10
1503957352365,-7, 1, -2, -6, -1, -1, -9, -16
1503957352388,1, 7, 0, -2, -1, -14, 1, 5
1503957352406,-11, -8, -3, 0, -1, 0, -3, -18
1503957352426,-6, -9, -3, 2, 0, 6, 2, 11
1503957352449,-1, -4, -2, 0, 3, -1, -7, 6
1503957352463,0, 1, 1, -1, -2, -3, -7, -20
1503957352485,7, 7, 1, 0, -1, 3, -4, 6
1503957352508,3, 2, 1, 0, 1, 6, 3, -2
1503957352523,4, 4, 7, 1, 4, 1, -2, 18
1503957352546,4, 2, -2, -7, -10, -3, 6, 2
1503957352568,3, 12, 1, 0, -2, -3, 2, -1
1503957352584,-20, -5, -5, 0, 1, 0, 5, -3
1503957352607,-8, -14, -2, 1, 2, -1, -2, -4
1503957352628,24, 2, 2, 0, 7, 14, 10, 46
1503957352644,-4, -4, -2, 1, -1, -1, 0, -11
1503957352665,-7, -15, -6, -3, -4, -9, -2, -15
1503957352688,20, 30, 14, 11, -1, 1, 6, 20
1503957352697,2, -4, -3, 2, -4, -2, -3, 3
1503957352718,-1, -6, 2, -5, -8, -24, -1, -4
1503957352733,1, -2, -1, 2, 1, 2, -1, 3
1503957352756,3, 4, 3, -1, 0, -2, -1, -3
1503957352779,15, 15, 4, 4, 2, 7, -2, 18
1503957352793,-1, -4, -4, -2, 1, 4, 2, 1
1503957352816,-7, -15, -6, -2, 0, 3, 2, -5
1503957352840,0, 4, 0, -1, -2, -1, -3, -2
1503957352853,-5, -5, -1, -2, -4, -2, 2, -10
1503957352877,-5, -5, -4, -2, -4, -2, 2, -3
1503957352898,-1, 2, 0, 2, 2, 1, -3, -3
1503957352920,2, -6, -6, -4, 0, 0, -6, -3
1503957352936,4, 0, -1, 0, 1, -2, 0, 3
1503957352958,7, -2, -3, -1, 1, 1, -2, 4
1503957352981,-3, -1, -3, -1, -1, 1, -1, 3
1503957352996,-4, 0, -1, -1, -3, -2, -1, -1
1503957353019,-4, -1, -2, 2, 0, -1, -1, 4
1503957353043,-2, 5, -1, -1, 0, 0, 1, -3
1503957353056,-12, -6, -2, -2, -2, 2, 0, -8
1503957353078,4, 5, 4, 1, -1, -2, 0, 4
1503957353100,-1, 0, 2, 2, 0, 0, 2, 9
1503957353116,-3, -3, 0, -2, -1, 0, 1, 0
1503957353139,4, 2, -1, 0, -1, -2, 0, -4
1503957353160,-5, -12, -4, -4, -2, -2, -3, -4
1503957353178,7, 7, 2, 0, 1, 0, -2, 0
1503957353202,-4, -3, 0, 0, -1, -2, -3, -5
1503957353220,0, 3, 1, 0, 0, -1, -1, -3
1503957353232,-3, -2, -1, -2, -1, -1, -1, -1
1503957353252,-1, 9, 3, 2, 0, -1, -1, 4
1503957353265,3, -4, -2, -1, -2, -1, -2, -4
1503957353288,-3, -9, -4, -2, -1, 1, 2, 3
1503957353316,1, 3, 2, 0, 2, -1, -2, -3
1503957353326,0, 0, 0, 0, -1, -3, -5, -4
1503957353348,-1, 0, 0, 1, 0, 1, 1, -3
1503957353370,-20, -7, -2, -3, -1, -3, -1, -1
1503957353385,8, -2, -8, 0, -3, -1, -5, 0
1503957353408,0, 0, 1, 0, -1, 0, 1, 2
1503957353430,0, -3, -1, -3, -3, -1, 2, 0
1503957353446,2, 2, 2, 0, -1, -2, 1, 2
1503957353468,9, 1, -1, -2, 0, 1, 0, 3
1503957353491,-4, 1, 4, 1, -1, -2, 1, -3
1503957353505,1, 4, 1, 1, 0, -2, -2, -6
1503957353528,3, 2, -2, -1, -1, 1, 1, 1
1503957353550,-7, -4, -2, -1, 0, 0, 0, 2
1503957353565,2, -5, -4, -2, -1, -3, -7, -7
1503957353588,-4, 0, 2, 0, -1, 1, 0, -2
1503957353612,-3, -3, -2, -3, -1, -1, -1, -1
1503957353625,5, -8, 0, 2, 1, -2, -3, -1
1503957353648,0, -2, -3, -2, -1, -2, -1, -1
1503957353656,0, 4, 1, 0, 0, -1, 1, -1
1503957353681,0, 0, 0, -2, -3, 0, 0, 2
1503957353700,-1, -3, 0, -1, 0, -3, -1, -2
1503957353716,3, 8, 4, 3, -1, -2, -3, -2
1503957353739,1, -4, -3, 0, 0, 0, 0, 1
1503957353760,-5, -9, -4, -4, -2, 0, -1, 2
1503957353776,4, 5, 2, 5, 0, 1, 1, 4
1503957353798,-5, 2, 0, -1, 0, 0, -2, -3
1503957353820,-6, -8, -2, -3, 1, -2, 1, -7
1503957353843,1, 5, 2, -2, -3, -1, 1, 1
1503957353859,2, 1, 4, 1, 1, -1, 2, 3
1503957353882,3, -1, -5, -2, -2, -1, -2, 2
1503957353903,-2, -4, 2, -1, 1, -1, -1, -4
1503957353919,-3, 0, 0, -2, -1, -2, -2, -5
1503957353940,-6, -5, -4, -3, 1, 3, -1, 1
1503957353963,0, 4, 1, -2, 1, 8, 1, 4
1503957353978,12, -1, -3, -4, -3, 0, -1, 1
1503957354000,-3, -1, -5, -2, -3, -3, 0, -2
1503957354023,16, 1, -4, 1, 0, -4, -1, 2
1503957354038,-1, 0, -4, -1, -3, 0, -2, -2
1503957354052,-6, -1, 1, 0, -2, 0, -2, -3
1503957354069,1, -3, -8, -6, -4, -11, -13, -12
1503957354090,2, 1, -2, -2, -1, -2, 6, 16
1503957354112,11, -1, 0, 2, 2, 2, -2, -3
1503957354128,0, -8, -4, -5, -1, 0, 2, 3
1503957354151,-9, -2, -4, -4, -3, 1, -2, -3
1503957354172,-4, -2, 5, 2, 0, -2, -2, -10
1503957354188,-1, 2, 5, 5, 3, 1, 3, 3
1503957354210,0, 2, 1, 0, 1, 0, 0, -3
1503957354232,-4, -2, -4, -5, -2, 1, -3, -5
1503957354248,-5, -2, -4, -2, -3, -1, -2, -2
1503957354270,2, -1, -2, 0, 0, 0, -1, 0
1503957354293,-1, -6, -3, -2, -1, 0, 0, 2
1503957354315,-3, 4, 2, 5, 15, 9, 5, -6
1503957354330,4, -2, -4, -5, -1, -2, -5, -2
1503957354353,-11, -3, -3, -5, -2, 6, 3, -3
1503957354368,33, 13, 6, 8, -2, -5, 2, 11
1503957354392,-4, 2, 0, 1, 0, 4, 1, 6
1503957354398,15, 9, 2, 4, 7, 4, 5, 15
1503957354421,7, 0, -2, -5, 0, -1, -3, -5
1503957354443,4, 3, 4, 1, -3, 0, -2, -7
1503957354459,2, 1, -1, -7, -2, -1, -5, -2
1503957354480,9, 23, 2, -2, -1, 2, -1, 3
1503957354503,4, -7, -1, 3, 1, 0, 0, 2
1503957354520,1, 1, -2, 3, 1, -6, -1, -3
1503957354540,-5, -10, -6, -5, 0, -4, 2, -2
1503957354563,0, -5, 0, -1, -1, 4, 2, 3
1503957354578,-1, -6, -1, -1, -2, 0, -2, 2
1503957354607,3, 1, -2, -2, -2, 0, -2, 0
1503957354623,-23, -8, -1, 1, 0, 1, -2, -10
1503957354638,7, 0, -3, -3, -4, 1, -2, 2
1503957354661,4, 0, 1, 0, 1, 2, 2, 3
1503957354683,3, 1, 0, 1, -1, 1, 0, 4
1503957354698,-4, -3, -1, -2, -2, -4, -6, -4
1503957354721,5, -2, -5, -4, -2, -4, 0, 1
1503957354743,-2, 0, 0, 1, 1, 0, 3, -1
1503957354765,3, -1, -4, 0, 0, 1, -6, -4
1503957354780,5, 2, 2, -1, 0, 0, 0, 0
1503957354803,9, -4, 1, 1, -1, -3, -2, 0
1503957354826,-9, -3, 0, 0, -2, 0, 1, 0
1503957354840,-4, -5, -1, 0, -1, 0, 0, -3
1503957354864,3, 2, -3, -3, 0, 1, 1, 1
1503957354885,-1, 1, 0, 2, -1, -2, -3, -1
1503957354900,-4, 1, -2, 1, 1, -2, 0, 1
1503957354923,-8, -5, -1, -2, 0, -1, -2, -12
1503957354946,-2, 0, -2, -1, -1, 0, -1, 2
1503957354962,4, 1, 2, 0, -1, -3, -1, 2
1503957354983,-7, -1, 1, 1, -2, 0, -2, -2
1503957355006,-5, -4, -4, -4, -1, 4, -1, -2
1503957355023,3, -2, -4, -3, -2, -3, -5, -1
1503957355043,-1, 0, 0, 0, 0, -2, 2, -1
1503957355051,-1, 4, 4, 0, 2, 0, -2, 0
1503957355073,7, 0, -1, 0, -2, -3, -2, -2
1503957355097,-2, 10, 1, 0, -1, -1, -3, -2
1503957355111,-4, -8, -2, -1, -2, -2, -5, -7
1503957355134,-5, -3, -3, -2, 0, -1, 1, -1
1503957355155,-2, -3, 0, 1, 1, 0, -2, 1
1503957355171,0, -1, -1, -2, 0, -1, 0, 0
1503957355192,-3, -5, -3, -3, -2, 0, 0, -5
1503957355215,3, -3, 0, -1, 0, -1, -2, 2
1503957355231,1, -1, -2, 1, 0, -2, 0, 0
1503957355252,-1, 0, 0, 0, -1, -1, 0, -1
1503957355275,0, 1, -1, 1, -2, 0, -2, 1
1503957355292,5, -1, -2, -2, -1, -1, 0, 6
1503957355312,1, 10, -2, -1, -2, 0, -2, 2
1503957355321,-2, -4, -3, -2, 0, 0, 2, 1
1503957355344,-4, 0, -1, -1, 0, 1, -2, -2
1503957355365,3, -3, -1, -1, -2, -1, 0, -2
1503957355380,2, 0, 0, -2, -1, -1, 0, 2
1503957355403,0, -2, -3, -2, -1, 0, -1, 0
1503957355426,-1, 1, 1, 1, -1, -3, 1, 1
1503957355440,1, 0, -4, 0, 1, 0, -2, 0
1503957355463,-5, -10, 0, -3, 0, 0, -1, 0
1503957355485,-1, 3, 0, 0, -2, -2, 0, 0
1503957355501,5, 7, 2, 2, 0, -1, -2, -5
1503957355523,-3, -5, -3, -3, -2, 1, 0, 1
1503957355545,0, -1, 0, -1, -1, 1, 0, 0
1503957355561,1, -1, -3, -1, -2, -2, -2, -2
1503957355583,2, 12, 7, 4, 1, 1, -2, -2
1503957355605,-2, -8, -5, -4, -1, -2, -2, 0
1503957355620,0, -1, -2, 0, 0, -2, 0, 0
1503957355643,-4, -5, 0, -1, -1, -1, -1, -2
1503957355666,-4, -3, -4, -6, -3, 0, 0, -2
1503957355681,-1, -1, 1, 1, 0, 0, 1, -1
1503957355703,0, -1, -4, -4, 1, -1, -2, 1
1503957355725,-2, 1, -1, -1, 0, 0, 0, 1
1503957355734,0, -2, -2, -2, 1, -2, 2, 3
1503957355754,8, 19, 3, 4, -1, 0, -3, 3
1503957355777,-2, -11, 1, -3, -1, -1, 3, 0
1503957355794,-6, -3, -3, -1, -2, -1, -2, -3
1503957355814,-1, -5, -4, -3, -1, 0, -2, 0
1503957355838,1, -4, -2, -1, -2, -1, 0, 1
1503957355853,0, -1, 1, -1, 0, 0, 2, 3
1503957355874,-1, 1, 1, 0, 1, 0, -1, -1
1503957355898,-1, -3, 0, 0, -1, 1, 0, 0
1503957355912,0, -1, -3, -1, -2, -3, 0, -2
1503957355935,-2, -1, 1, -1, 1, -1, 1, -2
1503957355957,-3, -3, -2, -1, 0, -2, -2, -2
1503957355973,-3, -1, 0, -1, 0, -1, -3, -4
1503957355996,0, -1, -4, -1, -1, 1, -1, 2
1503957356017,1, 3, 2, 1, -2, 1, 1, 0
1503957356034,2, -4, -3, -3, -2, -1, -2, 0
1503957356054,-1, 0, 0, 0, -2, -1, -2, -3
1503957356077,-3, 1, 2, 0, 0, 0, 2, 0
1503957356093,0, -1, -3, -1, -1, -3, -2, -2
1503957356116,0, -3, -1, -3, 0, 0, 0, 1
1503957356139,0, 1, -2, 0, -1, 0, -2, -3
1503957356161,3, 16, 6, 5, 0, 0, -3, 2
1503957356176,-3, -6, -4, -3, -1, 0, -1, -2
1503957356198,0, -1, -5, -1, 0, -1, -1, -1
1503957356221,-3, 1, 2, -1, -2, -1, 2, -1
1503957356236,-3, -6, -2, -3, -1, -1, -2, -3
1503957356258,0, -7, -3, -2, -1, 0, -1, 0
1503957356281,1, -1, -1, -1, -1, -1, 0, -2
1503957356297,-1, -2, -1, -4, 0, -1, 0, 1
1503957356304,-2, -2, -4, -1, -1, -1, -7, -7
1503957356325,-1, -1, -1, 0, 0, -1, 2, 1
1503957356348,-2, 0, -2, -1, 0, -1, 3, -3
1503957356363,-1, 1, -1, 1, -2, -1, -1, 0
1503957356385,1, 4, 7, 3, 0, -2, 2, -1
1503957356408,-1, -4, -3, -2, -2, 0, 0, -1
1503957356424,-1, 0, -2, 0, 0, -1, -4, 0
1503957356445,0, 0, -2, 0, -1, -1, 1, 1
1503957356468,-10, -3, 0, -1, -1, -2, -1, 1
1503957356483,-3, -4, -2, -3, 0, -2, -1, -4
1503957356505,2, 0, -2, 0, 0, -1, -3, -2
1503957356528,0, -2, -3, -3, -3, -1, -2, 1
1503957356543,3, -1, -4, 0, -2, 0, -1, 1
1503957356568,0, -1, 0, -2, -1, 0, 1, 0
1503957356588,-1, 1, -1, -1, 0, -1, -1, -1
1503957356603,-3, -1, 0, 0, 0, 1, -1, -2
1503957356625,5, -2, -4, -1, 0, 0, 2, 1
1503957356648,-2, 0, 3, -1, 0, 0, 1, 0
1503957356670,-3, -2, 0, -1, -1, -1, 0, -2
1503957356685,1, 0, 1, 1, -2, -1, -1, 1
1503957356708,0, 0, -1, -1, -3, 0, -1, -1
1503957356730,-1, -2, 0, -1, -1, -1, -2, -2
1503957356745,0, -1, 0, -2, 0, 0, 0, -1
1503957356769,4, -2, -3, -4, -2, -1, 1, 1
1503957356790,-2, 3, 1, 0, 1, -1, -3, 1
1503957356806,-2, 1, -1, 0, -1, -1, 0, -4
1503957356828,0, -1, 3, 3, 3, 1, -1, -1
1503957356850,-2, -2, -1, -1, -1, -1, 1, 0
1503957356865,-1, -1, -2, -1, -2, -3, -1, -1
1503957356888,1, -3, -1, -1, -1, 0, -1, -1
1503957356911,0, 0, -1, -2, 0, 0, 1, 1
1503957356925,-1, -3, -2, -1, -2, -2, -3, 0
1503957356944,-2, -3, 2, -2, 0, -1, 1, 0
1503957356958,0, 1, 1, -1, 0, -1, 0, -1
1503957356980,1, 11, 4, 2, 0, -1, 0, -1
1503957357001,-2, -2, -1, -1, 0, -1, -2, 0
1503957357016,1, -4, -2, -2, -2, -1, -1, -1
1503957357038,-2, -3, -2, -1, -1, 0, 0, -1
1503957357061,0, -3, -3, -3, 0, 0, 0, 1
1503957357080,-2, 0, 1, -1, 0, 0, -1, -1
1503957357098,-3, -3, -1, -1, -1, -2, 0, -2
1503957357121,5, 5, -4, 0, -1, -1, -1, 1
1503957357143,-1, -1, -1, 0, -2, -1, -2, -2
1503957357151,-1, 2, -2, -1, -1, -3, -1, -2
1503957357165,-3, -1, -1, -2, 0, 1, 1, 0
1503957357187,-3, -1, 0, -1, 0, -1, -1, -3
1503957357210,-4, -3, -2, -1, 0, 0, -1, -1
1503957357225,-1, -7, -2, -1, -2, -1, -2, -2
1503957357248,0, -2, -2, 0, -2, 0, 0, 0
1503957357273,-2, 3, 2, -1, -2, -1, -1, 0
1503957357285,1, -3, 1, -1, 0, 0, -1, -1
1503957357309,-2, 4, 0, -3, -2, -2, 1, -1
1503957357330,-1, 0, -2, 1, 1, 0, 0, -1
1503957357361,-3, 2, -2, 1, 0, 1, -3, -1
1503957357376,-3, -3, -1, -1, 0, -1, -1, -1
1503957357427,-1, 0, 0, 0, -1, 0, -2, -1
1503957357436,-1, -2, -1, 0, -2, 0, 0, 1
1503957357452,-1, -1, -4, -1, 0, -1, -2, -1
1503957357465,-1, -1, -1, -2, 0, -1, -2, -2
1503957357488,-3, -1, 0, -1, -1, -1, -1, -1
1503957357510,0, 0, 0, -1, -1, -3, 1, -2
1503957357525,-1, 4, 4, 5, -1, 1, -4, -2
1503957357549,1, 0, 1, -2, -1, -2, 4, 1
1503957357570,-3, -4, -1, -1, 0, -2, 1, -1
1503957357593,0, 1, -1, -2, 0, 1, 0, -1
1503957357608,0, 1, -2, -1, -1, -1, -1, 0
1503957357630,-4, -2, -2, -1, -1, -1, 0, -1
1503957357653,0, -2, -3, -1, 0, 0, -3, -2
1503957357668,0, -3, -1, -2, -1, -1, -1, 0
1503957357697,1, 2, 2, 1, 0, -1, 1, 1
1503957357713,1, -1, -2, -1, -1, 0, 0, -2
1503957357728,-3, -2, -2, -3, 0, -1, -2, -2
1503957357750,-3, -1, 1, 0, -2, 0, -2, 0
1503957357758,-1, -1, 1, -3, 0, -3, -1, -2
1503957357781,4, 0, 2, 2, -1, 0, -1, 1
1503957357803,1, -2, -4, -2, 0, -1, -1, -1
1503957357818,0, 0, -2, -1, 1, 0, 0, 0
1503957357844,-3, -3, -1, -2, -1, 0, 0, 0
1503957357863,-1, 2, 1, 0, -1, 1, 0, 0
1503957357878,0, -1, -2, -1, -2, -2, -1, 0
1503957357901,-1, 3, -1, -2, 0, 0, -2, -2
1503957357923,0, -2, -1, 0, -2, -3, -1, 1
1503957357938,0, 0, -1, 2, -1, -2, 0, 0
1503957357961,0, 7, -1, -2, -2, 0, -1, -1
1503957357983,-1, -2, -1, -2, 1, -1, 1, 0
1503957357998,-4, -5, 1, -1, -1, -1, -1, -2
1503957358021,-1, -1, -2, 0, 0, 2, -1, -1
1503957358043,0, -1, 0, -2, -2, -2, -2, -1
1503957358058,1, -1, -1, 1, 0, 1, 0, -2
1503957358082,-4, 2, 2, -1, -1, -3, -2, 0
1503957358103,0, -4, -2, 0, 0, 1, 0, -1
1503957358118,1, 0, 1, -2, -1, -1, -2, -1
1503957358143,-1, 0, 1, -1, 0, -2, 0, -1
1503957358163,2, -2, -2, -1, 0, 0, -1, -1
1503957358178,-1, -2, -1, -1, -2, -1, -3, -1
1503957358201,4, 9, -2, 1, -1, 0, -1, 0
1503957358223,0, -6, -1, 0, -1, -3, 0, -1
1503957358238,-1, 0, -2, 0, -1, -1, -2, -1
1503957358261,0, 0, 0, 0, -1, 0, 0, -2
1503957358283,2, 2, 3, 1, 0, 0, -1, 1
1503957358290,0, 1, -1, 0, 1, -1, -2, -2
1503957358350,-1, 0, -1, -3, -2, -1, -2, 0
1503957358358,-2, -5, -1, 0, 0, 0, 1, -1
1503957358373,-1, -1, -1, -1, -1, -1, -2, -2
1503957358388,2, 1, -1, -1, -1, -1, -1, 0
1503957358411,0, 2, 0, 0, 0, -1, 0, 0
1503957358433,1, -1, -2, -1, 0, 0, -2, -1
1503957358448,-1, -1, -3, -3, -1, 1, 0, -2
1503957358463,4, 10, 2, 3, -2, -1, -1, 0
1503957358479,-4, -5, 0, -2, -1, -1, 0, -2
1503957358501,-2, -1, -2, -1, 0, -1, -4, -1
1503957358523,1, -3, 0, 1, 2, 0, 0, 0
1503957358545,0, 0, 0, -2, -3, 0, -1, -1
1503957358561,-5, -2, -1, -2, -2, -2, 0, -3
1503957358583,-1, -6, -3, -2, -1, 0, -1, -3
1503957358605,-2, -7, -1, -1, -4, -3, -3, -3
1503957358622,-1, -3, -1, 0, 1, -2, 1, 0
1503957358643,-2, 1, -2, -1, -1, 1, -1, 0
1503957358665,-1, 0, 0, 1, 1, 1, -1, 0
1503957358687,0, 1, 0, -1, -1, 0, 1, 2
1503957358709,0, 1, 0, 0, -2, -1, -1, -1
1503957358725,-1, 1, 0, -3, -2, -2, -1, 1
1503957358741,1, 7, 0, -1, 0, 0, -1, -2
1503957358763,-3, -7, 0, -1, 0, 0, -1, 0
1503957358786,0, -1, 0, -1, -2, -2, -1, 0
1503957358801,1, -2, -2, -2, -2, -1, 1, -1
1503957358823,-2, 2, -1, 1, -1, 0, -2, -1
1503957358846,-1, -2, -1, -2, -1, -1, -1, -3
1503957358861,-2, 1, -2, -1, 0, -1, -1, -2
1503957358883,-3, -3, 0, 1, 1, 0, 2, 1
1503957358905,-2, 1, -3, -2, -1, -2, 0, 0
1503957358921,-2, -2, -1, -1, -3, 0, -1, -1
1503957358942,2, 1, 2, 0, -1, 1, -1, 1
1503957358972,-1, 0, 2, -1, 0, -1, -3, -2
1503957358987,2, -2, -1, -2, -2, -1, -2, -3
1503957358995,-4, -2, 0, 1, -2, -1, 0, -1
1503957359010,-1, -1, -5, -2, -2, -2, -2, -2
1503957359032,-2, 2, 0, -2, -1, 1, -2, 0
1503957359041,0, 0, 2, -1, 1, 0, 0, -1
1503957359062,1, -3, 0, 0, -1, -3, 0, 0
1503957359086,2, 1, -1, 0, -1, -2, 0, 0
1503957359108,1, 1, -2, -1, 0, -1, 0, -2
1503957359123,0, -2, -4, -1, -2, -2, 0, -1
1503957359148,-3, -5, -1, -1, -2, 1, -1, -1
1503957359161,-4, -1, -3, -2, 0, 1, 0, -1
1503957359183,4, 1, 3, 0, 0, 0, 0, 0
1503957359205,1, 2, 0, -1, 0, -1, -1, -2
1503957359221,-1, 0, 0, -2, -1, -1, -2, -1
1503957359242,-2, -6, -3, 0, -1, -1, -1, 1
1503957359265,-1, -1, -3, -2, -2, -2, 1, -1
1503957359282,0, 3, 0, 0, 0, -1, -2, -2
1503957359302,-2, -4, 1, 1, 0, 0, 2, -1
1503957359326,4, 2, 0, -2, -1, -3, 0, 1
1503957359341,-4, 0, -1, -2, -1, 2, -2, 0
1503957359363,0, 2, 4, 2, 0, -1, -2, -2
1503957359385,2, -2, -1, -4, -2, -1, 1, 1
1503957359401,-2, 0, 0, 0, -1, -2, -1, 0
1503957359423,0, 1, -1, 0, 0, 1, -1, 0
1503957359445,-1, 0, -3, 0, 0, -3, -1, -2
1503957359468,-5, -5, -1, -2, -2, 0, -1, -3
1503957359483,1, -1, -2, -1, -3, 0, -2, 0
1503957359505,-2, -2, -2, 0, -1, -1, 0, -1
1503957359527,-2, 0, 0, -3, -2, -2, 0, -3
1503957359542,1, -1, 0, -2, 1, -1, 0, 2
1503957359565,-1, -1, 0, 0, 0, -1, -1, 0
1503957359588,-1, -2, -1, 0, 0, 0, -1, -3
1503957359603,0, -2, -4, -2, 0, -2, -2, 0
1503957359626,1, 2, -1, 0, -2, -2, 0, 0
1503957359649,3, -2, -2, -1, 0, 1, 1, 1
1503957359662,-2, -1, -2, -1, -1, 0, -2, -2
1503957359685,-1, 3, 1, 2, -2, -1, -4, 0
1503957359707,-1, -2, -3, -1, -2, -2, -2, -2
1503957359714,10, 4, -2, -2, -1, -1, -3, 1
1503957359737,-4, -3, 0, -1, 1, -2, -1, -1
1503957359755,-1, -4, -5, -3, -1, 0, -1, 0
1503957359774,-2, -1, -1, -1, -3, -1, -1, -2
1503957359797,-4, -6, -3, -2, 1, 0, 0, -2
1503957359812,0, 5, 1, 1, -1, 0, -2, -1
1503957359834,-4, -5, 0, -1, -1, -2, -3, 0
1503957359857,-4, -1, 1, -2, -1, 0, -1, -2
1503957359873,0, -1, -1, -1, -1, 0, -1, 0
1503957359895,-3, 0, -1, -1, 1, -1, 0, -1
1503957359919,-1, -2, 2, -1, -1, -1, -1, -2
1503957359932,-1, -1, -1, -1, 0, 1, -2, -1
1503957359956,1, 7, 2, 0, -3, -2, -3, 2
1503957359977,-2, -1, -1, -1, 1, -1, 0, -3
1503957359993,-4, -5, -2, -2, -3, -2, 1, 0
1503957360015,-3, -1, 1, 0, 0, 0, 0, 0
1503957360037,2, -2, -1, -1, -1, -1, -1, -1
1503957360054,-1, -3, -2, -1, -1, -2, -1, -2
1503957360075,2, -5, -3, -3, -2, 0, -1, 1
1503957360097,0, 1, -1, 0, 0, -1, -1, -2
1503957360112,-2, -4, -2, 0, 0, 0, -1, 0
1503957360135,-3, 0, -1, 0, -1, 0, 0, -2
1503957360158,2, -1, 0, -1, 0, -1, -1, 1
1503957360172,-2, 1, -3, 0, -1, -1, 0, -2
1503957360195,4, 3, 2, 0, 0, 2, 0, 0
1503957360217,10, 1, 1, -2, -1, -2, -1, 2
1503957360233,-6, -3, -3, 0, -2, 0, 0, -1
1503957360256,-4, -1, -2, -4, -2, -3, -4, -4
1503957360277,2, -1, -3, -2, -1, -1, -2, -1
1503957360292,13, 0, -4, -2, -1, -3, -2, -3
1503957360307,-3, -4, -1, -1, -2, -1, 0, -4
1503957360323,5, 2, 1, 0, 0, -1, 0, 2
1503957360345,3, -2, -6, -3, -2, 7, -1, -4
1503957360368,0, 2, 5, -2, -2, -7, -2, 0
1503957360391,10, 1, -1, -5, 0, 1, 1, 7
1503957360405,3, 4, 1, 1, 0, -2, -5, -5
1503957360428,-4, 4, 1, 1, 0, 1, 2, -4
1503957360450,1, -5, -5, -3, -5, -6, 1, 5
1503957360465,2, -3, -2, 2, 2, -1, 0, 6
1503957360488,8, 1, -1, -1, -4, 1, -2, 2
1503957360511,-10, -4, -1, -1, -2, -3, 0, -4
1503957360526,-6, 0, 0, -2, -3, -1, 1, -4
1503957360548,4, 4, 0, 0, -1, -3, 2, -10
1503957360570,0, 5, -1, 2, 2, 6, -26, 18
1503957360585,-11, -23, -6, -1, 3, 5, 24, 15
1503957360607,-1, 1, 1, -3, -3, 2, 7, -9
1503957360631,-5, -7, 1, 2, -2, -5, 3, -6
1503957360646,9, 8, 0, 1, 1, 1, -4, 6
1503957360668,2, -4, -1, -1, 3, 6, 0, -2
1503957360694,9, -16, -2, -3, -1, -4, 0, 26
1503957360712,15, 72, 14, 15, -1, -1, -10, -5
1503957360736,-5, -20, -9, -9, -4, -5, -9, -8
1503957360750,-12, -3, 0, 0, 4, -2, -4, 4
1503957360765,15, 2, -1, -3, -1, 14, 3, 3
1503957360789,-2, -1, -3, -4, -7, -11, -4, -18
1503957360810,-8, -10, 2, -2, -4, -3, 5, -27
1503957360825,-11, -21, -8, -9, 0, 0, 3, -3
1503957360847,1, -1, 1, 2, 2, -3, -3, 4
1503957360870,-3, 4, 3, 0, -4, -8, 6, 6
1503957360885,17, 14, -2, -1, 3, 3, -11, -5
1503957360907,-9, -18, 4, 1, 0, 0, 6, 7
1503957360930,-14, -1, 2, 2, 2, 2, -7, -22
1503957360945,2, -6, -8, 1, -1, -3, -3, -7
1503957360967,4, -21, -18, -10, -1, -2, -9, 21
1503957360991,-4, -2, 2, 1, 2, 1, 8, 3
1503957361005,9, 13, 5, 2, 0, 2, 1, 2
1503957361028,-24, 0, -1, -3, -2, 1, -1, -9
1503957361050,6, 4, 1, 0, -1, 0, -4, 3
1503957361066,5, 2, 4, 2, 3, 1, -1, 5
1503957361091,3, -8, -6, -7, -4, -2, -1, 12
1503957361110,0, 24, 1, 4, 0, -2, -3, -8
1503957361126,-3, -10, -5, -4, -3, -1, 4, 1
1503957361147,3, 4, 2, 3, 0, -1, 7, -2
1503957361170,-5, -4, 1, 1, -1, -3, 0, -1
1503957361185,0, -1, 3, 0, 0, 1, -2, -2
1503957361207,0, -3, 0, 0, -2, -2, 0, -6
1503957361230,-3, -1, -2, -3, -2, 0, -3, -5
1503957361245,-3, -1, -1, -2, -1, -1, -2, 10
1503957361267,14, -3, 3, 3, 1, 1, 0, 27
1503957361292,-1, -6, -3, 0, 1, 2, -2, -8
1503957361312,0, 1, -1, 0, -3, -1, -3, -8
1503957361328,-6, -2, 0, 0, 1, -1, 1, -4
1503957361351,-4, 1, -2, -4, 0, -1, -1, -5
1503957361372,-5, -1, 2, 2, 1, 3, 2, -9
1503957361387,-3, 0, -2, -2, -1, 4, 0, -1
1503957361410,2, 9, 3, 1, -3, -6, -2, -3
1503957361433,-15, -21, -6, -7, -3, -4, -5, -19
1503957361447,0, 6, 0, 0, -1, -1, 3, 4
1503957361470,-2, -13, -6, -3, -3, -3, 1, 2
1503957361493,0, 6, 1, 1, 0, 1, -3, 3
1503957361507,5, 4, 1, 0, -2, -2, -2, 0
1503957361530,-3, -2, -3, -2, -2, -3, -3, -1
1503957361552,0, 5, 0, -2, 0, -1, -2, -2
1503957361569,5, 4, 0, 1, -1, -1, 0, 2
1503957361590,0, 2, 4, 2, 2, 0, 1, 1
1503957361612,-2, -4, -5, -3, -3, -4, -5, -3
1503957361628,0, 1, 4, 2, -4, -15, -5, -3
1503957361650,0, 3, 1, 1, 7, 11, 0, -3
1503957361672,-2, -4, -3, -6, -5, -3, -7, -2
1503957361687,-9, -8, -3, -7, -6, -1, 2, -12
1503957361710,-3, -11, -3, 0, -2, -6, 5, 9
1503957361732,-33, -4, -2, 0, 4, 4, 2, -3
1503957361740,-15, 0, -7, -2, 3, 3, 7, 39
1503957361763,11, 2, 6, 8, 2, -3, -3, -8
1503957361786,1, -1, -3, 1, 1, -2, -10, -13
1503957361801,-20, -24, 5, 1, 1, 3, 13, -5
1503957361823,0, 7, -3, -4, -4, -4, -7, 4
1503957361846,-7, 2, -3, -8, -10, -5, -6, -23
1503957361861,-8, -8, 2, 1, 7, 5, -1, 2
1503957361868,25, 1, -4, 3, 5, 4, 7, 61
1503957361890,-6, 14, 7, 2, 0, 0, 2, -29
1503957361912,-14, -11, -4, -2, 0, -2, -10, -40
1503957361928,-1, -7, -3, -7, -5, 2, -1, -7
1503957361950,1, -4, -4, -5, 7, 9, -3, 11
1503957361973,-4, 0, -3, -1, 1, 0, -8, -18
1503957361988,16, 8, 0, 2, -1, 5, 6, 22
1503957362010,21, 7, 6, 6, 2, 1, 6, -8
1503957362033,-14, -10, -6, -5, -3, -5, 1, -9
1503957362047,-2, -6, -2, 2, 2, 2, -7, -14
1503957362071,-13, -4, 3, -1, -1, 0, 3, -6
1503957362093,-4, -2, -4, -2, -1, -3, 3, 4
1503957362107,-5, 4, -5, -1, -3, 1, -1, 25
1503957362123,-7, -27, -10, -8, 2, -3, 1, 16
1503957362145,4, 1, -1, -2, -1, -1, -3, -17
1503957362153,-1, -2, 1, 0, -3, 0, -1, 1
1503957362167,6, 7, 4, 3, 2, -1, 2, 9
1503957362191,3, -3, 1, 0, 0, -3, 3, 0
1503957362212,-6, -6, -3, -1, -1, -1, -9, -9
1503957362235,4, 6, 2, 0, -2, -1, 2, 14
1503957362250,-6, -6, -1, -2, -3, -4, -1, -2
1503957362272,-2, -2, -2, -1, -4, -2, -2, -3
1503957362297,-4, -8, -5, -3, -2, 0, -4, -4
1503957362310,4, 8, 2, 0, -2, 2, 1, 12
1503957362333,4, 1, 1, 0, -1, 0, -4, -6
1503957362355,-4, -4, -2, -2, -2, 1, 2, 8
1503957362370,-10, -8, -5, -3, -2, 0, -2, -9
1503957362393,-7, 5, -1, -2, -4, -3, -1, -5
1503957362415,0, -3, -2, 0, 1, -2, 0, -1
1503957362432,3, 4, 5, 2, 5, 5, 1, 3
1503957362452,2, -2, -2, 0, -2, -4, -1, -1
1503957362475,15, 7, 1, 1, 0, -2, -1, 2
1503957362490,-6, 20, 7, 3, 0, 0, 1, 2
1503957362512,-3, -11, -6, -2, -4, -1, -1, -2
1503957362536,-4, -6, -4, -2, -3, -2, 0, 0
1503957362550,-4, -5, -5, -2, 0, 0, -1, -1
1503957362573,-2, -8, -5, 1, -1, -1, -3, -3
1503957362595,-2, -3, 0, -1, -1, -1, 0, -2
1503957362610,1, 0, 1, -1, 2, 0, 2, 2
1503957362632,-5, -2, -3, 2, 1, -2, -2, -1
1503957362641,-1, 2, 3, -2, 0, -1, -1, 2
1503957362666,3, 6, 6, 2, 1, 1, -1, -1
1503957362686,-1, 0, -4, -1, -2, -2, -2, -3
1503957362706,5, 6, -6, -5, -3, -1, -2, -1
1503957362723,3, -13, -4, -2, -3, -2, 5, 13
1503957362746,-16, 1, 1, -3, 0, 1, -6, -6
1503957362761,6, -4, 1, -2, -2, -2, -1, -3
1503957362783,14, 6, 2, 6, 2, -1, 1, 0
1503957362805,-18, -16, -4, -3, 0, 1, 2, -1
1503957362828,1, 0, 1, -2, -2, 1, 0, 5
1503957362850,1, -5, -3, -1, -1, -1, -4, -5
1503957362868,-20, -7, 0, 4, 2, -2, -2, -16
1503957362880,9, 2, -2, 1, 0, -1, 0, 7
1503957362903,0, 12, 0, -2, 0, 0, 0, -3
1503957362926,-5, -8, -8, -6, -2, -1, -1, -2
1503957362940,-5, 0, 0, 0, -1, -1, -5, -10
1503957362963,-2, -2, 1, -1, -2, -1, 0, 3
1503957362986,2, -13, -6, -1, -1, -1, 2, 0
1503957363002,6, 3, 0, -5, -3, -3, -2, -1
1503957363023,-14, -10, -5, 1, -5, -1, -3, -26
1503957363046,5, -2, -7, -2, 2, 0, -3, 21
1503957363061,0, 6, 8, 3, 2, 0, -1, -1
1503957363083,0, -6, -2, -2, -2, -2, -5, -8
1503957363105,-3, -8, 2, -2, -1, -2, 2, 41
1503957363120,3, 0, 1, 0, 1, 2, 0, 124
1503957363144,3, 11, 2, 2, 4, 4, 7, -101
1503957363166,2, 0, 5, 2, 0, -2, 2, 45
1503957363187,5, 5, 2, -1, 0, 1, -1, -63
1503957363204,5, 3, -2, 1, 4, 3, -2, -45
1503957363225,-5, 1, -2, -1, 1, -2, -1, -23
1503957363247,-1, -3, -7, -4, -5, -3, -4, -78
1503957363263,-3, -9, -3, -2, -2, -1, 4, -115
1503957363285,-4, -2, 3, -2, -5, -4, -7, 127
1503957363307,-2, 1, 0, -1, -2, -1, -2, 107
1503957363323,2, 5, -4, -6, -4, 1, 4, 4
1503957363346,-7, -4, 1, 0, -1, -2, 6, -6
1503957363369,-13, 0, -2, 6, 12, 15, 0, -15
1503957363383,4, 0, -1, 16, 5, 2, -3, -6
1503957363406,2, 3, 4, -4, 3, 1, 3, 2
1503957363428,4, 13, 1, 2, 1, -2, 3, 2
1503957363443,10, -5, -5, -10, -12, -11, -2, 0
1503957363465,-2, 0, 1, -4, -6, -5, -9, -7
1503957363487,-10, -3, -3, -1, -3, -2, -7, -4
1503957363504,-4, -6, -2, -5, -1, -1, -2, -6
1503957363525,2, -3, 1, 0, -1, -2, 0, -2
1503957363547,0, -1, 0, 0, -1, -2, -1, -5
1503957363563,2, 0, 0, -1, -2, -3, -3, -1
1503957363585,-18, -6, -4, -2, 0, -1, 1, -6
1503957363593,-9, -4, 2, 1, 1, 0, 0, 0
1503957363615,-5, -6, 1, 1, 0, 7, 3, -1
1503957363638,-6, -6, -1, -1, -1, 0, -2, -2
1503957363652,7, -3, -1, -2, 2, -2, -1, 4
1503957363675,-7, -8, -7, -4, -2, -3, -3, -2
1503957363697,-3, 2, 2, 1, 0, -1, 0, -3
1503957363712,3, 0, -2, -2, -1, 0, -1, -2
1503957363736,1, 2, -1, -1, 0, 0, 2, -5
1503957363757,0, 1, 2, 5, 1, 0, -2, 5
1503957363780,4, 1, 2, 1, -1, -4, -3, 3
1503957363788,-2, -4, -4, -4, -1, -1, -2, -1
1503957363807,-4, -4, -1, -1, 2, 1, -1, -4
1503957363825,-3, 0, -1, -2, -3, -1, 0, -1
1503957363847,2, 12, 3, 5, 1, 0, -2, 3
1503957363855,-1, -13, -5, -4, 1, -4, -2, 12
1503957363878,-1, -4, -3, -2, 0, -2, -2, -1
1503957363892,1, 3, 0, -2, -1, 0, 0, -7
1503957363915,-5, -1, -2, -4, -1, 0, 0, -3
1503957363939,-2, 0, 0, 1, 0, -2, -2, 2
1503957363952,2, 2, 1, 0, -1, 0, -2, -1
1503957363976,-2, -4, -2, -1, 0, 0, 1, -3
1503957363997,-4, -3, -2, -2, -2, 0, -1, -2
1503957364013,2, 0, 0, 1, 0, -3, -1, 0
1503957364046,-2, -1, 0, 0, -2, -3, -1, -1
1503957364073,0, 0, 1, 0, 0, 0, -2, -1
1503957364094,0, -1, 0, -2, 0, -1, 0, 0
1503957364117,1, 0, -4, -1, -1, 0, -4, -1
1503957364125,-7, 1, 4, 1, -1, 2, -4, 1
1503957364148,-2, -2, -2, -2, -1, -2, 1, 1
1503957364170,-2, -9, -4, -2, -1, -1, 0, -1
1503957364185,8, 0, -3, -2, -1, -2, 0, 1
1503957364207,-5, -2, -1, -2, 1, -1, 0, 0
1503957364230,-2, 0, 2, 0, -1, 0, 0, -1
1503957364246,2, 4, 0, 0, -1, 0, -1, -3
1503957364267,2, 3, 0, -2, -1, 0, 0, 1
1503957364290,-2, 0, 1, 1, 0, -2, -2, -1
1503957364307,0, 2, 0, 1, -1, 0, -1, 1
1503957364328,-8, -5, -2, 1, 0, -2, -1, -2
1503957364350,0, -3, -2, -2, -3, 0, -1, -1
1503957364358,-5, -3, 1, -1, -1, -1, -2, -2
1503957364380,0, -13, -4, -3, 0, 0, -3, 0
1503957364395,-2, -3, -1, -1, 0, -2, 2, 1
1503957364417,-5, 0, -1, -1, -2, -1, -2, -3
1503957364426,-1, 4, 3, -1, -1, -2, -1, -1
1503957364442,0, 6, 0, 0, 0, -1, -2, -1
1503957364455,4, 6, 2, -1, -2, 0, 1, 4
1503957364478,4, 3, 0, 1, -1, -2, 0, 2
1503957364499,-1, -5, -6, -3, -3, -2, -3, -2
1503957364515,-2, -1, 2, -1, 0, -1, 0, -1
1503957364537,-1, 2, 2, 1, 1, 0, 0, -2
1503957364559,-4, 0, -2, -2, 0, -1, -1, -2
1503957364576,-2, -5, -1, -3, 0, -1, 0, -2
1503957364597,-3, 1, 2, 1, 0, 2, 0, -1
1503957364606,-4, -8, -4, -1, -2, -1, -1, 0
1503957364628,5, 1, 0, 1, 0, 0, 0, 0
1503957364652,-5, -2, 0, -2, 0, 0, -1, -2
1503957364666,1, 1, 1, -1, -1, -1, 0, 1
1503957364687,2, -4, -2, -2, 0, 0, 1, -3
1503957364716,2, -1, 1, -1, 2, 0, 0, 0
1503957364726,-5, 0, 0, 0, 0, 1, -1, -1
1503957364748,-4, -3, -1, -2, -1, 1, -2, -2
1503957364770,1, -3, -3, -2, -1, -2, -2, -1
1503957364786,-1, -6, 1, 0, -2, -2, 2, 1
1503957364810,3, 1, 2, 1, 0, 0, -1, 0
1503957364830,5, 2, -1, 0, -1, -1, -1, 0
1503957364845,-1, -2, -4, -1, -1, -2, 0, 0
1503957364867,0, -2, -4, -2, -1, -3, 0, -1
1503957364890,-1, 1, 2, -2, -4, 0, -1, 0
1503957364905,-1, 3, 0, 0, -1, 1, 0, 3
1503957364927,1, 6, 0, 1, -1, -1, -2, 1
1503957364950,-3, -2, -2, -2, -1, -1, -1, -1
1503957364965,-2, -5, -6, -2, -1, 0, -2, -4
1503957364987,-3, -3, 1, 0, 0, -1, -1, -1
1503957365011,-1, 2, 0, 2, -1, -2, -1, -3
1503957365032,5, 15, 5, 2, -1, 1, 0, 0
1503957365048,-2, -6, 1, 0, 1, -2, -1, -1
1503957365070,-4, -3, -2, -3, 0, -1, -1, -1
1503957365092,0, -1, 0, 1, -2, 0, 0, -2
1503957365107,4, 4, -1, -2, 0, -2, -2, 0
1503957365130,-1, -10, -5, -3, -1, -1, -1, -2
1503957365152,-5, -8, -3, -2, -1, -1, 0, -5
1503957365167,1, 8, -2, -1, -1, 0, -2, 0
1503957365190,-3, -1, 0, 0, -2, -1, 0, -1
1503957365213,-5, -3, -1, -2, 0, -1, -2, -3
1503957365227,0, -6, -5, -2, -3, -3, -4, -1
1503957365250,2, 6, 3, 1, 0, -1, 0, 1
1503957365272,-3, -2, 1, -1, -1, 0, 0, -3
1503957365287,-1, -5, -1, -2, 2, 0, -1, -4
1503957365312,2, -1, -2, -2, -2, 0, -1, 3
1503957365332,-3, -2, -2, -1, -1, 0, -2, 0
1503957365348,0, -6, -3, -2, -1, 0, -1, -1
1503957365363,3, 11, 5, 3, 0, 1, -2, 1
1503957365384,1, 5, -1, -1, 0, -2, -1, -3
1503957365392,13, 3, 2, 2, 1, -2, 0, 3
1503957365408,-4, -2, -1, -1, -1, 0, -1, -3
1503957365422,-1, -2, -3, -2, 0, 0, 1, -3
1503957365437,-2, -1, 0, -1, 0, -2, 0, 0
1503957365459,-2, 1, 0, -1, -1, -2, 0, -1
1503957365482,2, -7, -3, -1, -1, 0, 0, -1
1503957365497,-1, -2, -2, -2, -1, -1, -2, -1
1503957365519,-2, 1, 1, 0, -1, 0, -1, -1
1503957365542,0, -2, -4, -1, 0, -1, 0, -1
1503957365557,-3, -3, -5, -2, 1, 0, -1, -2
1503957365580,3, 5, 2, 1, -2, -2, 2, 1
1503957365602,-1, -2, 2, 0, -1, -1, 0, -1
1503957365622,0, 1, -3, -1, -1, 1, -3, 2
1503957365632,-1, -4, -2, -2, 1, 0, 0, -1
1503957365647,-2, -4, 0, -2, -3, 0, 2, 1
1503957365670,-2, -1, 0, -1, -1, -1, -1, 0
1503957365692,0, -4, -1, -1, -2, -1, -1, 0
1503957365707,1, 9, 6, 2, 2, 0, 1, 0
1503957365723,-3, 0, 2, -3, 0, 0, 0, -2
1503957365737,-3, 0, -1, -1, -1, -2, -1, -2
1503957365759,-1, 1, -3, -2, -2, 0, 0, 2
1503957365782,-2, -3, -2, 1, -1, 0, -2, 0
1503957365797,0, 1, 0, 0, 0, 0, 0, -1
1503957365819,0, -3, -5, -4, -3, -1, -3, -3
1503957365842,-7, -13, -7, -6, -2, -1, -2, -2
1503957365857,0, 7, 1, 1, 0, 0, -4, 1
1503957365882,1, 1, 3, 1, 0, 1, -1, 1
1503957365902,0, 2, 4, 3, 1, 1, 0, 0
1503957365917,2, 2, 0, -1, -1, 1, 0, -2
1503957365939,0, 0, 1, 0, 0, -1, 1, 0
1503957365961,-2, -1, 2, 0, 1, 0, 0, 0
1503957365984,-2, -7, -4, -1, 0, -1, 1, -3
1503957365999,-1, -1, -2, -1, -1, 0, -1, -1
1503957366022,0, 4, 0, 0, -1, -1, -2, 1
1503957366044,-1, -3, -2, -2, -1, 0, 0, -2
1503957366059,0, -1, -4, -1, -1, 0, -2, -1
1503957366084,-1, 9, 6, 4, 0, 0, -1, 0
1503957366104,-3, -1, -2, -3, -1, -1, -1, -1
1503957366121,-2, -4, -1, 0, 0, 0, -1, -1
1503957366141,1, -3, -3, -1, -1, -2, -2, -1
1503957366164,6, 1, -1, -2, -1, -1, 1, 1
1503957366179,-2, 0, -1, -2, -3, -1, 0, -2
1503957366201,-3, -1, -3, -2, -1, 0, -1, 0
1503957366225,-2, -1, 0, 0, -1, -3, -2, -1
1503957366239,-1, 1, -2, -1, -2, 0, -1, -2
1503957366262,-3, -1, 2, 1, -1, -1, 1, 0
1503957366285,-1, -5, 1, 1, 0, 1, -1, 1
1503957366299,1, 1, -3, 0, -2, -1, -4, -1
1503957366322,-1, -1, -2, -1, 0, -1, -1, -1
1503957366344,0, -1, -1, -1, 1, 0, -1, 0
1503957366359,-3, -5, -1, -3, -1, -1, 1, -1
1503957366381,-3, -7, 1, -1, 0, 0, 0, 0
1503957366404,-1, 2, 2, 0, 1, 1, 0, -2
1503957366419,-1, 0, -4, -1, -1, -2, -2, -1
1503957366443,0, 2, 2, 1, 0, -1, -1, -1
1503957366465,-2, -4, -4, -1, -1, -2, -3, -1
1503957366489,-2, -1, -1, -1, -2, -1, 0, -1
1503957366503,-2, -5, -1, -1, -1, 0, 0, -1
1503957366526,4, 0, 1, 0, 0, 0, 0, -2
1503957366548,-1, 1, -2, -2, -2, -1, -2, -2
1503957366563,-1, -1, -1, -2, -1, 1, 0, 2
1503957366594,-1, 2, 2, 0, 0, -3, 0, 0
1503957366608,-1, 0, -1, -2, 0, -2, -1, -2
1503957366623,0, -2, -3, 0, -1, -1, -1, 0
1503957366645,-1, -2, -1, 0, -1, -1, 0, 0
1503957366668,-4, -5, -4, -3, -2, 0, 1, -2
1503957366690,0, -1, -1, -1, -1, -1, -1, 1
1503957366705,0, -3, -2, 0, -1, 0, -3, -1
1503957366728,0, 2, 0, 1, -2, 0, 0, -2
1503957366743,0, 1, -2, -1, -1, 0, -1, 0
1503957366765,0, 0, 0, 0, 1, -1, 0, -1
1503957366788,1, -4, -4, -1, -1, 0, 0, 1
1503957366803,1, 1, -2, 0, -2, -1, -2, -1
1503957366825,-2, 0, 1, -1, 0, 0, 1, 1
1503957366848,-2, 0, -1, -1, 1, 0, -1, -2
1503957366863,-2, 1, 1, 0, -1, -1, -2, -3
1503957366887,1, -3, -1, -2, -3, -1, -2, -1
1503957366908,0, -2, -2, 1, -2, 1, -3, -1
1503957366923,-1, -4, 1, 2, 0, -1, -1, -1
1503957366945,-2, -2, 0, 0, 0, -2, 1, -2
1503957366968,0, 0, -1, 0, -1, 0, -1, 0
1503957366983,1, 1, 1, -2, 0, -1, 1, 0
1503957367005,-1, 4, 1, -3, 0, -1, -1, 1
1503957367029,-2, -1, -1, -1, -2, 0, -1, -3
1503957367043,1, 7, 3, -1, 0, -2, 0, 0
1503957367067,-4, -2, -2, -3, 0, 0, 0, -2
1503957367089,-1, 1, -2, 0, -2, -2, -1, -1
1503957367103,1, -1, -2, 0, 1, 0, -1, -1
1503957367126,0, 1, 0, -2, -3, 0, 0, -2
1503957367132,0, 1, 2, 3, 0, -2, -1, -1
1503957367155,0, 1, -2, -3, 0, -2, -1, 0
1503957367177,-6, -7, -4, -3, -1, -1, 1, -2
1503957367192,0, 11, -1, -1, -1, -2, -1, -1
1503957367215,0, -5, 1, -1, -1, 1, -1, 0
1503957367237,0, -2, -2, -1, 0, 0, -2, -1
1503957367252,0, -1, 0, -2, 0, 0, -2, 0
1503957367275,-1, -1, 0, 0, -2, 0, -1, 0
1503957367297,-2, -5, -3, -1, -2, -2, -3, -2
1503957367312,1, -2, 0, -1, -1, -1, 1, -1
1503957367335,-1, -1, -2, 0, -1, 0, -2, -2
1503957367357,-2, -5, -2, -2, 0, -2, 0, 0
1503957367372,0, 8, 1, 2, 1, 1, -1, 0
1503957367395,1, -1, 0, -2, -2, -1, -1, 0
1503957367417,-2, -3, -1, -2, -1, 0, -1, 0
1503957367432,1, 0, 0, -1, 0, 0, 1, -1
1503957367456,-3, -4, -1, -1, -2, -1, 0, -1
1503957367477,0, -3, 1, 2, 0, -1, 0, 0
1503957367492,-2, -1, -1, -2, -1, 0, -1, -2
1503957367515,-1, 3, -3, -1, -1, 0, -3, -1
1503957367537,-2, -5, -2, -1, -1, -2, 0, 1
1503957367552,1, 0, 1, 0, 0, 1, 1, -2
1503957367575,-1, -3, -1, 1, -1, 0, 0, -1
1503957367598,1, 6, 0, 0, -2, 0, -1, -2
1503957367612,-1, -2, -1, -2, 0, -1, 0, 0
1503957367635,1, 1, -1, 0, 0, 0, 0, -1
1503957367657,-1, -2, -2, -2, -3, -1, -1, -1
1503957367672,-3, 0, -2, -1, 0, -2, 0, -1
1503957367695,-1, 1, 1, -1, -1, 0, -2, -1
1503957367717,-4, -8, -4, -2, -2, -2, 0, -1
1503957367733,-3, -6, -4, -2, -1, 0, -2, -1
1503957367755,1, 3, 3, 1, 1, 0, -1, 0
1503957367777,1, -2, -3, -1, 1, -1, -1, 0
1503957367793,-1, -3, -1, 1, 0, 0, -1, -2
1503957367815,1, 0, 1, -1, -2, 0, -1, -1
1503957367837,-3, -1, 1, -1, -1, 0, 1, -1
1503957367860,1, 6, 0, 0, -2, -1, 0, 0
1503957367875,-1, 0, 1, 0, -1, -1, -2, -1
1503957367898,0, -1, -1, -2, -2, 0, 0, -1
1503957367920,-2, -6, -6, -2, 0, -2, -1, 0
1503957367936,-2, 1, 2, 0, 0, -1, -1, -2
1503957367959,0, -1, 0, 1, 0, -1, 1, 0
1503957367980,0, 2, 0, -1, 0, 0, -1, 0
1503957367995,0, 0, 1, 1, 0, 0, -1, -1
1503957368017,0, -2, -3, -2, -1, -1, -2, 0
1503957368040,-1, -2, 0, -1, -2, 0, 0, -1
1503957368055,-2, -4, -3, -2, -1, -1, -1, -1
1503957368077,-2, 0, 0, -2, -2, -3, -1, 0
1503957368100,-3, -5, -2, -1, 0, -2, -2, 0
1503957368115,1, 2, 0, -1, 0, 0, 1, -1
1503957368137,1, 0, -1, -1, -2, -1, -2, -1
1503957368160,-1, -1, -2, -2, -1, -1, -1, -1
1503957368168,2, 6, 0, -2, -2, 0, -2, -1
1503957368190,-1, -6, -4, 1, -1, 0, -1, -2
1503957368205,-6, -12, -4, -4, -1, -2, -1, -1
1503957368230,-1, 3, 2, 0, -1, -1, -2, -1
1503957368250,-3, -2, -2, -2, -1, -1, 0, -2
1503957368265,0, 3, 3, 0, -1, -1, -2, -1
1503957368288,-2, 1, 1, -2, -1, -1, 0, 0
1503957368310,-1, 3, -2, -1, 1, 0, -1, -3
1503957368328,1, 4, 2, 1, 0, -1, -1, 0
1503957368352,1, 1, 1, 0, -1, 0, -2, 0
1503957368370,0, -3, -1, 0, -2, -1, -1, 0
1503957368385,0, -1, -1, 0, -1, -1, 0, 1
1503957368408,-2, -1, -1, -2, 0, 0, -1, -2
1503957368430,2, 7, 0, -2, -2, 1, -2, -1
1503957368445,-2, 0, 1, 1, 0, -1, 0, -1
1503957368468,-1, -4, -3, 0, -1, 0, 0, -2
1503957368490,-3, -3, -3, -1, -3, -3, -2, -1
1503957368505,0, -2, -2, -1, -2, -1, -1, -1
1503957368535,-2, 2, 1, 0, -1, -1, 2, 1
1503957368557,-2, -2, 0, -1, 0, 0, 0, -2
1503957368580,1, 2, -1, -2, -3, -2, -2, 0
1503957368595,-1, -1, 0, -1, 0, -2, -1, -1
1503957368617,-1, -4, -4, -2, 0, 2, 0, 0
1503957368640,0, -3, -1, -1, -1, -1, -1, -3
1503957368655,-1, -2, -2, -1, -1, -1, 0, 0
1503957368677,-1, 1, 0, 1, -1, -1, -1, 0
1503957368700,-1, -2, -2, -1, -1, -1, -2, 0
1503957368714,-3, -2, 1, -1, -1, -2, -1, 0
1503957368737,3, 3, -3, -2, -1, 0, 0, -1
1503957368760,-3, -3, 2, -1, -1, -2, 0, -1
1503957368781,-1, -4, -2, -1, -1, -1, -1, -2
1503957368797,-1, 1, -1, -1, 0, -1, -1, 0
1503957368820,-2, -1, -2, -1, 0, 0, -3, 0
1503957368841,0, -2, -2, 0, -2, -2, 0, 0
1503957368857,-5, -1, -1, 0, 0, 0, -1, -1
1503957368879,1, 8, 3, 1, 0, -1, 0, 1
1503957368901,-3, -4, -2, -1, -2, -1, -2, -2
1503957368917,-6, -2, 2, 2, -2, 0, -2, -2
1503957368940,0, 0, -3, -2, -4, -9, 0, -2
1503957368967,3, 0, 0, 10, -3, -16, -4, 3
1503957368977,2, -6, -4, 0, 3, 9, -1, 2
1503957369000,6, 2, -2, -3, -1, 2, 0, 5
1503957369022,-5, -3, -1, -2, 3, -1, 3, 4
1503957369037,7, 4, 0, -4, -3, 1, -3, -2
1503957369060,-4, -2, 1, -2, -1, -1, -1, -7
1503957369082,-3, -2, -4, -2, 2, 4, -3, -7
1503957369097,-1, -5, -2, -1, -1, -2, -1, 3
1503957369112,3, 11, 0, 1, 0, 0, 0, -3
1503957369128,3, -3, -3, 0, 0, 1, 1, 2
1503957369149,0, 4, -1, -2, 0, 0, -1, 3
1503957369173,-4, -8, -1, -4, -3, 0, 1, -1
1503957369189,-17, -10, -1, 0, 5, 6, -1, -2
1503957369217,9, 1, -1, 0, -1, 0, -2, 1
1503957369233,-5, -3, -2, -4, -2, -3, -3, -2
1503957369248,2, -1, -3, 0, -3, -3, -3, -4
1503957369270,10, 6, 2, 0, -3, -3, -5, -4
1503957369292,3, 6, -2, 0, -2, -3, 0, 5
1503957369308,-56, -28, -3, -4, 3, 5, 7, -9
1503957369332,16, 4, -2, 3, 1, 1, -10, -5
1503957369352,8, 6, 5, 6, 0, -8, 4, 8
1503957369368,-7, -15, 2, 4, -2, -6, 10, 11
1503957369390,-8, -15, -8, -7, 0, 3, -3, -15
1503957369412,27, 11, -10, -2, -2, 1, -5, 2
1503957369428,1, -10, -4, -5, -5, -3, -2, 6
1503957369450,2, 12, 7, 0, -1, -2, -4, -4
1503957369472,1, 3, -2, 0, 2, 3, -2, -4
1503957369488,-1, -5, 2, -1, 1, 3, 3, 13
1503957369510,-15, 7, 0, -4, -2, -1, -3, -16
1503957369533,-4, 1, -1, 0, -5, -6, 0, 6
1503957369548,-1, 4, 3, -1, 0, -4, 3, 11
1503957369572,6, 2, -1, 3, 3, 2, -2, -4
1503957369592,-3, -3, -5, -2, -2, 4, 2, -19
1503957369609,2, -7, -2, -2, -3, -5, -6, -2
1503957369630,1, -4, 0, -2, 3, 5, -3, 9
1503957369652,6, -4, 0, 1, -1, -3, -3, -11
1503957369668,-4, -2, 3, 3, 1, 5, 0, -5
1503957369690,3, 5, -1, -8, -12, -10, -1, 3
1503957369712,-11, -6, -4, -2, -3, 0, 4, -4
1503957369735,2, -24, -9, -6, -1, -3, 2, -4
1503957369750,23, 85, 27, 27, 10, 8, -3, 8
1503957369772,-6, -10, -6, -5, -4, -1, -4, -5
1503957369795,-7, -15, -1, -2, 1, -2, -3, 2
1503957369811,2, -3, -5, -5, -5, -2, 3, 4
1503957369833,-4, -3, 0, -2, -2, -6, -2, -6
1503957369855,-7, -16, -8, -9, 0, -1, 0, -5
1503957369871,30, 16, 2, 0, -1, 0, -5, -12
1503957369892,-9, -14, 0, -1, -1, -2, 2, 2
1503957369915,5, 12, 8, 6, 1, 2, 1, 5
1503957369930,-3, -7, -3, -2, -1, 0, 0, 6
1503957369952,-9, -9, -5, -3, -1, 2, 1, 0
1503957369975,-13, -4, -2, -2, 1, 2, 2, 12
1503957369990,-1, -1, -2, -3, -2, 1, 1, -1
1503957370012,-3, 6, 7, 1, 0, -2, -3, -3
1503957370037,-4, -5, -4, -2, 0, -3, 1, -3
1503957370050,-5, -6, -2, -2, -1, -1, -1, -10
1503957370072,1, -6, -5, -3, -2, -3, -2, 3
1503957370095,5, 3, -2, -2, -1, -3, -2, -3
1503957370111,0, -2, -3, -2, -3, -3, -1, 0
1503957370132,-7, 0, 0, 1, 1, 2, 1, 10
1503957370155,-3, -6, -1, 0, -1, -1, -6, -10
1503957370172,1, -2, 0, 0, 0, 1, -1, -3
1503957370193,-2, -3, -1, -3, 0, -1, -1, 4
1503957370215,-6, -9, -5, -3, -4, -1, -4, -4
1503957370230,11, 4, -4, -4, -2, 1, -4, 0
1503957370244,5, -3, -2, -2, -2, -1, -2, -6
1503957370260,1, -14, -1, -5, 0, -1, -1, 1
1503957370282,-1, 0, 2, 0, -1, -3, -1, -3
1503957370304,3, -2, -2, 0, -1, 0, 0, -2
1503957370320,4, 0, -1, -1, -4, -2, -1, -1
1503957370343,0, 1, -3, 0, 0, -1, -3, 5
1503957370364,11, 8, 3, 1, 3, -2, -2, 1
1503957370381,2, 3, -1, 1, -1, -1, 0, 5
1503957370404,-1, -6, -3, -3, -2, 1, 1, -7
1503957370424,-1, 0, -1, -4, -3, 0, -1, -1
1503957370440,6, 3, 1, 2, 0, -1, -4, -2
1503957370462,0, 25, 7, 3, 3, 1, 0, 3
1503957370484,3, -2, -1, 1, 1, 0, 1, 2
1503957370499,-3, -6, -6, -4, -4, -2, 0, -3
1503957370522,-4, -6, -5, -2, -2, -1, -4, -3
1503957370544,1, -5, -3, -3, -4, -1, -3, -8
1503957370559,6, -3, -3, 1, -1, -1, -1, 2
1503957370582,6, -9, -2, 0, 0, 0, 1, -1
1503957370606,-9, 1, -2, -2, 0, -2, -3, -9
1503957370626,-1, -4, -2, -2, -1, -1, -1, -2
1503957370635,-1, -1, -1, -3, -3, -2, -4, -1
1503957370657,2, 11, 0, 0, -1, 0, -2, -8
1503957370673,-1, -5, -6, -1, 1, 0, 0, -8
1503957370696,-7, -6, 0, 0, -2, -1, 3, 7
1503957370718,-11, -12, 1, -2, -1, 0, 0, 0
1503957370732,2, -10, -4, -2, 1, -2, -6, -5
1503957370755,10, 9, -1, 0, 1, -1, -2, 1
1503957370777,-5, 2, -2, 1, 2, 1, -4, -6
1503957370792,-1, 1, 2, -1, -2, -1, -1, 0
1503957370815,1, 2, 3, 1, -2, -3, 1, 5
1503957370839,-9, -14, -6, -5, -3, -2, -2, -2
1503957370852,-6, 0, 0, 3, 0, 2, -3, -11
1503957370875,6, 4, -1, 0, 5, 6, 1, 4
1503957370897,6, 7, 2, 0, 0, 0, 2, -5
1503957370912,1, 7, 1, -3, -3, -4, -5, 4
1503957370935,-5, 0, 1, 0, -3, 0, 3, 9
1503957370957,-3, 14, -4, -2, -2, -2, -3, -10
1503957370974,1, 0, 0, 2, 0, 1, 1, 1
1503957370987,-3, 5, 1, 0, 2, 1, 0, 5
1503957371002,6, -2, -3, -2, -2, -3, -2, -10
1503957371024,-6, -2, -2, -2, -1, 1, 1, 6
1503957371047,-2, -3, 1, -1, -1, -1, -1, -5
1503957371062,1, 1, -1, -2, -2, 0, -2, -14
1503957371084,-5, -5, -2, 0, -2, 1, 0, -1
1503957371109,-5, 2, -3, -1, 1, -1, -2, 7
1503957371122,-1, 0, 2, 0, 1, -1, -3, -9
1503957371144,-2, -3, -2, -2, -2, -1, 0, 4
1503957371166,2, -1, -1, -2, 1, -2, 0, -3
1503957371183,-2, 0, -1, 2, 0, 0, -1, 9
1503957371204,-5, -5, -1, 0, -3, -1, 2, 9
1503957371227,7, 0, 0, -2, 1, 0, 3, 11
1503957371243,-1, 0, -2, -6, -3, -1, 0, 7
1503957371264,1, 2, 1, -1, -2, -2, -1, -23
1503957371286,-5, -4, -4, -2, -2, -1, -5, -4
1503957371295,6, 1, 2, 3, -1, -1, 3, 11
1503957371317,-9, -2, -5, -4, -8, 3, 8, -41
1503957371332,5, 6, 15, 4, 0, 1, -5, 7
1503957371355,-2, -18, -12, 4, 3, -3, 9, 14
1503957371378,-4, -20, -7, -6, -2, -6, -4, 10
1503957371392,-9, 6, -1, -2, 1, 0, -3, 13
1503957371415,-45, -9, -4, -3, 1, -5, -7, -23
1503957371437,12, 11, 2, 0, -1, 2, 4, 0
1503957371453,2, 4, 0, -1, 1, 1, 0, 1
1503957371477,8, 10, 8, 5, 0, 0, -4, 4
1503957371497,3, 1, 0, 1, 0, 1, 0, 0
1503957371514,9, 1, -5, -2, -1, 0, -1, 3
1503957371527,-10, -3, 1, 1, 0, 0, -1, 1
1503957371546,3, 1, -4, -7, -3, -3, -2, 1
1503957371564,1, 1, 2, 11, 0, -1, -3, 1
1503957371587,-3, 2, 2, -2, -1, 0, -2, -6
1503957371615,-2, -11, -6, -3, 3, 1, 1, 8
1503957371625,2, -2, 2, -1, -2, -1, -2, -12
1503957371648,53, 10, -2, -2, -5, -1, -1, 30
1503957371670,-70, -28, -10, -7, -1, -5, -3, -37
1503957371692,1, 8, 4, 1, -2, 0, 0, 0
1503957371707,13, 17, 5, -2, -2, 0, 1, 8
1503957371715,25, 1, 0, 7, 11, 2, 0, 21
1503957371737,15, 0, -1, 0, -3, -1, 0, 13
1503957371766,-21, -4, -3, 1, -1, -2, -9, -38
1503957371782,-6, 0, 1, 3, 4, 3, 5, 11
1503957371797,0, 3, 2, 7, 1, 2, -5, 4
1503957371820,36, 10, 1, -2, -4, -4, 5, 31
1503957371834,-11, 12, 4, 1, -3, -2, -1, -9
1503957371857,-6, -9, -6, -4, -3, -1, 2, 6
1503957371880,-7, -5, -5, -4, 1, -2, -3, -3
1503957371894,6, -1, -1, -3, -2, 0, -2, -2
1503957371917,-14, -5, -2, -4, -3, -3, -3, -8
1503957371939,1, -1, -1, -3, -3, 0, -2, -1
1503957371955,-4, -4, 5, 1, -4, 0, -2, -22
1503957371979,-29, -18, -8, 3, 2, -2, -4, -27
1503957371999,12, 4, 1, -2, -1, 0, 3, 13
1503957372014,4, 5, -1, -2, -1, -2, 0, 11
1503957372037,4, -2, -3, -8, -3, -3, -1, 1
1503957372059,12, 2, 0, 0, -4, 1, 0, 9
1503957372074,-7, 5, 2, 1, 0, -3, 3, 1
1503957372097,0, 3, 0, 2, 0, -1, -2, 0
1503957372120,-1, -2, -3, -2, -1, 1, -1, 0
1503957372128,4, 0, -3, -3, -1, 1, 0, 0
1503957372151,5, 0, 1, -2, -1, 2, -1, 1
1503957372172,-9, 2, -1, 3, -3, -2, 0, 5
1503957372188,18, 0, -2, 0, 0, -1, 1, 5
1503957372215,-5, -5, -2, -1, 0, 1, 0, -3
1503957372225,-16, -3, -3, -1, -1, -2, -3, -9
1503957372248,15, 2, 0, -3, -1, 0, -2, 5
1503957372270,-8, -4, 1, 0, 1, -1, -1, -4
1503957372285,44, 14, 5, -1, -5, -1, -3, -2
1503957372307,-14, -4, -1, -2, -2, -1, -3, -8
1503957372330,-13, -2, 2, 10, 5, 1, -3, 0
1503957372347,0, -4, -5, -6, -3, -3, 1, 6
1503957372360,-10, -10, -5, -1, -1, 4, -4, 0
1503957372374,-4, -4, -1, -2, -1, 0, -1, 1
1503957372397,-36, -20, -7, -3, 0, -5, -1, -11
1503957372420,8, 5, 0, -2, -1, 1, 0, 1
1503957372434,9, 2, 3, 1, 0, -1, 2, 12
1503957372457,-9, -4, -3, -1, -2, -2, -2, -7
1503957372481,30, 6, 1, -1, 0, 0, 4, 39
1503957372502,6, 0, 1, 3, 0, -1, -1, -4
1503957372517,-6, -2, -1, 2, 1, 0, -1, -4
1503957372539,1, -6, -5, -5, 2, -1, 0, 4
1503957372562,-9, 9, 10, 5, -4, -2, -3, -15
1503957372577,-16, -15, -8, -4, 0, -3, -6, -20
1503957372599,5, -1, -4, -3, -3, -7, 0, 1
1503957372622,0, 6, 1, 0, -2, 2, 1, 0
1503957372637,2, -1, -2, -2, -4, 1, -1, -6
1503957372660,6, 2, -1, -1, -1, -1, 0, 4
1503957372683,-3, -4, -2, 0, 3, 12, 4, 4
1503957372697,-3, -3, -4, -2, -1, -4, -1, 0
1503957372720,-4, 0, -1, -1, 1, -1, 0, -3
1503957372742,0, 1, -1, -2, 0, -1, -2, -4
1503957372758,-13, -9, -4, -1, -3, -3, -2, -2
1503957372779,4, 1, -1, 0, 0, -1, -2, 1
1503957372802,4, 8, 0, 1, 1, 1, -2, 2
1503957372817,4, 7, 4, -1, -1, -3, 0, -12
1503957372839,-5, -8, -2, -2, -1, -1, 1, 16
1503957372851,0, 1, 0, -2, -1, 0, 0, -8
1503957372870,-2, -5, -3, -3, -1, -3, -1, 2
1503957372893,-22, -5, -2, -1, -3, 0, -1, -9
1503957372907,7, 4, 6, 1, -1, 0, 2, 4
1503957372944,-2, 1, -1, 2, 1, 1, 3, 1
1503957372952,1, -10, -4, -3, 0, -1, -3, -9
1503957372968,2, 0, -5, -3, 0, -2, -3, -9
1503957372990,-14, -4, -4, -1, -1, 1, -1, 0
1503957373013,2, -18, -13, -6, -3, -2, -3, 2
1503957373028,3, 8, 4, 3, 0, -2, -2, -1
1503957373057,6, 4, 1, 1, 0, -1, 2, 7
1503957373073,-2, -1, 2, 0, 1, -3, 1, -3
1503957373087,-2, -2, -3, -4, 0, -1, 1, 2
1503957373102,-5, -1, -4, -1, -1, 0, -2, -3
1503957373118,0, -1, -2, -1, -2, 0, -2, -3
1503957373139,-4, 0, -1, -2, -1, -2, 0, -2
1503957373162,-1, 13, 7, 1, -1, -3, 0, -2
1503957373179,-3, -1, -1, -1, -1, 0, 0, 0
1503957373199,0, -1, 0, 0, 0, 0, 0, -2
1503957373224,-1, -12, -6, -4, -1, -1, 0, 0
1503957373237,0, -3, 1, 0, 1, -1, -1, 0
1503957373260,0, 0, -1, -1, 0, 0, -2, -2
1503957373282,-2, -4, -2, -1, -1, -1, -1, -1
1503957373297,-1, 3, 5, 0, -1, -1, 1, 0
1503957373320,-2, 2, 0, -1, 0, -1, -2, -1
1503957373342,0, -5, -3, -1, -2, -3, 1, 0
1503957373358,-2, -8, -3, -2, -1, -1, 0, 3
1503957373380,1, 3, 0, 0, -1, -1, -2, 1
1503957373402,1, 3, 2, 1, -1, 1, 0, -1
1503957373426,-2, 0, -1, -1, 0, 0, -2, -1
1503957373439,1, -3, -4, -1, -1, -3, -1, 2
1503957373462,-5, -10, -1, -2, 1, -1, -1, -3
1503957373487,4, 15, 0, 5, -3, -1, -5, -1
1503957373499,-4, -4, -2, -2, 0, -2, -1, -2
1503957373522,-3, -5, -1, -2, -2, 1, 1, -2
1503957373544,-2, 1, 1, 0, -1, 0, -2, -2
1503957373560,-4, 0, 0, -1, -1, -2, -3, -12
1503957373582,2, 0, -2, -1, -1, -1, 2, 7
1503957373604,2, 0, -3, 0, 0, -1, -2, -1
1503957373624,0, 0, 0, -2, 1, 1, -1, 0
1503957373642,0, -2, -2, -2, -1, 0, 2, 1
1503957373664,0, 0, 1, -1, 0, -3, 0, 1
1503957373679,1, 1, 0, -1, -1, 1, 0, 0
1503957373702,4, 3, 1, 0, 1, -1, 3, 2
1503957373724,-3, -5, -4, 0, 0, 0, -2, -1
1503957373739,-2, -1, 0, 0, -2, -2, -3, 0
1503957373763,-1, -1, 0, -1, -1, 0, -1, -2
1503957373784,-2, -1, -1, -1, -2, -2, -1, -1
1503957373799,-2, -1, 0, -2, -2, 0, -1, 0
1503957373826,-2, -1, 2, 2, 0, -1, 0, -2
1503957373844,1, 3, 1, 1, 0, 1, 0, 0
1503957373859,2, 2, 0, -2, -1, 1, 0, 0
1503957373882,-1, 0, -3, -1, 0, -1, -3, -2
1503957373905,-5, -4, -4, -1, -2, -3, 1, -2
1503957373921,-1, -1, -1, -3, -1, -1, 0, 1
1503957373942,-1, 0, -1, -1, -1, 0, -2, 0
1503957373965,-2, 0, 2, 1, -2, -1, -2, -3
1503957373979,0, -4, -2, 0, -2, 0, 0, 1
1503957374002,-1, -1, -4, -2, 1, 1, -3, -5
1503957374028,1, 0, -1, -2, 0, -1, 0, 1
1503957374039,-7, -6, -4, -3, -1, -2, -4, -8
1503957374062,1, 0, 0, 0, -1, -3, -1, 0
1503957374085,-6, -6, 1, 1, -3, 0, 0, 1
1503957374099,-5, -3, -2, -2, -1, -2, -1, 1
1503957374123,-1, -1, -2, -1, 1, -1, -2, -2
1503957374144,2, -1, -1, -3, -1, 0, -2, -2
1503957374160,-5, -1, 1, 0, -1, 0, 2, -3
1503957374182,-2, 0, -2, -3, -2, -1, 0, 0
1503957374204,0, 4, 0, 0, -1, 1, -1, 1
1503957374213,1, 1, -1, -2, -2, -3, -1, 3
1503957374234,1, 0, -1, 0, -1, 1, -4, -4
1503957374250,-2, -3, 1, 0, 0, -1, 2, 1
1503957374272,-5, -2, -1, -2, 0, 0, -1, -4
1503957374294,2, 4, 4, 3, 1, -2, 1, 5
1503957374310,1, 0, -3, -2, 0, 0, -3, -2
1503957374339,1, 0, -2, 0, -2, -1, 0, 2
1503957374358,-1, -7, -4, -1, 0, 0, 2, 7
1503957374377,0, -5, -2, -1, -1, -1, 3, 1
1503957374393,1, -1, -2, -2, -4, 2, 0, 0
1503957374415,0, 4, 0, -1, 0, -7, -8, -9
1503957374437,1, 1, 0, -1, -2, 2, 1, 0
1503957374452,-1, 2, 1, 0, -1, 1, 0, -2
1503957374474,-4, 1, -1, 0, -1, -1, -1, 2
1503957374497,-8, -1, -2, 1, -1, -13, -6, -2
1503957374512,-4, 1, 3, 1, 0, 1, 1, -1
1503957374534,8, 4, -4, -2, 9, 19, -4, -2
1503957374560,-6, -2, -1, -4, -2, 1, -4, -8
1503957374572,0, -2, 1, -2, -2, -4, 5, 3
1503957374595,2, -2, -1, 0, -2, 2, 2, 8
1503957374617,1, 3, 1, 1, 3, 7, 0, -10
1503957374634,0, -7, -2, -1, -6, -3, 5, 2
1503957374654,3, 2, -1, 0, -3, -6, -6, -1
1503957374677,6, 3, 3, 0, 0, 1, 7, 16
1503957374693,-6, -6, -4, -2, -3, -1, 3, 1
1503957374714,-3, 15, 1, 1, -1, -2, -9, -16
1503957374737,-2, -7, -2, -4, -8, -23, 5, -4
1503957374753,-20, -8, -1, 6, 3, 6, 6, 3
1503957374775,2, -2, -1, -2, -1, 2, 1, 25
1503957374797,14, -3, 0, -2, -3, 0, 1, -2
1503957374805,1, 1, 2, -3, -3, -4, 4, -1
1503957374827,-2, 1, 2, 2, -1, 0, 13, 13
1503957374835,-7, -8, -3, -5, -3, -7, 3, 4
1503957374842,5, 4, 0, -1, -6, 12, 5, 7
1503957374865,-7, 5, 0, -3, -2, -2, 1, -13
1503957374886,23, 10, 1, 1, -1, -6, 1, 10
1503957374903,-11, 1, 2, 2, 3, -2, 3, 0
1503957374927,8, -7, -6, -3, -1, 0, 0, 10
1503957374946,1, 5, 2, 2, 0, -3, 0, 2
1503957374963,1, 2, 1, 1, 1, -3, -2, 1
1503957374984,-21, -38, -14, -4, 0, 0, 1, -15
1503957375006,31, 20, 8, 1, 2, 1, -4, 13
1503957375022,-8, -1, -2, -4, -1, -7, -1, 1
1503957375044,-9, -4, -2, -1, 0, 4, 0, -2
1503957375067,-6, -2, 2, 3, -2, -4, -1, -5
1503957375082,2, 2, -2, -3, 0, -2, -1, 8
1503957375105,15, 13, 2, 2, 1, 0, 2, 11
1503957375128,4, 0, -2, -3, -4, -9, -7, -3
1503957375142,-10, 0, 4, 4, 1, 3, 3, -19
1503957375165,-13, -10, -1, -4, -2, -4, -3, -20
1503957375186,-22, 18, 8, 7, -1, -3, -3, -16
1503957375203,-9, -39, -14, -6, -4, -4, -4, 4
1503957375224,3, -10, -3, -5, 2, 3, 3, 5
1503957375246,3, 10, -2, -2, -1, 3, -3, -4
1503957375263,6, 8, -2, -4, 2, 16, 3, 19
1503957375285,3, -1, 2, 0, -2, -1, 0, -8
1503957375306,11, 17, 7, 5, 0, -4, 1, 13
1503957375331,-8, -16, -7, -1, -1, -1, 5, 9
1503957375344,14, 10, -3, -3, 0, -4, -2, 0
1503957375367,-5, 0, -1, -3, -1, -4, -1, -9
1503957375389,-8, -8, -3, 0, 0, 1, -2, 0
1503957375398,-14, -7, -4, 0, -1, -2, -5, -4
1503957375420,0, 0, -1, -1, -5, -9, -1, 3
1503957375435,-16, -6, -4, -5, 0, -1, -1, -7
1503957375457,3, 2, 0, 0, -1, 0, -3, -6
1503957375479,-18, -7, -3, 1, 1, -3, 0, 3
1503957375496,7, 1, -1, -1, -2, 0, -1, 2
1503957375517,3, -4, -3, -2, -2, -1, -3, -4
1503957375540,14, 11, 1, 0, 2, 1, 3, 8
1503957375554,-6, -1, -1, -2, -1, -2, -3, -14
1503957375577,2, 2, 0, -2, -2, 1, -2, -1
1503957375606,5, -5, 0, -2, -3, -2, -2, 2
1503957375622,7, 13, 2, 0, 0, 2, -3, 1
1503957375638,-6, -8, 1, -1, 2, 0, 3, -5
1503957375645,2, 3, -2, -2, -2, 0, -1, -8
1503957375667,3, -3, 1, 0, 0, 1, 0, -5
1503957375689,-4, 1, -1, 0, -2, -1, -2, -1
1503957375706,-2, -2, -2, -1, -1, -2, -6, -5
1503957375727,1, 1, 1, -1, 0, 2, 2, 1
1503957375749,-9, -12, -3, -2, -1, -2, 2, -1
1503957375765,10, 3, -2, 0, 3, 1, 1, -1
1503957375786,4, 7, 0, 0, -2, -1, -2, 1
1503957375809,-4, -3, 0, -2, -1, -2, 1, -1
1503957375825,-2, 0, -1, 1, 1, -1, -2, -1
1503957375846,-2, 4, 3, 1, 0, -4, -1, -8
1503957375871,-1, 2, 0, 0, -1, 1, 0, 0
1503957375885,0, -1, 1, -1, -1, 0, 0, 3
1503957375907,-9, -4, -2, -1, -1, 1, -1, -2
1503957375932,3, -3, -2, -2, -1, -2, -2, -2
1503957375938,3, -8, 1, -2, -1, -1, -2, -2
1503957375959,-1, 4, -3, -1, -1, 0, -2, -1
1503957375975,-5, -1, 1, 1, -2, -2, 1, -2
1503957376000,-3, -1, -1, -4, -3, -2, -1, -2
1503957376019,1, 5, 3, 1, 1, -1, 1, 3
1503957376035,7, -3, -2, -1, 1, -1, 3, -3
1503957376057,-3, 0, -2, 0, 1, 0, -3, -1
1503957376080,-1, -2, -2, -2, -1, 0, -1, 0
1503957376095,-2, -2, -1, 1, 0, -1, -1, -1
1503957376117,-4, -1, 0, -1, -3, -1, 1, 0
1503957376139,-2, -7, -4, 1, -1, 0, -3, 1
1503957376155,-3, 8, 4, 2, -2, 0, -1, -6
1503957376177,3, 3, 1, -1, -2, 0, 1, 0
1503957376201,0, -2, -1, 4, 2, -1, 0, 1
1503957376222,7, 2, 0, 0, 0, -2, -2, -1
1503957376238,8, 1, 1, -1, 0, 1, 0, 3
1503957376259,-5, -2, 2, 0, 0, 0, 1, 0
1503957376282,-3, -1, -5, -4, 0, 0, 0, 2
1503957376297,-4, -3, -5, -4, -4, -2, -3, -5
1503957376319,-4, -8, -5, -4, -4, -3, -4, -2
1503957376343,0, -4, -2, -4, -1, -1, -2, -2
1503957376358,1, 4, 0, 0, -1, 0, -1, -1
1503957376380,-4, -1, 0, -1, -2, -1, 3, 1
1503957376402,-1, -1, -1, -2, 0, -2, -1, -3
1503957376417,0, 1, 4, 1, 1, -1, 1, 2
1503957376440,1, 4, 2, 0, -1, -2, -2, 2
1503957376462,9, 16, 1, 1, 0, 0, -2, 5
1503957376477,-5, -10, -4, -4, -2, -1, 2, -1
1503957376501,-1, 0, -1, 0, -4, -7, -3, -14
1503957376507,-8, -3, -1, -2, -3, -3, 1, -10
1503957376529,5, 3, 8, 6, 4, 3, 4, 4
1503957376551,1, 2, 0, 1, 2, 1, -4, -2
1503957376568,-1, -14, -5, -4, -4, 0, -1, -1
1503957376589,-6, -11, -7, -5, -3, -4, 0, 3
1503957376611,10, 2, 0, 4, 1, 0, -2, 4
1503957376627,-4, -15, -7, -3, 0, 0, -4, -9
1503957376649,-5, 0, 1, 1, 0, -1, 2, 2
1503957376672,-1, 6, 0, -4, -2, -2, -3, 21
1503957376680,1, -2, -1, -5, -6, -5, -7, 124
1503957376703,1, -1, -2, 3, 6, 6, -3, -61
1503957376717,3, 3, -1, 2, 5, 0, 0, -123
1503957376740,9, 0, 0, 0, 5, 0, 6, -124
1503957376762,-28, -17, -4, -6, -9, -5, -6, 114
1503957376778,6, 4, 0, -4, -6, -2, -1, 103
1503957376799,-1, 3, -2, -3, 0, -3, -2, -1
1503957376822,-1, 0, -4, -2, -1, 0, -5, 15
1503957376838,3, 3, -2, -1, -3, -1, 1, -2
1503957376859,3, 1, -1, -2, -2, -2, 3, -17
1503957376882,7, 0, -1, -2, 1, 6, 0, -8
1503957376898,-2, -2, -1, -1, 1, -2, -4, -7
1503957376919,6, 5, -1, 1, 1, 0, -3, 9
1503957376942,8, 3, 2, 3, 2, -1, 4, 4
1503957376957,-12, -8, -1, -4, -2, -1, 1, -9
1503957376980,1, 3, 0, -2, -5, -4, -4, 1
1503957377006,-2, -3, -1, -1, -1, -2, -1, -3
1503957377017,-14, -2, 0, 1, -4, 1, 1, -4
1503957377040,-4, -3, -4, -3, -3, -3, -5, -18
1503957377062,2, -3, 0, 0, 4, 1, -1, -2
1503957377078,-3, -4, -1, -3, -2, -7, 0, -10
1503957377099,3, 0, -2, 0, -2, 1, 1, 6
1503957377122,-1, -5, -4, -1, 1, -1, 2, 0
1503957377138,37, 6, 0, 0, 1, 1, 3, 9
1503957377152,-1, -7, -1, -5, -1, 1, -1, 3
1503957377178,4, -3, -2, -3, -3, -1, -2, -1
1503957377190,5, -5, -3, 0, 1, -1, -5, -5
1503957377213,9, 3, -1, -1, -1, -1, 1, 5
1503957377235,-2, -10, -4, -1, 2, -3, 0, -1
1503957377251,4, 1, 0, -1, 0, 0, 0, 0
1503957377275,5, 0, 0, 1, -1, 0, 0, 2
1503957377295,6, -3, 2, 2, 3, -2, -4, 1
1503957377312,-16, -3, -2, -5, -2, -3, -1, -1
1503957377332,4, 1, 1, -1, 0, 1, 0, 0
1503957377355,0, 0, -4, -1, -3, -1, 1, -2
1503957377374,4, 8, -1, 1, 0, 3, 2, 6
1503957377392,-2, -3, 0, 0, 0, -1, -2, -1
1503957377415,-32, -11, -3, 1, 0, -1, -4, -9
1503957377438,5, -2, 0, -1, -2, 0, 1, 4
1503957377452,0, -3, -1, -3, -1, -2, -1, -8
1503957377475,4, -1, -1, -2, -1, -1, -1, -3
1503957377490,3, 0, 0, -1, -1, 0, 1, 2
1503957377512,6, -3, -3, -1, -3, -2, 1, 2
1503957377535,-1, -3, -1, -4, -1, -1, 0, 2
1503957377550,5, 4, 2, 2, -1, 0, -3, -3
1503957377574,-3, 0, 2, -1, 1, 1, -1, 0
1503957377595,-2, -4, -3, -3, -1, -3, -3, -2
1503957377610,9, 1, -2, 0, 0, -3, 0, -2
1503957377632,1, 0, -2, -1, -1, 0, 0, -2
1503957377655,1, 2, -2, 0, -3, -1, -1, -1
1503957377677,0, 0, 1, -2, -1, -2, -2, 3
1503957377692,-6, -6, -3, 0, -2, -1, 1, 3
1503957377716,2, 0, 0, 0, 0, 0, 0, 1
1503957377737,-17, -3, -1, 1, 0, -1, 0, -4
1503957377752,3, 1, 2, 0, 0, -2, 0, 0
1503957377778,3, 1, -1, 0, -1, 2, -1, 1
1503957377790,-1, -1, -1, -2, -2, -2, -1, -3
1503957377813,0, -8, 0, 3, 2, 2, 1, 1
1503957377835,-1, -3, 0, -1, -3, 0, 0, -2
1503957377851,3, 3, 2, 0, -1, 0, -1, -2
1503957377877,0, 0, -5, -3, -3, -3, -2, -1
1503957377895,-2, 1, -1, 0, -1, -2, 0, -2
1503957377914,-1, -1, -3, -1, 0, -2, -3, -2
1503957377925,0, -3, -2, -2, -1, 0, 0, -2
1503957377941,-2, -1, -2, -2, 0, -1, 0, 0
1503957377962,0, 0, 0, -3, -1, -2, -2, -1
1503957377985,-5, -2, -4, 0, 0, -2, 1, -5
1503957377999,2, -2, -2, -4, -4, 0, -1, 6
1503957378022,2, 1, 0, 0, -1, 1, 0, 1
1503957378044,0, -3, -1, -1, -1, 0, 0, 0
1503957378052,-1, -4, -4, -2, 0, -1, 0, 0
1503957378059,-1, -5, -3, -1, -2, -1, -1, -3
1503957378082,-2, 0, -2, -1, -2, -2, -2, -1
1503957378104,3, 1, 1, -1, 2, -1, -2, -6
1503957378127,-2, 0, 1, 0, -1, 0, 1, 1
1503957378143,-1, -1, 0, 0, -1, -1, -1, -2
1503957378172,-1, 0, -3, -2, -1, 0, 0, 0
1503957378187,0, -2, 0, -1, -1, 0, -3, -1
1503957378202,-2, -5, -5, 0, -1, -3, -3, 0
1503957378224,-1, 2, 0, -3, 1, 0, 0, 0
1503957378248,0, -2, 0, -1, 0, -1, 0, -1
1503957378262,-1, -2, -2, -2, -1, -1, -2, 0
1503957378284,1, 1, 1, -1, -1, -1, 0, 0
1503957378308,0, 1, 1, 0, 0, 0, -2, -1
1503957378354,-1, 1, -3, -2, -1, -2, -2, -1
1503957378360,-2, -1, -3, -2, -1, -1, -2, 1
1503957378367,-2, -1, -1, -1, -1, 0, -1, -1
1503957378389,1, 0, -1, 0, -1, -2, -1, 0
1503957378404,0, -1, -1, 0, -1, -2, 0, 0
1503957378427,0, -1, 1, 1, -2, 1, -1, 0
1503957378444,-1, -5, -1, 0, -2, 0, 0, -3
1503957378464,-1, 4, 2, 0, 0, 0, 0, -1
1503957378473,-1, 0, 0, 0, 1, 0, 0, -2
1503957378495,0, -1, -1, -2, -1, -1, 0, -1
1503957378518,-2, -5, -4, -3, 0, -3, -1, -1
1503957378532,-1, -2, -1, 1, 0, 0, -3, -2
1503957378555,0, -1, 1, 0, -1, 0, -1, -2
1503957378578,-1, -3, -2, -3, -1, -1, -2, -1
1503957378592,0, -2, -2, -2, 0, -1, -1, -2
1503957378616,-1, -1, 0, -1, -2, -1, -1, -1
1503957378638,-4, -4, -1, 1, -1, -1, 0, -2
1503957378653,-2, -2, -2, 0, -1, -1, -2, -1
1503957378675,2, 8, 2, 2, -1, 0, -1, 1
1503957378683,-2, -6, -2, -3, 0, -4, -1, 0
1503957378704,-3, 0, -1, 3, 0, 1, 1, -3
1503957378727,2, -6, -4, -4, -1, -2, -2, 0
1503957378742,2, -1, 1, 1, -2, -2, 0, 1
1503957378764,-2, 5, 2, -1, -2, -2, 1, -2
1503957378774,2, -2, -1, 1, -2, 2, 1, 1
