1503698678327,2, 2, -1, 0, -2, 0, 1, 5
1503698678349,0, 0, -4, 0, -2, -2, -1, 0
1503698678364,-3, -5, -3, -2, -1, -1, -2, -7
1503698678380,1, 0, -2, -1, -1, 1, 0, -1
1503698678395,1, 0, -2, -1, -2, -2, -2, 1
1503698678417,1, 0, 1, -2, -2, -1, 0, 2
1503698678439,-2, -2, -1, 0, -1, 0, -2, -3
1503698678455,2, -1, -2, -1, 0, -3, -1, 3
1503698678477,0, -2, 1, -1, -1, 0, -3, 0
1503698678499,-4, -2, -1, -1, 1, -2, 1, -2
1503698678516,-1, -3, -2, 1, -2, 1, 0, -3
1503698678537,2, -1, -1, -1, -1, -2, -2, -1
1503698678560,0, 1, 0, -1, -1, 1, -1, 2
1503698678575,-5, -2, -1, -1, 0, -2, -2, -4
1503698678597,-3, 0, -2, 1, -1, 1, 0, -3
1503698678620,-2, -1, -2, 0, -1, 0, -2, -4
1503698678635,0, 0, -1, -2, -1, -2, 0, 4
1503698678663,2, 2, 0, -2, -1, -3, 1, 2
1503698678679,2, -1, 0, 0, -2, 1, 0, 0
1503698678695,3, 1, 1, 0, -1, 0, -1, 3
1503698678717,-2, 0, -3, -2, 1, -2, -1, -1
1503698678739,-3, 0, -1, -1, -1, 0, -1, -2
1503698678755,1, -1, -1, -2, -1, -1, 0, -2
1503698678777,1, -1, -3, -1, 0, 1, 1, 1
1503698678799,-5, -2, -1, -1, -3, 0, -3, -8
1503698678815,0, -1, 0, 0, -1, -1, 0, 0
1503698678837,-1, 1, 0, 0, -1, -3, -2, 0
1503698678861,-1, -2, 1, -1, -3, -2, -1, 0
1503698678875,0, -2, 0, 0, 0, -1, -1, 0
1503698678897,1, 1, -2, -1, 2, -1, 0, -2
1503698678919,-1, -2, -2, -1, 0, -1, -1, 0
1503698678935,1, 1, 1, -3, -1, -1, -1, -2
1503698678957,-1, -1, -1, 1, 0, 0, 0, 0
1503698678979,0, -1, -1, -3, -1, 0, -1, -2
1503698678996,0, 0, 0, 0, 0, -1, -1, 0
1503698679017,-2, -2, -2, -1, -3, -1, -1, -2
1503698679039,-3, -3, -2, -2, -2, 0, -3, -5
1503698679063,0, 1, -1, 0, 1, -1, -1, 2
1503698679076,-1, -2, 1, -1, 0, 0, -1, -4
1503698679091,-1, 0, -2, 1, -1, -1, 0, 0
1503698679107,2, 3, -1, 0, 1, 1, 0, 2
1503698679130,-1, -3, 0, -1, -1, 0, -2, -3
1503698679151,0, 0, -3, 0, -2, -1, 1, -1
1503698679167,-4, -4, -1, -2, -2, -1, -2, -3
1503698679182,0, -1, 0, 1, 0, 0, 1, 2
1503698679211,-2, 1, -1, 0, 0, -1, -1, 0
1503698679227,-1, 0, 0, 0, 0, -3, 2, 2
1503698679248,2, 0, 0, -2, -1, 0, 0, 0
1503698679271,0, 0, 0, 0, -1, 0, -1, -2
1503698679286,-1, 0, -1, -2, -2, 0, -1, -2
1503698679309,-1, 1, -1, -2, -2, 1, -1, -2
1503698679317,2, -2, -1, -2, -1, -1, 0, 1
1503698679340,-1, -2, -1, -3, 0, -1, -3, -3
1503698679347,-2, -1, -3, -2, 0, -1, -3, -1
1503698679369,-2, -1, -2, -1, -1, -1, 0, 4
1503698679391,1, -2, 0, -2, -2, -1, 0, 2
1503698679407,0, 0, 0, 2, 0, -3, -3, -4
1503698679428,-2, 0, -2, -3, -3, 1, -2, -7
1503698679451,4, -1, 0, 0, 0, 1, 1, 2
1503698679467,-2, -3, 0, 0, 0, -2, -1, -3
1503698679496,-2, 0, 0, 1, 0, 0, 0, 1
1503698679511,0, -1, 1, 0, 0, 0, -2, -4
1503698679527,-3, -1, 0, -1, -1, -2, -2, -4
1503698679549,1, 0, -3, -1, 1, 0, 1, 2
1503698679571,0, -2, 0, 1, -2, -2, -2, 1
1503698679587,-1, -2, 0, -2, 0, 0, 1, 4
1503698679610,0, 1, -3, -2, -1, 0, 0, -1
1503698679618,-3, 0, -3, -2, -2, -2, -2, -3
1503698679641,1, 1, 0, 0, -3, -2, -1, -1
1503698679662,1, -2, -1, -2, -1, -1, 1, 5
1503698679677,-1, -1, 1, -1, -2, -1, 1, -2
1503698679701,0, -1, -2, -1, -1, -1, -1, -1
1503698679721,-4, -2, -2, -1, 0, 1, -1, -2
1503698679728,-1, -1, -2, -1, -1, -2, -1, 0
1503698679751,-2, -2, -2, -2, -1, -1, -2, -2
1503698679768,-4, -2, 0, 0, -1, 0, -2, -2
1503698679788,1, 0, 0, 2, -1, 1, 1, 1
1503698679811,1, -2, 0, -1, 0, 0, 1, -1
1503698679827,-1, 0, 0, -3, -1, -2, -2, 0
1503698679849,-2, -2, -1, -1, -1, -2, -2, -4
1503698679871,-2, -1, -2, -1, -2, -1, -4, -5
1503698679887,-3, -3, -1, 0, -2, -2, -1, 0
1503698679909,2, 1, 0, 1, 0, 1, 0, 0
1503698679931,-2, -2, -2, 1, -1, -1, 0, -1
1503698679947,1, 1, 2, -1, -1, -1, 0, 1
1503698679969,-1, 1, -2, -2, 0, -2, 0, -1
1503698679991,0, -2, -1, 0, 0, -2, -2, -3
1503698680013,-2, -2, -1, -2, -1, -1, -1, 2
1503698680029,1, 1, 1, -3, 0, -1, -1, -2
1503698680051,2, -1, -3, 0, -1, -1, -1, -1
1503698680074,-2, 0, -2, -1, -2, 1, -1, -1
1503698680089,-1, -1, -2, -3, 0, -1, -1, -2
1503698680111,-1, 1, 1, -1, 0, -1, -1, -3
1503698680133,-3, -2, -1, -1, -1, -1, -2, -4
1503698680149,0, -1, -3, -1, 0, -2, -1, -1
1503698680171,2, 1, 0, -1, -2, -1, 0, 2
1503698680194,0, -1, -1, 0, -1, -2, -1, 4
1503698680210,0, -1, -2, -2, 1, -1, 1, -1
1503698680231,-1, 1, -2, 1, -2, -1, 0, -3
1503698680254,-2, -1, -2, 0, -1, 0, -1, -5
1503698680272,0, -1, 0, -1, -1, -1, 0, 3
1503698680291,1, -1, -2, -2, -3, -1, -2, 0
1503698680313,-3, -2, -1, -2, -1, -1, -2, -3
1503698680330,1, -1, 0, 0, 1, -1, -1, 3
1503698680351,-1, 0, 0, -1, 0, -2, 0, -2
1503698680375,-2, 0, -1, 0, -1, 2, -1, -1
1503698680389,0, -1, -1, 0, 0, -2, 1, 2
1503698680412,-1, -1, -1, 0, -2, -1, 1, -3
1503698680433,0, -1, 1, -1, -1, -1, -1, 0
1503698680449,-1, -1, -1, -1, -1, 1, -1, -2
1503698680479,-1, 1, -2, 0, -1, 0, -1, 2
1503698680494,-3, -2, 1, -2, 0, 0, -1, 3
1503698680509,-3, 0, -2, 0, -2, 0, 0, -1
1503698680531,1, 0, 0, -1, 0, 0, -1, 0
1503698680553,-1, -2, -1, 1, 0, -2, -2, -6
1503698680562,0, 0, -2, 0, 0, 0, 0, -1
1503698680584,1, -1, -2, -3, -1, 0, 0, -3
1503698680599,-5, 0, 0, 0, -1, -2, -1, 0
1503698680621,0, 0, 1, -1, 1, 1, -2, -3
1503698680645,-2, -1, -2, -3, -1, -2, -1, -1
1503698680659,-3, -1, -1, 1, 0, 0, -1, -3
1503698680682,0, 1, -1, 1, -1, -1, 1, -1
1503698680704,-1, -1, 1, -2, -1, -1, 0, -1
1503698680719,-1, -1, -1, -1, -2, -1, -1, 1
1503698680742,-3, -1, 0, -1, -1, -1, -1, -6
1503698680764,1, -1, 0, -3, -1, -1, 0, -3
1503698680780,1, -1, -2, 0, -1, 0, 0, -1
1503698680801,1, 0, -3, -1, -1, -1, -1, 2
1503698680824,-3, -1, 0, 0, -2, -1, -2, -1
1503698680839,0, -1, -1, -1, -2, -2, -1, 1
1503698680862,2, -1, -1, 0, 1, 0, 0, 4
1503698680885,-1, -2, -2, -1, -1, -1, 0, 3
1503698680899,1, 0, 0, 0, -1, -1, -1, -3
1503698680922,0, -1, 0, 0, 0, -1, -1, -1
1503698680944,1, 0, -3, -1, 0, -3, 1, 1
1503698680967,-2, -1, 0, -2, 0, 0, 0, -5
1503698680982,-2, -2, -1, -1, -1, -1, 1, 3
1503698681004,-1, -1, -1, 1, -1, -2, -4, -3
1503698681027,-1, 2, 0, -2, 0, 1, 1, 1
1503698681044,-2, -2, 0, 0, -2, 0, 0, 1
1503698681064,0, 0, -1, -2, 0, -2, -1, -2
1503698681087,0, 0, 1, 0, 0, -2, -2, 1
1503698681101,-2, 1, -3, -1, -2, -1, -1, -2
1503698681124,1, -1, -1, 0, 0, -1, -1, 1
1503698681146,-5, -1, -1, -1, 0, -1, -3, -9
1503698681154,-1, 3, 1, -1, -1, -1, -1, 3
1503698681178,-3, -2, -1, -1, -2, 0, -2, -3
1503698681192,-1, -1, 0, 0, 0, -1, -1, -3
1503698681214,2, 0, -3, 0, -1, -1, -2, 0
1503698681222,-2, -1, -2, 1, -1, -1, -1, -2
1503698681244,0, -1, -1, -2, 0, -1, -1, -1
1503698681267,1, 0, 1, 1, -2, -1, 2, 0
1503698681281,-1, -1, 1, 0, 0, -1, 0, 1
1503698681304,-3, -3, -2, -1, 2, -1, -1, -3
1503698681327,-1, -2, 0, -1, -1, -1, -1, -1
1503698681342,0, 3, -2, -1, 0, 0, -1, 1
1503698681364,-1, -2, 2, 0, 1, -1, -1, -4
1503698681387,0, 1, -2, -3, -1, -2, -3, -2
1503698681404,0, 1, 0, -2, -1, 0, -1, -2
1503698681424,1, -1, -1, 0, -3, 0, -1, 1
1503698681447,-4, -2, -2, -1, 0, 1, -1, 2
1503698681462,-2, -2, -3, -1, 0, -2, 1, -1
1503698681484,0, -2, 0, -2, -2, -1, 0, 1
1503698681507,1, -1, -2, -1, 0, -2, -2, -2
1503698681523,2, -1, 1, 0, -1, -1, 0, -1
1503698681548,1, 0, -1, -3, -1, 0, -2, -1
1503698681567,-1, -1, 0, 1, -2, -1, 2, -1
1503698681582,1, 1, -4, -1, -3, -2, -4, -4
1503698681605,1, -2, -2, 1, -1, 1, -2, 0
1503698681650,-4, -3, -1, -1, 0, -1, 0, 3
1503698681665,2, 1, -2, 1, -1, 0, -1, -1
1503698681687,-2, 1, -1, -1, 0, 0, 0, 0
1503698681703,-1, 0, 1, -2, -1, 0, -1, -3
1503698681724,-1, -1, -1, 1, -3, -1, -2, 2
1503698681748,3, -2, -2, -1, -1, 0, 2, 2
1503698681763,-3, -1, -3, -2, -1, -3, -3, -7
1503698681784,0, 0, -1, 1, -1, -1, 0, 3
1503698681806,-1, -2, -2, 0, 0, -1, 0, -1
1503698681822,-1, -2, 0, 0, 1, -1, 0, 1
1503698681844,-1, 1, -1, -2, 0, 1, 0, -1
1503698681866,0, -1, -3, -1, -1, 0, 0, 0
1503698681889,0, 0, 0, 1, 0, -3, -1, 0
1503698681904,0, -1, 1, 1, -2, -1, -1, -1
1503698681926,0, -2, 0, -1, -1, -1, 0, 1
1503698681934,-2, -2, -2, -2, 0, 0, 1, 2
1503698681957,-1, 2, 1, -1, -1, -1, 1, 0
1503698681979,0, -2, -1, -2, 0, -1, 0, 0
1503698681995,-3, -2, -2, -2, -1, 0, -2, -3
1503698682017,-1, 1, -2, 0, -3, -1, -1, -3
1503698682039,-2, -2, -1, 0, -1, -1, -3, -2
1503698682055,1, -1, -1, -1, -1, -1, 0, -2
1503698682077,-3, 1, -2, -1, -1, -1, -2, -2
1503698682099,0, 0, -1, 0, -1, 1, -3, 0
1503698682107,0, 0, -1, -1, 0, -1, 1, 0
1503698682129,-3, 0, -2, -2, -1, -1, -1, 1
1503698682144,-1, -2, -1, 1, -2, -2, -1, -3
1503698682166,-1, 0, 1, 0, 0, -2, 0, -2
1503698682175,2, 1, 0, -2, -2, -1, 0, 0
1503698682197,-3, 1, -3, -1, -2, 1, -1, -1
1503698682219,0, 0, 0, 0, -1, -1, 0, 1
1503698682234,2, -2, 0, -1, -3, 0, 0, 0
1503698682257,-4, -1, -3, -1, -1, -1, -2, -7
1503698682279,-1, -3, -1, -1, 0, -1, 1, 1
1503698682294,-1, -2, 1, -1, -1, 0, -2, -2
1503698682320,2, 0, -1, -1, -2, 0, 0, 1
1503698682339,0, 0, -2, -3, 0, -1, -2, 1
1503698682354,0, 0, 1, 1, -1, -1, 2, 1
1503698682377,-4, -2, -2, -1, 0, -1, -2, -5
1503698682399,-1, -2, 1, 1, 1, -1, -1, 0
1503698682415,0, 0, 1, -1, -1, -1, 0, -1
1503698682437,-2, -1, -2, 1, 0, -1, -1, 2
1503698682459,-1, -1, -3, -2, -2, 1, 0, -2
1503698682474,1, -1, -1, 0, 0, 0, -2, -1
1503698682497,-1, -2, 1, -2, -1, 0, 1, 1
1503698682520,-1, 2, -2, -1, 1, -2, -2, -4
1503698682527,0, 1, 0, -2, -2, 1, -2, 2
1503698682549,-5, -4, -3, 0, 0, -3, -2, -4
1503698682564,-1, 0, 1, -1, -2, -1, 0, 2
1503698682588,-1, 0, -2, -1, 0, 0, 0, -1
1503698682609,4, 0, -1, -1, -1, 0, -1, 4
1503698682624,-1, -3, -3, -2, 0, 0, -2, -2
1503698682646,0, 0, 1, 0, 0, 1, 1, -2
1503698682669,-1, -3, 0, -1, -1, 0, -1, -3
1503698682684,-3, 1, 0, 1, -2, -1, -1, -5
1503698682706,0, 0, 0, 1, 0, -2, 0, -2
1503698682729,-1, -2, -1, -1, 1, -1, -1, -4
1503698682744,-1, -1, -3, 0, -1, -1, -4, -2
1503698682766,-2, 1, 0, -1, 2, -1, -1, 2
1503698682789,0, -1, -1, 0, -2, 0, 1, 1
1503698682798,1, -1, 0, -2, 1, -1, -1, -1
1503698682819,0, 0, -1, -1, 0, -1, 1, 2
1503698682841,-4, 0, -1, -1, -3, -3, -3, -3
1503698682857,2, -1, 0, 1, 1, -1, 1, -2
1503698682879,-2, 0, 1, -2, -1, -1, -1, -3
1503698682901,2, -4, -1, 0, -1, 0, -1, 2
1503698682917,-3, 0, -3, 0, 0, -1, -1, -3
1503698682939,1, -1, -3, 1, -2, 1, 1, 3
1503698682962,-4, 1, 1, -2, -1, -1, -1, -2
1503698682977,-2, -1, -1, 0, -2, -2, -2, -3
1503698682999,0, -3, -2, 0, -1, 0, 0, 1
1503698683021,3, -2, -2, -1, -1, 0, -1, 2
1503698683037,-4, 0, 0, -3, 0, -1, -1, -2
1503698683059,3, 0, -1, 0, -1, -1, -2, 1
1503698683081,0, -1, 0, -1, -1, -2, -1, 0
1503698683097,1, 1, -1, -1, -1, -1, -1, -1
1503698683112,-2, 0, -1, 0, -1, -3, -2, -1
1503698683127,2, 1, -1, -2, -1, -1, -2, -1
1503698683149,2, -1, 0, 0, 0, 0, -1, -4
1503698683171,0, 1, 0, 0, 0, 0, -1, 1
1503698683186,-2, -2, -2, 0, 0, -1, -1, 0
1503698683209,0, 0, -1, -1, -1, -1, 1, -1
1503698683231,-3, -1, -2, -2, -1, -2, -1, -3
1503698683246,-1, 2, -1, -3, -1, 1, -1, 2
1503698683269,-3, -2, -1, 0, 0, -1, -1, -2
1503698683294,0, 1, -1, 1, -2, -2, 1, 0
1503698683307,0, -1, 2, -2, -1, -1, 0, -2
1503698683329,-3, -1, 0, 0, 0, 1, -2, -2
1503698683351,-1, -1, -3, -2, 0, -2, 0, 0
1503698683367,1, 0, -1, -1, 1, -1, 0, 2
1503698683389,1, -1, -3, -1, -1, 0, -1, -1
1503698683411,0, 0, 0, -1, -1, 1, -1, 3
1503698683429,0, -1, -1, -2, -1, -2, -1, 0
1503698683449,0, 0, -1, -1, -1, -2, -1, -2
1503698683472,1, 0, 1, 1, -1, -1, -1, 0
1503698683486,2, -2, 0, -1, -2, -1, 0, 2
1503698683509,0, -1, -1, 1, -1, 0, 0, -1
1503698683532,-6, 1, -1, -1, 0, 1, -1, -3
1503698683546,2, -2, -3, 2, -1, 0, -1, 1
1503698683570,1, 1, -1, -2, -1, -1, -2, -4
1503698683591,-3, -1, 1, -2, -1, -3, -1, -5
1503698683606,-1, 0, 0, 0, -1, -1, -1, 2
1503698683629,-1, 1, -1, 1, -1, -1, -1, -3
1503698683651,0, 0, 0, -1, 0, 1, 1, -2
1503698683670,0, 1, -1, -1, -1, -1, 1, 0
1503698683689,-3, -1, -3, -2, 0, -2, -2, 0
1503698683711,2, 0, 2, 0, 1, 0, 0, 4
1503698683730,0, -2, -2, 1, 1, -1, 1, 3
1503698683741,2, 0, -1, -1, -2, -2, 0, 0
1503698683764,1, 1, 0, -3, 0, -2, -1, 0
1503698683779,1, -3, -2, -2, -2, -2, -1, -3
1503698683801,-2, 0, -1, 0, 0, -1, 1, 2
1503698683824,-1, 1, 2, -1, -1, -3, 0, 0
1503698683839,-2, 1, 0, -1, -1, 1, -2, -3
1503698683863,-2, -1, 0, -2, 0, -2, -1, -5
1503698683887,-4, -3, -2, -1, -2, 1, -1, -3
1503698683900,2, -1, -2, -3, -1, -1, -1, -3
1503698683921,0, 1, 1, 0, 0, 0, 0, 2
1503698683944,0, -2, -2, 0, 0, -1, 1, 3
1503698683959,-1, 0, -1, 0, 0, 1, -1, 0
1503698683981,0, 0, -3, -1, -2, -2, 0, 4
1503698684004,0, 1, 0, -1, -1, 1, -1, -3
1503698684019,-2, -3, -1, -1, -1, -1, 0, -4
1503698684041,-1, 1, -2, -2, -1, -2, 0, -3
1503698684066,1, 0, -1, 3, 0, 0, -3, 1
1503698684079,-6, -3, 0, -1, -2, -3, -2, -4
1503698684098,-2, 0, 0, 1, 0, 1, -1, 0
1503698684109,-2, -3, -2, -1, -1, -1, -1, -3
1503698684132,-1, -2, -1, -1, 1, -1, 0, -2
1503698684153,1, 0, 0, 1, -2, -1, 0, -4
1503698684174,-2, -2, -2, 0, -2, -2, 0, 0
1503698684191,6, 1, -2, -1, -1, 0, -1, -1
1503698684213,5, 1, 0, -3, -3, -1, -2, -1
1503698684229,-3, -5, -1, -1, 2, -1, -1, 1
1503698684251,-1, 0, 1, 7, 1, -2, 0, 0
1503698684273,0, 0, -2, -1, -1, -7, 0, 0
1503698684289,-3, 0, -1, -4, -10, 2, -3, -5
1503698684318,-7, -2, -2, -1, 0, -1, -4, -2
1503698684334,-3, -3, -5, -4, -2, 0, -3, -2
1503698684349,-2, -1, 4, 4, 7, 0, 0, -3
1503698684371,2, 1, 0, -7, -11, -3, -1, 0
1503698684395,6, 7, 4, -1, 13, 0, 0, 2
1503698684409,-12, -12, -7, -6, -10, 6, -3, -7
1503698684437,1, 0, 0, 15, 0, 3, 1, 3
1503698684453,3, 2, 8, 1, -2, -7, -2, 1
1503698684470,-5, -7, -7, -9, 1, 2, 0, -2
1503698684491,3, -1, -4, -7, -2, 6, -3, -3
1503698684513,1, 5, -4, -3, 0, -1, 0, 0
1503698684529,-1, 2, 5, 16, 18, 6, 2, 2
1503698684551,-9, -8, -2, 3, 1, -4, 1, 1
1503698684573,0, -1, 1, 1, 5, 1, 0, 2
1503698684589,0, -4, 0, 0, -1, 7, -1, 1
1503698684611,9, 8, -2, -12, -49, -7, -4, -1
1503698684636,-1, 1, 0, -4, -2, -18, 0, -2
1503698684656,-5, -1, -1, 3, 12, 11, 1, 2
1503698684674,-4, -5, -2, -14, -20, -9, -2, -2
1503698684693,3, -1, -4, -15, -6, -4, 0, 1
1503698684716,0, 7, 5, -2, -1, -8, -3, -4
1503698684732,0, -3, -1, 5, 10, 3, -1, -1
1503698684753,0, 2, 3, 9, 11, 4, 0, -2
1503698684776,-2, 3, 6, 38, 38, 0, -1, 0
1503698684791,-12, -8, -3, -8, 22, 9, -3, -4
1503698684813,5, -1, -5, -2, -9, 7, 2, 0
1503698684838,-2, -3, -13, -28, -10, -10, -4, -2
1503698684845,-3, -9, -3, -5, 5, 6, -1, -4
1503698684866,-4, -10, -2, 2, 2, -4, 0, 2
1503698684881,-2, 1, 0, 1, -15, -4, -9, -2
1503698684905,-8, -10, -6, -9, 24, -19, 1, 3
1503698684927,-2, 2, -8, -9, -18, -24, 0, -2
1503698684942,-1, 1, -4, -1, -9, 5, -10, -3
1503698684964,-3, -8, -3, 1, 6, 13, 6, -6
1503698684986,5, 3, 2, -4, -9, -3, 1, -1
1503698685001,-1, 4, 6, 2, 5, 9, 4, 6
1503698685024,4, 19, 20, 11, 6, -9, 0, 2
1503698685046,-7, -6, -12, -11, -4, 1, -4, -15
1503698685061,-2, -8, -5, -9, -6, 3, -3, 4
1503698685084,4, 14, 19, 9, -9, 2, 2, -1
1503698685106,-15, -20, -4, 8, 10, 0, 1, 3
1503698685121,9, 67, 25, -12, -23, 4, -5, 0
1503698685144,1, -16, -15, 30, 26, -18, 1, -3
1503698685166,12, 91, 85, 15, -14, -7, -2, 32
1503698685181,-42, -116, -106, -35, -4, -8, -11, -27
1503698685206,12, 73, 60, 16, -15, 38, -8, -12
1503698685226,9, -73, -53, -17, 75, 13, 6, -1
1503698685241,-13, -39, -30, -1, -25, -20, 9, 6
1503698685264,-9, -49, -33, -2, -6, 0, -6, 7
1503698685286,6, 22, 6, -88, -77, -6, 4, -7
1503698685301,12, 9, 0, -38, 42, 19, 8, 5
1503698685324,-7, -27, 7, 54, 25, -11, -6, -6
1503698685346,-7, 39, -19, -25, -30, -31, -11, -14
1503698685361,5, 0, 13, 35, 2, 5, 4, 7
1503698685384,0, 19, 19, 17, 27, 1, 3, -3
1503698685407,7, 34, 33, 10, -4, -12, -1, 4
1503698685421,3, -14, 0, 2, -4, 8, 5, 9
1503698685436,2, -1, -1, 4, 4, 10, 3, -1
1503698685451,-4, -12, -14, -23, -4, 1, -2, -1
1503698685474,2, -3, -4, -4, -20, -4, -4, -2
1503698685495,-3, -3, -4, -6, -2, 1, -1, 1
1503698685512,-7, -20, -1, 4, 7, -2, -2, -3
1503698685533,-2, -2, -2, 2, 2, 4, -1, -2
1503698685556,-1, 3, -3, -11, -8, 2, 1, 1
1503698685571,0, -8, -11, -17, 17, 0, -2, -4
1503698685594,-4, 1, 1, -9, -12, -1, -1, 2
1503698685616,1, 3, 2, 16, 9, 2, 2, 2
1503698685638,-1, 1, -1, 0, 2, 1, 0, -1
1503698685653,0, 0, 1, 6, 1, 1, -3, -2
1503698685676,-4, -1, 1, 6, -1, 1, -1, 1
1503698685698,0, 0, -2, -9, -4, -1, 0, -2
1503698685714,-4, -2, -4, 0, -2, -1, 1, -3
1503698685736,1, 0, -1, 2, 1, -2, -1, 0
1503698685758,-2, 1, -1, -3, -3, 0, 1, 0
1503698685782,-1, -2, 1, 12, 6, -1, -8, -2
1503698685797,-16, -4, 0, -5, -3, -5, -2, -6
1503698685819,-6, 1, 0, 3, 2, 3, 3, 0
1503698685844,-3, -1, -1, -4, -3, -3, -1, 3
1503698685857,4, -1, -3, -5, -5, -1, -1, -3
1503698685879,-4, -2, -1, -3, -4, -1, -1, 6
1503698685886,-10, -2, 0, 6, -1, -1, -3, -8
1503698685912,-14, -5, -2, -2, -1, 1, 4, -14
1503698685924,9, -6, -12, -12, -10, -5, -6, -7
1503698685947,0, -9, -3, 0, -1, 0, 2, 23
1503698685969,10, 6, 1, -1, -3, -3, 0, 12
1503698685984,-16, 2, 2, 1, -1, 2, 2, -30
1503698686006,10, 5, 1, 1, 0, 4, -3, 1
1503698686029,-5, -4, -4, -1, 0, -15, -3, 6
1503698686046,-8, -1, 3, 2, 4, 2, 0, -9
1503698686066,-19, -21, -11, -6, 0, -2, -8, -34
1503698686089,5, 4, 3, -2, -1, 0, 3, 7
1503698686104,4, -1, -2, 2, -1, -1, 2, 21
1503698686127,-3, -5, 3, 0, -1, 1, -3, -4
1503698686149,9, 11, 1, -2, -1, -1, 0, -18
1503698686164,-12, -11, 0, 2, 1, 9, 4, -20
1503698686187,10, 12, 5, 3, 1, 0, -3, 14
1503698686209,10, 14, 2, 0, -2, -5, -4, 6
1503698686224,7, 11, 3, 1, -2, -1, -1, 6
1503698686247,-4, -4, -1, -1, 2, -1, 0, -1
1503698686269,2, 0, -2, -2, -1, -2, -1, 3
1503698686284,-1, -3, 2, -1, -4, -1, -2, 3
1503698686306,3, 9, -3, -2, -2, -1, -2, 1
1503698686323,4, 0, -3, -2, -2, -1, -2, -1
1503698686337,3, 2, 4, 0, -1, 0, 0, 9
1503698686359,0, -7, -6, -5, -3, -1, -3, -13
1503698686382,0, 5, 15, 3, 1, 1, 0, 0
1503698686397,-2, -4, -1, 0, 0, 0, 1, 4
1503698686419,2, -5, -11, -5, -3, -2, 1, 18
1503698686442,2, -5, -1, -2, -1, 1, 0, 3
1503698686457,-2, 2, 1, 1, 1, -1, -2, -5
1503698686481,4, 13, 4, -2, -2, -2, 1, -7
1503698686502,22, 21, 11, 2, 1, 1, 3, 32
1503698686517,9, -2, -7, -7, -3, -3, -5, -14
1503698686547,-20, -9, -5, -2, 0, -1, -3, -9
1503698686562,-9, -6, -13, -3, -2, -1, -2, -6
1503698686577,-10, -14, -10, -3, -1, -1, -3, -7
1503698686599,11, 1, 7, 1, 0, -1, -1, 4
1503698686622,-16, -9, -1, 1, 1, -1, -1, 0
1503698686637,-20, -10, -2, 2, 0, 1, 1, -12
1503698686660,-3, 3, 4, 0, -1, -1, -1, -1
1503698686684,4, 7, 9, 3, 1, 0, 0, -3
1503698686697,10, 2, -7, -3, -2, -3, -1, -1
1503698686725,1, -1, -3, -3, -2, 0, -1, -3
1503698686742,4, 10, 8, 4, 0, 1, -4, -3
1503698686757,-3, -5, -4, -3, -1, -2, 0, -1
1503698686779,4, -3, 3, -1, 0, 0, -1, -6
1503698686802,-4, 3, -4, -2, -1, 0, -2, -3
1503698686820,3, -5, -5, -1, -2, -1, -2, -9
1503698686839,-4, -3, 2, -2, -2, -2, -1, 5
1503698686862,-6, 2, 5, 5, 1, 0, 2, 0
1503698686887,-9, -5, -2, -1, -1, 0, 0, 1
1503698686906,6, 6, -6, -3, -2, -2, 0, 2
1503698686908,5, -3, -3, -2, -2, -1, 0, -1
1503698686929,5, 11, 3, 1, 1, -1, 1, 3
1503698686953,-5, -8, -2, 1, 1, 0, -1, -5
1503698686966,3, -5, 2, 0, 2, -1, 1, 1
1503698686989,2, 0, -3, 0, 0, 0, -1, 0
1503698687011,-9, -4, 3, 3, 1, 0, -1, -4
1503698687027,9, 6, 5, 1, -1, -2, -2, -2
1503698687049,2, -3, -2, -1, -1, 0, 0, 0
1503698687071,-7, 2, 2, -1, -3, -3, -2, 0
1503698687088,-4, -1, -2, 0, -2, -3, -1, 2
1503698687109,10, -4, 1, -2, 0, -1, 0, 3
1503698687131,-1, 2, 1, -3, -2, -1, 0, 2
1503698687146,3, -4, -8, -4, -2, 0, -1, -3
1503698687169,-4, 3, -3, 1, 1, -1, -1, -1
1503698687191,-3, 0, -1, -2, -3, -3, -3, -3
1503698687206,-2, 2, 4, 1, 4, 2, 2, -2
1503698687229,-5, -2, -4, -1, 1, -2, -1, 1
1503698687254,1, -3, -3, -1, -1, 0, 0, -1
1503698687266,-3, -3, -2, 2, 4, 0, -1, 0
1503698687289,8, 2, -1, -3, -1, 0, -1, 0
1503698687311,-7, -3, 4, 11, 3, 1, -3, -1
1503698687326,-1, 0, -4, -6, -6, -1, 2, -2
1503698687349,0, 0, 0, -1, -2, -3, -3, 1
1503698687371,-7, -8, -8, -8, -4, -2, -1, -4
1503698687402,-3, -2, -1, -4, -5, 0, 1, -1
1503698687417,0, -3, -3, -3, 1, 0, -4, -1
1503698687439,1, -1, 0, 0, 0, -1, -1, 1
1503698687462,-7, 3, 1, 0, 1, 1, 0, 1
1503698687484,-6, 2, 3, 2, 0, 2, 2, 1
1503698687499,-9, -1, 0, 0, 0, -1, -1, -4
1503698687527,5, -7, -6, -4, -2, 1, 1, 0
1503698687544,8, 4, 2, 1, -1, -1, 0, 1
1503698687559,-1, -3, 1, -1, -3, -1, 0, -1
1503698687582,-3, -3, -1, -2, 0, 0, -3, -2
1503698687604,-20, 0, -2, -1, -1, 0, 0, -7
1503698687619,8, 0, 0, 1, -1, -1, 6, 0
1503698687642,3, -3, -2, -1, 0, -1, -1, 3
1503698687670,0, -2, -7, -3, 0, -2, -4, 0
1503698687679,-1, -5, -3, -3, -4, -3, -3, -1
1503698687702,3, 0, -1, 0, 0, 0, -1, 3
1503698687724,5, 1, 1, 0, -1, -1, -2, -3
1503698687733,3, -2, -1, 0, 2, -1, -1, -3
1503698687754,-7, -4, -5, -2, -3, -2, -4, 1
1503698687769,-2, 7, -1, -2, -2, -1, -2, -3
1503698687791,-6, -4, -7, -4, -1, -2, 1, 1
1503698687814,-17, -9, 1, 0, -1, -1, -2, -3
1503698687829,3, -1, -2, 0, 1, -2, 0, 1
1503698687851,11, 3, 5, -1, -3, -1, 0, 0
1503698687874,1, 1, -3, -2, -1, 0, 0, -1
1503698687894,3, -1, -3, -4, -4, -2, -4, -1
1503698687911,8, 3, 4, 2, 1, -1, 1, 1
1503698687934,3, -3, -2, -1, -2, -2, 1, 0
1503698687949,-5, 2, 5, 4, 5, 0, -2, -4
1503698687971,-5, 0, 2, 5, -7, 2, 1, 3
1503698687994,-6, -4, 0, 1, 6, 1, -1, 0
1503698688009,3, -2, -4, -1, 1, 0, -2, -6
1503698688031,-2, 2, 3, -3, -3, -3, -2, 0
1503698688054,-8, -3, -6, -5, -3, -2, -3, -30
1503698688069,4, 12, 0, -1, 0, -1, 3, 11
1503698688093,-2, -6, -1, 1, -2, -2, -2, 9
1503698688114,2, 0, -3, -2, -1, -1, 1, 3
1503698688129,-1, 1, -4, -1, 0, 2, 0, 4
1503698688161,-2, -5, 1, 13, 6, 2, 3, 0
1503698688182,-7, 0, 1, -5, -4, -3, -4, -5
1503698688204,2, 0, -3, -4, -3, -2, 0, 4
1503698688219,0, -3, -2, -2, -1, -1, -1, -2
1503698688242,2, -1, -6, -4, -2, 0, 0, -1
1503698688264,1, 8, 9, 3, 1, 1, 1, -2
1503698688279,1, -5, -5, -1, -4, -1, -1, 4
1503698688302,-1, -1, -1, 2, 1, -2, -8, -10
1503698688324,8, 1, -3, -5, -3, -2, 3, 6
1503698688339,-4, -2, -1, -1, -1, -2, -1, 1
1503698688362,12, -2, 0, -3, -4, -4, -4, -2
1503698688384,-1, -1, -5, -3, -3, -1, -2, -4
1503698688406,3, -6, -10, -4, -2, 1, 1, 6
1503698688422,6, 7, 5, 2, 3, 0, -3, -3
1503698688444,14, 4, -2, -2, 0, -2, 1, -3
1503698688467,-3, 1, 1, 0, 0, 0, 1, 8
1503698688482,-2, 0, 0, 0, -3, -2, -3, 6
1503698688504,-13, -11, 0, -1, -2, -2, -1, -4
1503698688526,-18, -1, 2, 2, 1, 2, 0, -4
1503698688542,-14, -2, -1, -1, 0, -1, -4, -15
1503698688564,1, 1, 2, 0, 0, 2, -1, -2
1503698688586,-3, 3, 0, 2, -1, -1, -2, -3
1503698688596,6, 4, 2, -1, -3, -3, -3, -4
1503698688615,3, -2, 1, -2, -1, -2, -1, -2
1503698688632,-1, -1, -5, -3, -3, 0, 1, 4
1503698688654,-4, 2, -4, -2, 0, 0, 1, -1
1503698688675,-7, -6, -2, 0, -1, -1, -2, -1
1503698688691,-9, -8, -4, 2, 0, -1, 1, 2
1503698688714,0, -2, 2, -1, -1, 1, -1, -5
1503698688743,-2, 0, 3, 1, -3, -2, 1, 4
1503698688751,5, 1, -5, 0, -1, 0, 1, 3
1503698688774,2, -1, -2, -3, -1, -4, -3, 0
1503698688798,1, 0, -1, -4, -7, -2, 0, 0
1503698688812,-3, -4, -3, 0, 2, 2, -1, -4
1503698688834,-14, -12, -7, 2, 5, -1, -2, -4
1503698688856,7, -3, -3, -2, -1, 0, -1, -4
1503698688866,-8, -2, 1, 3, 3, 0, 2, 2
1503698688886,13, 1, 1, 1, 1, 0, 1, -1
1503698688902,7, 6, 4, 1, 2, 0, 0, 2
1503698688924,-5, 0, 1, 2, -1, 1, 1, -1
1503698688946,-6, -4, -3, -2, 1, 0, -1, 0
1503698688962,-4, -3, -5, 2, -3, -1, -2, -4
1503698688983,-5, -5, -5, -11, -11, -5, -2, -1
1503698689007,6, 7, 5, -3, -4, -2, -3, -2
1503698689022,-1, 0, -4, 1, 4, 1, 1, 4
1503698689044,-14, -13, -4, -1, 4, 0, 1, -4
1503698689066,0, 1, 3, 2, 2, 1, 0, 2
1503698689082,-2, 1, 2, 2, 1, 0, 0, -8
1503698689104,1, -3, -2, 1, -2, 0, -2, -5
1503698689126,5, 2, 2, 1, 1, -1, 1, 10
1503698689142,4, 3, 1, -1, -2, -1, 0, 0
1503698689164,0, 5, -1, -2, -3, -2, -1, -1
1503698689186,-2, -7, -5, 0, 26, -2, -2, -1
1503698689194,2, 3, 0, 5, 9, 1, 1, 1
1503698689215,4, 3, 2, -1, 1, -1, -1, -3
1503698689231,-5, -3, -2, -1, -6, -1, -2, -1
1503698689253,4, 5, 4, -3, -1, 1, -1, 1
1503698689276,-10, -5, -5, -2, -10, -1, -1, -1
1503698689291,-5, -4, 1, -2, -2, -2, -1, -1
1503698689313,-1, 0, 1, -2, -1, -2, -2, -1
1503698689330,8, 1, -4, 4, 5, 1, 0, 0
1503698689344,-3, -5, -1, 1, -10, -1, -1, -3
1503698689367,-3, -3, -2, -6, 0, -2, -1, -3
1503698689389,1, 1, 1, -1, -3, -1, -2, -1
1503698689404,5, 2, 1, 0, 0, 0, 0, 0
1503698689426,-6, 0, 0, 0, 0, -1, 1, 1
1503698689448,-3, -2, -1, -2, -1, -2, -1, 0
1503698689472,-7, -4, -5, -2, -2, -1, -2, -5
1503698689486,-5, 0, 1, 0, 2, -1, 1, 4
1503698689509,1, 1, -3, -6, -6, -1, 0, -1
1503698689524,9, 2, -1, -2, -3, 0, -2, 1
1503698689546,-2, -5, 2, 0, 2, -1, -1, -1
1503698689570,-2, -3, 3, 4, 1, 1, -2, -3
1503698689584,-3, -2, 0, 5, 3, -2, -4, -2
1503698689606,6, 4, 1, 0, -2, -1, -2, 1
1503698689630,-3, 5, -3, -1, -8, -2, -2, -3
1503698689644,-5, -4, -4, -2, 1, 2, -1, -2
1503698689666,-2, -1, -2, -4, -3, -1, 1, 4
1503698689688,1, -2, -2, -5, -1, -2, 1, 8
1503698689704,6, -1, -2, 1, -3, -1, 1, -1
1503698689726,2, 3, 10, 15, 11, 0, -2, -2
1503698689749,-5, -3, -3, -5, -5, -1, -1, -5
1503698689764,-7, -9, -1, -2, -1, 1, -2, -4
1503698689786,1, -7, -6, -4, 1, 0, 1, 1
1503698689809,-12, -7, -5, -8, -4, -2, -2, -2
1503698689824,0, 0, -3, -2, 1, -1, 0, 3
1503698689847,8, 6, -1, -1, -1, -2, -2, -3
1503698689869,8, 7, 4, 4, 0, -2, -2, -2
1503698689884,12, 3, 0, 0, -1, -2, 0, 5
1503698689906,-2, 1, 4, -2, 0, 0, 1, 1
1503698689929,-3, -6, -4, 0, 0, 0, 0, 1
1503698689944,-6, 2, -2, 2, 0, 0, -3, -4
1503698689966,12, 10, 6, 1, 0, 2, -1, 2
1503698689989,-12, -9, -5, -2, -2, -3, -1, -4
1503698690005,-4, 2, 2, -2, 0, -1, -1, 1
1503698690026,-4, -5, -1, 5, 2, -1, -1, -2
1503698690049,5, -5, -4, -3, -4, -1, 1, 0
1503698690064,-2, -5, -5, -3, -2, 2, 0, -3
1503698690086,-4, 10, 8, 1, 2, 1, 0, -1
1503698690109,1, -4, 1, -1, -1, -1, -1, 0
1503698690124,7, 8, 4, 3, 4, -1, -1, 3
1503698690147,-5, 0, -5, -6, -5, -2, 0, -1
1503698690169,8, 0, -2, -2, -1, -2, -3, -1
1503698690184,-7, -4, -6, -2, -3, 0, 1, 2
1503698690208,-5, 4, 5, 2, 1, 0, -4, -5
1503698690229,-8, -3, -2, -1, 0, -2, 0, 4
1503698690251,6, -5, -1, -1, -2, -3, -1, -4
1503698690266,-3, -2, -3, 0, -1, 0, 0, 0
1503698690289,11, 1, -1, -1, -2, -3, -3, -4
1503698690311,6, 0, -2, -1, -1, 0, -1, -2
1503698690326,-9, -2, 3, 3, 1, 0, -1, -4
1503698690349,2, 0, -4, -4, -2, -2, 1, -1
1503698690371,-4, -4, 1, -1, 0, -2, -1, 1
1503698690386,-7, 0, -2, -3, -3, 0, 0, 0
1503698690410,-5, -2, 0, -2, 0, 0, -2, -4
1503698690431,-2, -4, -2, 0, -1, -1, 0, 0
1503698690447,0, -2, -6, -3, 0, 0, -1, -1
1503698690469,-6, -1, 3, 0, 1, 0, 1, 0
1503698690491,-1, -2, -2, 6, 2, 1, 1, 1
1503698690514,6, 0, -6, -8, -8, -1, 4, -2
1503698690529,-5, -3, 1, 5, 3, -2, -4, -1
1503698690551,4, 7, 2, 1, 4, 1, -2, 0
1503698690566,-1, -5, -2, -7, -9, -3, -4, -4
1503698690589,-1, -2, -2, -4, -3, -2, -4, 0
1503698690620,-5, -4, -5, 0, -4, -1, 0, -1
1503698690640,-9, -8, 1, 2, 1, -1, -3, -2
1503698690656,-2, 2, 2, 0, 1, 0, 1, -2
1503698690678,19, 6, 3, 22, 21, 5, 4, 3
1503698690701,-3, -5, -4, -10, -9, -1, -3, 0
1503698690723,2, -2, -3, -4, -7, -2, -2, -3
1503698690739,6, 5, 0, -5, -1, 0, -1, -2
1503698690760,8, 5, 0, 0, 1, 0, 0, 1
1503698690769,-5, -4, -3, -2, 2, -2, -3, -1
1503698690791,1, 0, -1, 1, 1, -1, -1, -2
1503698690806,-1, -3, -4, -2, -1, -1, 0, -1
1503698690829,-1, -5, -2, 0, -2, -1, -1, -1
1503698690845,-2, 0, 2, -3, -4, 0, 1, -1
1503698690859,-1, 0, 0, 0, -1, -1, -1, -1
1503698690884,0, 1, 0, 0, 0, -1, -1, -1
1503698690904,-5, -6, -5, -2, -3, 0, 0, -3
1503698690919,-1, 0, -1, -3, -3, -2, -3, 1
1503698690942,-2, -1, 0, -2, 2, -1, 0, -2
1503698690964,-2, -2, -1, -2, -1, -2, 0, 0
1503698690981,-3, -3, -3, -3, 0, 0, 0, -3
1503698691002,-3, -2, -3, 2, -2, 0, 1, -1
1503698691024,-2, 1, 2, 2, 1, -1, 1, 1
1503698691039,-2, 1, -2, -4, -3, -3, -5, -4
1503698691062,2, 0, 2, 4, 4, 1, 1, -1
1503698691084,-3, -3, -1, 2, -13, -2, -1, 0
1503698691099,1, 1, -1, -3, 1, -2, -1, -1
1503698691122,4, -1, -1, 0, 1, 0, -3, -3
1503698691144,1, 1, 0, 0, 0, 0, 0, 1
1503698691159,-3, -1, 1, -2, 0, 0, -1, -2
1503698691183,-1, 1, 2, 0, -1, 0, 0, 0
1503698691205,5, 0, 1, -1, 0, 0, -1, 1
1503698691219,1, 0, 0, -2, -2, -1, -1, 2
1503698691242,-3, -3, -7, -3, -1, -2, -2, -1
1503698691264,0, -1, -1, 0, -2, -2, -1, 0
1503698691282,4, 1, 0, -1, 1, -2, 1, 2
1503698691302,2, 0, -2, 0, -2, 0, 0, -2
1503698691324,-2, -5, 2, -1, -2, 0, -2, -1
1503698691339,-3, -1, 1, 2, 3, 1, 0, -2
1503698691362,0, -5, 0, 1, 0, 0, -1, -1
1503698691384,-5, -2, -1, -1, 0, 0, 0, -1
1503698691399,-7, -5, -2, 1, -3, -2, -1, -2
1503698691421,4, 4, -1, -2, 1, -1, 0, -1
1503698691444,-2, 1, 1, 0, -2, -2, -1, -1
1503698691459,1, 0, -4, -7, -4, -2, -1, 0
1503698691483,1, 0, -2, -2, -3, 1, 0, 0
1503698691504,-3, -1, 0, -1, 0, 0, 0, 0
1503698691520,-1, -1, 0, 2, 3, -1, 0, 1
1503698691542,2, 0, -3, -4, -2, -1, -1, 1
1503698691564,0, 0, 0, -1, -5, -2, 0, -1
1503698691579,7, 2, -1, -1, 0, -2, -3, -3
1503698691602,-3, -1, 1, -2, -1, -2, -1, 1
1503698691624,-2, -5, -1, 3, -2, 1, 0, -3
1503698691639,1, -1, 0, -6, -6, -1, -3, -1
1503698691670,-2, 0, 2, -1, -2, -2, -1, 1
1503698691691,-4, 0, 0, 0, -2, -1, 1, -1
1503698691714,-7, -2, -3, -4, -4, 0, -2, -2
1503698691729,-4, -3, -1, 0, 0, -1, -2, 1
1503698691752,-4, -3, -2, -3, 0, 0, -2, -3
1503698691774,0, -1, -1, -2, 0, 0, -1, 1
1503698691790,0, 0, -3, -2, -5, -2, -1, -1
1503698691811,-2, 0, 1, -3, 0, -2, -1, 0
1503698691834,-1, 0, -1, 0, 0, 0, -1, -1
1503698691849,-3, -3, -1, 0, 1, 1, 0, -2
1503698691871,4, 12, 9, 4, 1, 2, 2, 2
1503698691894,1, -2, 0, 1, -1, 0, -2, 1
1503698691909,0, -4, -4, -3, -1, -2, -1, 0
1503698691931,-9, -7, 0, 2, -1, -1, 0, -1
1503698691955,1, 0, -1, -3, -4, -2, -2, 0
1503698691968,6, -5, -5, -2, -2, 0, -1, -2
1503698691991,-1, -1, -3, 0, 1, 0, -1, -2
1503698692014,-1, -1, -1, -1, 0, -1, -3, -3
1503698692044,4, -6, -6, -2, -2, -2, -3, -14
1503698692059,-14, -7, -5, -1, 0, -2, -1, 7
1503698692082,0, -3, 1, 1, -1, 2, -3, 1
1503698692090,-1, -2, 0, 0, -1, -2, -6, 1
1503698692111,-1, 0, 0, 2, -1, 1, 2, 1
1503698692133,0, -3, -1, -3, -1, -1, 1, 0
1503698692161,-3, -5, -1, -1, 0, -1, 0, -4
1503698692171,-5, 2, 1, 1, 2, 1, -1, -4
1503698692194,-1, -6, -8, -3, -2, -3, -2, -15
1503698692216,-4, -4, -2, 1, -1, 0, 0, 6
1503698692231,4, -6, -6, -4, -2, 0, 0, -1
1503698692257,-2, -3, -3, -1, 0, -3, 0, 2
1503698692276,5, 22, 9, 1, 1, 0, -1, -3
1503698692291,-4, -4, -2, -2, -3, 0, -1, 2
1503698692313,0, -1, -3, 1, -1, -2, -2, 2
1503698692336,0, -2, -1, -3, -2, -1, -2, 0
1503698692351,6, 2, 1, -1, 0, -1, 1, 1
1503698692374,-6, -2, 0, 1, -1, -1, -1, 0
1503698692396,-1, -2, -4, -6, -3, -3, 0, 1
1503698692411,7, 3, -3, 0, -3, 1, 0, -2
1503698692434,0, -1, 1, 6, 3, 0, 0, -2
1503698692457,-5, -8, -5, -3, -3, 0, 1, 0
1503698692471,14, 7, 7, 3, 2, 0, -3, 2
1503698692494,-7, -6, 2, 1, 2, 0, -1, -3
1503698692516,-9, -4, -2, -6, -4, -3, -1, -2
1503698692532,-2, -2, -1, -4, -3, 0, 3, 0
1503698692553,1, -1, -4, 0, 0, 0, 0, 0
1503698692576,0, -3, -4, -2, -3, -2, -3, -2
1503698692592,2, 8, 2, 0, 0, 1, -1, 0
1503698692613,0, 1, 5, 3, 3, 1, 0, -1
1503698692636,-2, -6, -3, -2, -1, -1, -1, 2
1503698692651,-4, -3, -3, -2, 2, -1, -1, -1
1503698692673,2, 1, -2, 0, -2, -1, 1, -1
1503698692696,-3, 0, 3, 1, -1, -1, -2, -7
1503698692711,4, 11, 0, 0, -2, -1, -2, 7
1503698692733,2, 0, 1, -1, 0, -4, -4, 4
1503698692757,2, -6, -4, -1, 1, -2, 0, -1
1503698692771,-4, -1, -1, 2, 1, -5, -1, -6
1503698692794,-5, -2, -2, -3, -2, 0, 1, 1
1503698692802,13, 1, -3, -2, -2, -3, -4, 0
1503698692831,-7, -4, 5, 3, 1, -1, -3, -2
1503698692846,-4, -5, -8, -2, -3, -3, 1, -1
1503698692862,-1, -4, -1, 0, -1, -1, 0, 0
1503698692886,-15, -3, 2, 0, 1, 1, 2, -3
1503698692906,-9, -6, -1, 2, 4, 1, 0, 0
1503698692921,1, -5, 0, 2, -1, -1, 1, 2
1503698692947,-1, 10, 0, -3, 0, 1, -1, 0
1503698692966,2, -4, -6, -2, -1, -1, 1, 5
1503698692981,3, 2, -4, -3, -2, -2, -3, -2
1503698693004,5, 3, 2, 1, -1, 0, -1, 0
1503698693028,26, 12, -1, 1, 1, 0, -2, -1
1503698693048,-19, -11, -4, -3, -2, -2, -1, -2
1503698693064,-12, -4, -1, -3, -5, -11, -3, -4
1503698693086,-5, 1, 1, -1, -3, 2, 1, 0
1503698693108,1, -5, -3, -3, -1, 3, 0, -3
1503698693124,-3, 2, 0, 1, -2, -2, 0, -1
1503698693146,5, 0, 1, -1, 1, 2, -1, -2
1503698693168,-11, -7, -2, -5, 1, 3, 2, -1
1503698693184,15, 4, -1, -1, 7, -2, -2, 1
1503698693199,-6, -5, -3, -2, -3, -1, -4, -7
1503698693213,8, 1, -1, 1, 0, 1, -1, 6
1503698693236,-10, -5, -1, 1, 0, 0, 2, 3
1503698693258,11, 7, -2, 0, 1, -1, -3, 1
1503698693274,-3, 0, 1, -1, -2, -2, -1, -3
1503698693296,-1, 0, 1, -1, 2, 0, 4, 0
1503698693319,-6, -8, -5, -3, -1, -2, -1, -2
1503698693348,-2, -1, 3, -2, -1, -3, -1, -1
1503698693365,-7, -3, -1, 0, 2, -2, -2, -9
1503698693378,5, -1, -3, 1, 3, -1, 1, 12
1503698693393,-1, 3, 1, 8, 8, 0, -4, 1
1503698693416,-4, -2, -3, -5, 6, -3, -7, -8
1503698693438,1, -1, -1, -3, -5, -5, 0, -2
1503698693454,3, 5, 0, 0, -4, 2, 2, -1
1503698693476,-1, 6, 3, -1, -5, -1, 0, -5
1503698693499,8, 0, -4, -7, -6, -2, -4, -2
1503698693513,-4, -4, -2, -1, -2, 2, 1, -2
1503698693536,0, -3, -1, -4, -4, -1, 0, -1
1503698693558,-3, -3, 2, 2, 2, 1, 2, -2
1503698693574,16, 4, -1, 0, -3, -1, -3, 8
1503698693601,-4, -4, -1, -2, -4, 1, -1, -5
1503698693618,-3, 0, -1, -1, -2, -1, 0, 2
1503698693643,-1, -4, -9, -3, -2, -16, -10, 1
1503698693656,7, 5, -4, -4, 1, 3, -1, -2
1503698693674,-3, -9, -3, -3, -2, -7, -3, -2
1503698693686,2, 7, 4, 0, -2, -2, -2, 4
1503698693708,-2, 0, 2, 4, 0, -2, 3, -1
1503698693724,-1, 5, 2, 3, 2, -3, 0, -4
1503698693746,-5, 1, 4, -2, -3, 7, -5, 1
1503698693769,0, -1, -5, -1, -1, 1, -1, 2
1503698693784,-1, 3, 1, 0, 0, -5, -1, -2
1503698693800,-5, -7, -5, -2, -3, -5, -6, -10
1503698693813,1, -8, -5, -2, 0, 3, 4, 34
1503698693836,-3, -6, -4, 2, 0, 0, 0, -5
1503698693858,5, 12, 3, -1, 0, -3, 1, 0
1503698693873,-3, -13, -8, -3, -2, 3, 0, 4
1503698693889,8, -3, -3, -9, -6, -10, 2, -2
1503698693905,1, -3, -1, -1, -3, -4, -2, -3
1503698693926,-1, -1, 0, 1, -3, 5, 0, -1
1503698693948,-1, 2, -1, 1, -1, -5, -5, -8
1503698693964,-7, -6, -4, 0, -2, 5, 2, 3
1503698693986,-1, -4, 1, 4, -1, -9, 0, 1
1503698694009,-5, -4, -3, -4, -1, -3, -2, -5
1503698694031,15, 9, 12, 4, -1, 0, -2, 3
1503698694046,-4, -8, -7, -3, -1, 1, 0, 3
1503698694069,3, 4, 1, 0, 2, 1, 1, 0
1503698694091,-5, 4, 4, 0, 0, 3, 0, -5
1503698694099,-2, -1, 1, -2, 0, 0, 0, 4
1503698694120,-1, 6, -1, -1, -6, -4, -5, -5
1503698694136,2, -3, -4, -3, -2, -3, -1, -2
1503698694158,-1, -1, 2, 0, -1, -3, 2, 8
1503698694180,-4, -2, 2, 0, 0, -5, -10, -22
1503698694196,-14, -11, -4, -2, 2, 2, 1, 1
1503698694218,1, 0, 1, 0, -3, -2, 0, 3
1503698694242,5, 7, 7, 4, 3, 4, -2, -2
1503698694256,-10, -9, -7, -6, -2, 3, 1, 3
1503698694279,-4, 2, 1, 2, 1, 1, 0, -10
1503698694304,-3, -7, -2, 0, 0, 10, 0, 7
1503698694316,14, 12, 5, 0, -2, -7, 1, 0
1503698694339,-2, -2, -6, 0, -2, -2, -2, -5
1503698694360,-5, 0, 0, 1, -5, -9, -1, -1
1503698694377,0, -10, -5, -1, 0, 2, 2, 14
1503698694399,0, -5, -6, -3, 0, -2, 0, 2
1503698694420,13, 7, 1, -1, -3, -4, -1, 1
1503698694437,5, 4, 1, -2, 2, -3, 3, 0
1503698694458,0, -9, -9, -5, -5, 9, 1, 1
1503698694467,-8, -11, -7, -5, -4, 0, -8, 5
1503698694489,-6, 11, 14, 5, 4, 2, 4, 3
1503698694511,2, -19, -15, -4, -3, 1, -2, -5
1503698694526,4, 0, -1, -3, -5, -1, 2, -6
1503698694549,5, -4, -3, -4, -5, 3, -1, -1
1503698694571,2, -1, -2, -2, -1, 0, 1, 2
1503698694587,-3, -3, -3, 2, -3, -7, -4, 0
1503698694609,5, 5, 7, 1, 1, -2, -1, 9
1503698694631,-3, -1, 0, 0, 3, 0, -1, -1
1503698694648,6, 0, -3, -1, -1, -5, -1, -8
1503698694669,-17, -9, -2, -2, -1, -7, -1, 0
1503698694698,-6, -3, -2, -2, -3, 2, 3, 0
1503698694707,3, 5, -2, 1, 1, -2, -1, -1
1503698694728,-6, -1, -2, 1, -1, 1, 1, 5
1503698694751,7, 2, 2, 3, 2, 6, 1, 8
1503698694767,10, 0, -3, 0, -1, -3, -1, -12
1503698694796,0, -4, -3, -3, -3, 1, 2, 3
1503698694818,-1, -3, 0, -2, 0, 1, 7, 3
1503698694827,-5, -3, -2, -3, -1, -3, -1, -7
1503698694849,-3, -5, -2, 0, -1, 0, 0, 2
1503698694874,-8, 3, 2, -5, -3, -1, -3, -2
1503698694886,-6, -15, -10, -3, -3, -1, -1, -8
1503698694909,-3, 5, 0, 2, 1, -3, 0, 4
1503698694931,0, 2, 2, -1, -2, -1, 1, 1
1503698694953,-2, -6, -7, -3, -2, 4, -6, -12
1503698694968,5, 10, 6, 1, -1, -2, -5, 3
1503698694991,2, -3, -2, -1, -1, -2, 3, 4
1503698695013,9, -3, -2, -3, 0, 2, 5, 16
1503698695028,0, -1, -1, 1, -4, -7, 0, -6
1503698695051,-4, 0, -3, -4, -1, -2, 0, -3
1503698695075,-3, -5, -1, 3, -1, 1, -2, -7
1503698695088,-6, 0, 0, 0, -1, 0, -1, -1
1503698695112,2, 1, -2, -2, -2, 0, 0, 6
1503698695133,-7, -7, -2, -1, 2, 7, 0, 4
1503698695148,5, -1, -1, -1, -1, -3, 1, -1
1503698695171,-2, -2, -4, -1, 1, 0, -3, 3
1503698695193,5, 9, 13, 4, 1, 2, 2, 2
1503698695209,3, 0, -5, -3, -2, -1, 0, 7
1503698695231,4, 5, -1, -1, -1, -2, -2, -4
1503698695253,-1, -5, -4, -2, -2, -3, -2, 9
1503698695268,-1, 3, -1, -3, -2, -2, -2, -7
1503698695291,-1, 5, 9, 4, 1, -1, 0, -3
1503698695313,1, 4, 2, 0, -1, 0, -1, 5
1503698695320,3, 0, -3, -1, -4, -3, -1, 3
1503698695343,-1, 14, 7, 1, 0, 0, 0, 2
1503698695358,-2, -10, -2, -1, 1, 1, 0, 9
1503698695380,-3, -2, 0, 2, 0, -1, 0, 4
1503698695403,5, -1, -4, -2, -1, -3, -3, -11
1503698695418,-8, -6, -3, -1, -3, 0, 1, 0
1503698695440,1, -6, -4, -3, -1, 0, 0, 1
1503698695463,-2, -3, 0, 3, 2, -2, 0, -3
1503698695479,8, -1, 0, -1, 0, -1, -2, -3
1503698695500,-3, -2, -2, -2, -2, -2, -2, -8
1503698695523,5, 2, 1, 2, 1, 0, 0, -1
1503698695538,-6, 1, -1, -1, -2, 0, 2, 7
1503698695560,1, -3, -4, -2, 0, -1, 0, 0
1503698695583,5, 1, -5, -2, -4, -1, -1, 3
1503698695598,1, 3, 0, -2, 0, 0, 0, -2
1503698695614,-2, -4, -3, -1, 0, -1, -1, -4
1503698695628,-2, -3, -2, 0, -2, -2, -1, -2
1503698695651,-3, 1, -1, 0, -1, -1, -3, -8
1503698695659,-2, 0, -2, -1, 2, 4, 0, 1
1503698695680,-6, -6, -2, 0, -2, -3, -1, 11
1503698695703,-5, -2, -1, -1, -1, 0, -2, -3
1503698695719,-1, 2, 1, 0, -1, -1, -2, -10
1503698695740,-7, 7, 1, 0, 1, 1, 0, -3
1503698695763,-1, -8, -2, 2, 0, -1, -2, -3
1503698695780,-5, -4, 0, -1, -2, -1, -1, -7
1503698695800,14, 8, 2, -1, -2, -1, -2, 2
1503698695823,-5, -4, 0, 1, 1, 0, 0, -3
1503698695847,2, 0, 0, 1, 0, -1, 1, 7
1503698695870,1, -4, -3, -1, -1, -2, -2, 0
1503698695884,3, -1, 1, 1, 2, 1, 0, 0
1503698695891,-1, -3, -2, -3, -2, 0, -1, -4
1503698695914,-1, -3, -2, -2, -2, -1, 1, 3
1503698695936,6, -1, -4, -3, 0, -3, -2, -3
1503698695959,0, -3, -3, -2, -1, -2, -3, 2
1503698695973,-1, 0, -1, 0, -1, 0, -1, -3
1503698695996,-4, -4, -1, -1, -2, -1, 0, -4
1503698696011,-5, -2, -1, 1, -3, 1, 0, 0
1503698696033,-1, 1, 2, 0, 1, 0, -2, -1
1503698696057,0, -3, -2, 0, 0, -2, 2, 2
1503698696071,0, -4, -2, 0, 0, 0, -2, -1
1503698696093,-3, 0, -1, -1, 1, 0, -1, 0
1503698696116,1, 4, 3, 2, 2, 0, -1, -2
1503698696131,14, 8, 0, 0, -5, -3, -2, -3
1503698696154,0, 4, 1, 1, -3, -1, -1, 1
1503698696176,-5, -7, -4, 0, 1, -2, 0, -1
1503698696191,-3, 3, 9, 4, 2, -1, -3, -1
1503698696215,-1, 1, 0, -2, -2, -1, -2, -2
1503698696236,-1, -1, -4, -4, -3, 2, 1, 1
1503698696258,-4, -5, -4, -1, 1, -1, 0, 0
1503698696273,5, 3, -2, -1, -2, 3, 0, 0
1503698696296,-3, -3, -2, -3, 0, -2, -2, -1
1503698696311,-2, 0, 4, 2, 4, 0, -3, -1
1503698696333,-2, 1, -1, -2, 0, -2, -1, 0
1503698696356,-1, 0, 0, 2, -1, -1, 0, -1
1503698696371,-9, -8, 0, 1, 2, 0, -2, -2
1503698696393,-4, -3, -3, 1, -2, -2, -1, -2
1503698696417,-3, -1, -3, 0, -3, -3, -2, -8
1503698696431,3, 2, 0, -2, -2, 0, 1, 1
1503698696454,2, -2, -4, -4, -2, -6, -3, 1
1503698696476,-1, 0, -2, -1, -2, 0, 0, 1
1503698696491,3, 2, 1, 0, 0, -1, -1, 2
1503698696513,1, 2, 4, 2, 0, 1, -3, 2
1503698696536,-2, -3, -3, -5, -3, 0, 2, 0
1503698696552,-2, 1, -1, 0, 0, 0, -1, -2
1503698696573,-3, -3, -3, -1, 0, 0, 1, -4
1503698696596,4, -4, -4, -6, -5, -1, 2, 2
1503698696611,-4, 3, 3, -2, 3, -1, 0, -3
1503698696635,0, 3, 7, 8, 4, -2, -3, -1
1503698696656,4, -1, -2, -2, -5, -2, -2, 3
1503698696671,-5, 2, -3, -3, -1, -1, 0, 0
1503698696694,-4, -6, -10, -6, -2, 2, 1, 3
1503698696716,-6, 0, -2, 4, -1, -4, -3, -6
1503698696731,1, -1, 0, -3, -1, -2, 0, 1
1503698696754,3, 4, 11, 8, 4, 1, -2, -7
1503698696776,0, -7, -4, -4, 0, 0, -1, 4
1503698696798,3, -2, -2, 0, 0, 4, 0, -2
1503698696813,11, 9, -1, -3, -4, -3, -2, -1
1503698696836,-8, -3, -4, -5, -1, 2, 2, 1
1503698696859,-3, -4, -4, 0, -2, -3, 0, 5
1503698696873,3, 0, 2, -1, -1, -1, -1, 0
1503698696896,1, 2, 1, 2, 0, 0, -2, -5
1503698696920,-9, -4, -1, -1, 1, 1, 1, -2
1503698696933,-6, -6, -4, -3, -2, -2, -2, -2
1503698696956,3, 1, 3, -1, -1, -2, -1, 0
1503698696978,9, 2, -2, -1, -2, -3, -2, 5
1503698697008,1, 3, -1, -1, -1, -1, -1, -2
1503698697025,27, 8, -1, -2, -1, 0, 1, 6
1503698697046,-9, -5, -2, -2, 0, 1, 0, 3
1503698697068,-6, 0, 0, 1, 1, -2, -6, -6
1503698697086,-5, -3, -3, -4, -3, 1, 0, -4
1503698697114,-3, -2, -2, -3, -1, 0, 1, -2
1503698697129,-4, -1, 1, 0, -1, -1, -3, -7
1503698697144,1, -1, -1, -4, -3, 0, -1, 4
1503698697167,-3, -2, -2, 0, -2, 1, 0, -4
1503698697193,-9, -4, -2, -1, -3, -2, 2, -10
1503698697204,4, 1, 0, -1, 0, -2, 0, 2
1503698697226,-4, 1, 2, 0, 0, -1, 1, 1
1503698697248,3, -1, -2, -2, 0, -2, 0, -1
1503698697265,-6, -4, 1, 1, 0, -3, -1, -3
1503698697286,1, -3, -5, 0, -1, 0, -2, -1
1503698697309,2, -2, -1, -4, -3, 0, -1, 2
1503698697324,-5, -2, -1, -1, -1, 0, 1, -1
1503698697347,1, 2, 0, -1, 0, -1, 0, 2
1503698697368,-8, -6, 0, -1, 0, 1, 1, -1
1503698697384,-4, 1, -3, 2, -1, -2, -3, -2
1503698697407,2, -1, -4, -3, -2, 0, -2, 0
1503698697429,0, 2, -2, -1, -2, -1, -1, -3
1503698697444,-5, -2, -3, -1, 0, -2, -2, 0
1503698697467,1, -2, -3, -5, -3, -2, 0, 0
1503698697493,1, 5, 4, 2, -2, -2, -1, -2
1503698697504,3, 1, 2, 0, 2, -2, -1, 0
1503698697526,-12, -4, -2, 1, 0, 1, 1, -2
1503698697549,5, 3, 1, 2, 0, 1, -1, 3
1503698697564,0, -2, 2, 0, 1, 0, 1, -2
1503698697587,4, 2, -3, -5, -3, 0, -1, 2
1503698697609,0, 3, -1, -4, -1, 0, 1, 0
1503698697626,1, -1, 0, 0, 0, 1, -1, 0
1503698697646,8, 6, -3, -7, -4, -5, -1, -2
1503698697669,-4, 0, 0, -5, -2, -1, 1, 0
1503698697676,1, 2, 3, 2, 0, -1, 0, 0
1503698697699,-4, -14, -10, -2, -2, -3, -2, -1
1503698697721,1, -2, -2, -2, -2, -1, -2, -1
1503698697736,-1, 4, 1, 2, 3, 1, -1, 0
1503698697761,1, 5, 0, 1, -3, -1, -2, 0
1503698697781,-2, 2, 2, 3, 4, -1, -1, -2
1503698697796,-3, 2, 0, -1, -1, -2, -1, -3
1503698697818,-2, -1, 0, -3, -4, -2, -3, 1
1503698697842,-2, -2, -2, -2, 1, -1, 1, -2
1503698697856,0, 1, 0, 0, -2, 0, -2, 0
1503698697878,0, 1, -2, -3, -2, -2, 1, -1
1503698697901,-1, -3, -4, -2, -2, -1, 0, 0
1503698697916,4, 4, 0, -3, -2, -2, -3, 1
1503698697938,1, -2, -1, -1, -2, -3, 0, 2
1503698697962,-1, -1, -1, 0, -1, 0, 0, -2
1503698697976,2, -3, 0, 1, -1, 2, -2, -3
1503698697999,-2, 1, -2, -1, 0, 0, -2, -1
1503698698021,-1, -1, 1, 2, 3, -1, 1, 0
1503698698036,-5, -2, -3, -4, -2, 0, 0, -1
1503698698058,2, 0, 2, 2, -2, 1, -1, 0
1503698698081,10, 4, -2, -5, -6, -3, -3, 1
1503698698096,-2, -1, -3, -3, 2, 0, -1, -1
1503698698119,-4, 0, 1, 1, -8, -2, -1, -2
1503698698141,-2, -2, -2, -4, -1, -3, -2, -2
1503698698156,-4, -2, 0, -2, 1, -1, 0, -1
1503698698178,-5, -1, -1, 0, 3, -2, 0, -3
1503698698202,-2, 0, 0, 2, 3, 0, -1, 1
1503698698216,2, -1, 2, 1, -1, 0, 0, -2
1503698698239,-3, -4, -4, 3, -1, 0, 0, 0
1503698698261,-4, -4, -4, -4, -3, -2, -1, -1
1503698698276,2, -2, 1, -3, -2, -1, -2, 1
1503698698298,-1, -1, -2, 3, 1, 2, -1, -2
1503698698306,-2, 0, 0, -3, -1, 3, 2, 1
1503698698331,1, 2, -1, 2, -4, -2, -1, -2
1503698698351,-6, -4, -3, 1, -1, -2, 1, 0
1503698698367,-8, -7, -3, 0, -1, 0, -1, -2
1503698698399,4, 3, 3, 6, 5, 2, 1, 2
1503698698418,7, 4, -3, -3, -3, -2, -2, -1
1503698698441,-5, 0, -1, -2, -1, -1, -1, 0
1503698698456,3, -4, -4, -4, -3, -1, -4, -4
1503698698479,5, 3, 0, -2, -1, -1, -1, -1
1503698698501,-2, -2, -1, 2, 3, 0, -1, -2
1503698698510,-2, 0, -2, -3, -3, -2, -1, -1
1503698698533,-1, -1, -3, -5, -4, -1, -2, -1
1503698698546,7, 3, 1, 2, -9, -1, 0, 0
1503698698570,0, -2, -1, -3, -1, 0, 1, 0
1503698698591,-3, -5, -1, -3, 2, -1, -1, 0
1503698698606,1, 8, 5, 3, 4, 0, -1, -1
1503698698629,-5, -7, -3, -3, -1, 0, -1, 0
1503698698651,2, 0, -1, -5, -3, 0, 0, -2
1503698698673,-1, -1, -4, -1, -1, 0, 0, -3
1503698698689,8, 2, -2, -1, 0, -2, -1, 1
1503698698711,6, 2, -2, 2, 3, -1, -2, 1
1503698698735,-8, 2, 1, 3, 1, 0, -1, -4
1503698698749,-3, -5, 0, -4, -1, -2, -1, -2
1503698698771,-2, -2, -3, -2, -4, -1, 0, 1
1503698698793,3, -1, 1, -1, -2, -3, -2, -1
1503698698809,2, 2, -1, -1, -1, -1, 0, -1
1503698698831,3, -3, 0, 1, 2, 0, -1, 0
1503698698839,0, -3, -3, -4, -3, -2, -2, 1
1503698698861,-4, -6, -6, -4, -5, -2, -3, -3
1503698698883,-7, -3, 1, -2, -2, 2, 2, -2
1503698698898,0, 1, -2, -2, -3, -2, -2, -1
1503698698921,2, -1, -3, 0, -2, -1, 0, 0
1503698698944,4, 7, 5, 7, 5, 0, -2, -1
1503698698958,-1, -2, -1, -2, -3, -1, 0, 0
1503698698981,-1, 1, -1, -4, -3, 1, 0, 2
1503698699003,-1, -3, -1, -3, -3, -3, -2, -2
1503698699018,-7, -2, -2, 2, 0, 0, 1, -1
1503698699041,-5, -4, 0, 0, -1, -1, 0, 0
1503698699063,-3, 3, 1, -1, -2, -1, 0, 1
1503698699078,-1, 2, 0, -1, 0, -1, -1, -1
1503698699103,2, -2, -4, -4, -3, -1, 0, 0
1503698699123,4, 3, 1, 2, 3, 2, -2, -1
1503698699141,-2, -5, -3, 0, -1, -1, -1, 0
1503698699161,4, 6, 2, 0, -1, -2, -2, -2
1503698699182,0, -1, 1, 0, -2, -1, -2, 2
1503698699193,10, 4, -1, -1, -1, -1, -3, -1
1503698699213,-5, -3, -3, 0, 0, 0, 0, -2
1503698699229,-5, -2, 1, 2, 3, 0, 1, -4
1503698699251,-1, -1, 1, -1, 0, 1, -2, -2
1503698699274,2, -4, -6, -4, -2, 1, -2, 0
1503698699289,-2, -1, -2, 1, -1, 0, -1, 0
1503698699311,-8, -4, -2, -2, -2, -1, 1, -1
1503698699333,1, 1, -1, 1, -1, 0, -1, -1
1503698699349,4, 5, 5, 2, 0, -2, 0, 2
1503698699372,-5, -1, -1, 0, -2, -2, -2, 1
1503698699393,-7, -4, -5, -1, 0, -1, -3, -3
1503698699409,2, -2, -1, -2, -3, -2, 0, -3
1503698699431,18, 9, 1, -1, -1, -1, 0, 2
1503698699453,-1, -1, 0, -1, -1, -1, 0, 0
1503698699469,-8, 2, 1, -2, -1, 0, -1, -1
1503698699483,11, 14, 4, -2, -3, -3, -2, 0
1503698699498,-2, -6, -3, -3, -1, 1, 0, -1
1503698699521,5, 0, 1, 0, -1, -2, -2, -1
1503698699543,7, 1, -1, -1, -3, -1, 1, 0
1503698699558,12, 7, -2, -3, -2, -2, -3, 0
1503698699581,-10, -9, -3, -2, -1, 0, 0, -3
1503698699603,11, 3, -1, -1, -2, -1, -1, 1
1503698699625,-7, -3, 0, 0, 0, 0, 0, 0
1503698699642,-4, -3, -1, -1, 0, -1, 0, -1
1503698699669,-5, -4, -2, 0, 0, -1, 0, -2
1503698699685,-3, -6, -1, -1, 1, -1, -2, 1
1503698699708,-6, -1, -2, -1, 0, 0, -1, -2
1503698699722,-3, -3, -2, 1, 0, 1, -2, -1
1503698699746,-5, -5, -2, -1, -1, 0, -1, 0
1503698699761,-7, 3, 3, 1, -1, 0, 0, -3
1503698699783,-6, -3, 2, 0, 1, -1, 1, -1
1503698699807,1, -3, -5, -3, -1, 1, -2, 2
1503698699821,1, 2, 1, -2, -3, -1, -1, -2
1503698699843,5, 10, 1, -3, -3, -3, -5, -13
1503698699865,-2, -2, 1, 1, 2, 1, 3, 3
1503698699882,6, 2, -1, -3, 1, -3, -3, 2
1503698699903,0, 1, 0, 1, -2, -2, 0, 2
1503698699925,-5, -5, -2, -2, -3, -2, -1, -2
1503698699942,4, -1, -1, 0, 0, 0, 0, 2
1503698699962,-4, -6, -2, -1, -1, -1, 0, 2
1503698699985,-5, 0, 1, -1, 0, -3, -1, -2
1503698700001,-1, -2, -2, -1, 0, 1, -1, -4
1503698700023,1, -1, -4, 0, -1, -1, -2, 1
1503698700045,-5, 0, -2, 0, -1, 0, 1, 1
1503698700061,-7, -2, -1, 0, -1, 0, -1, 3
1503698700083,-4, -4, -1, -1, -1, -2, -1, -2
1503698700105,1, -1, -1, -1, -1, -1, -1, -2
1503698700121,0, 3, 0, -1, 0, 0, 0, -3
1503698700144,3, 2, 2, 1, 0, 1, 0, 1
1503698700165,-4, 0, 1, 1, -3, -1, 0, -2
1503698700181,1, 4, 2, -2, -1, 0, 0, -2
1503698700203,-5, -6, -4, -2, 0, 0, 0, -3
1503698700233,4, 1, -1, -2, 0, -2, -3, 2
1503698700241,6, 1, -2, 0, -1, 0, 0, 1
1503698700262,-5, -1, 5, -1, 1, -2, 0, 5
1503698700286,-3, -2, -3, -1, 0, -1, -2, -2
1503698700301,3, -1, -2, -1, -4, -3, -1, -1
1503698700322,6, -2, -3, -2, 0, 0, 0, 1
1503698700345,-5, -1, -1, 1, 1, 0, -1, 0
1503698700361,2, -3, -1, -1, -3, -3, -1, -4
1503698700383,-3, 1, 2, 1, 1, 0, 0, -2
1503698700391,-1, -1, 1, 1, 0, -2, 1, 2
1503698700413,-3, 3, 3, -2, 0, 0, -1, 0
1503698700436,-4, -1, 1, 1, -2, -2, 0, -5
1503698700451,-1, -4, -6, -4, -1, -2, -1, 2
1503698700473,-4, -3, -1, -1, -2, -1, 0, -2
1503698700495,-3, 4, 10, 3, 1, 2, 1, 2
1503698700518,-3, -2, -5, -2, -1, 0, 0, 2
1503698700541,-1, -1, -4, -3, -3, -3, -2, -8
1503698700556,-3, -2, -2, 0, 1, -1, -1, 2
1503698700580,4, -4, -2, -1, -1, 0, -2, 2
1503698700593,-2, 3, 0, -4, -2, 1, -1, -1
1503698700616,2, 0, -2, 0, 0, -2, -2, 1
1503698700643,-1, -1, -2, 2, -1, 0, 0, -2
1503698700653,2, 0, -2, -1, -1, -1, 0, 4
1503698700676,-10, -3, -1, -2, 0, -2, 0, -1
1503698700698,0, 1, 2, 0, -1, 0, -1, -3
1503698700714,4, 0, -2, -2, -3, -2, -1, 6
1503698700736,-7, -6, -4, -1, 2, 1, -1, -2
1503698700758,-5, -2, -4, 1, 0, -2, -1, -1
1503698700773,8, 2, -1, -3, 0, -1, -2, -3
1503698700795,5, 2, 1, -1, -1, 0, 0, -1
1503698700818,-10, -3, 1, -1, 2, -1, -1, -4
1503698700833,5, 9, -2, -3, -4, -3, -1, -1
1503698700857,-5, -7, -3, 0, 1, 1, 0, -1
1503698700878,-3, -4, -2, 0, -1, 1, 2, 10
1503698700893,5, 2, -3, -2, -2, -1, -1, 1
1503698700917,-7, -6, -8, -7, -2, -2, -1, -7
1503698700939,-3, -5, 1, -1, -1, 0, 0, -2
1503698700969,1, 3, 0, -2, 0, 0, 0, -1
1503698700991,-3, 4, 2, -1, 0, -2, -1, -2
1503698701006,-3, 3, -2, -2, -1, -1, -1, -1
1503698701029,5, 9, 9, 4, 3, 0, 2, -2
1503698701052,2, -2, 0, 1, -2, -1, -3, -4
1503698701066,7, 5, 1, -1, -2, 0, -2, 0
1503698701089,-11, -8, -5, 0, -1, -1, -1, -2
1503698701111,-4, -1, -2, -1, -2, -1, -1, -2
1503698701126,5, 3, -2, -2, -1, 0, -2, 0
1503698701152,10, 21, 13, 1, 1, 0, -1, 7
1503698701171,0, 0, 1, -3, 0, -3, -1, -3
1503698701187,1, -5, -5, -2, -1, -2, -1, -3
1503698701209,-12, -7, -5, 0, -3, 1, -2, -11
1503698701231,-2, -4, -5, -1, -2, -2, 1, 3
1503698701246,-3, -7, -6, -4, -1, 0, -1, -3
1503698701269,-2, -3, 0, -2, 0, -2, -2, 2
1503698701291,18, 12, 2, -1, -3, -2, -2, 0
1503698701306,5, 11, 5, 1, 0, 1, 0, 3
1503698701329,-15, -5, -1, -1, -1, 0, -1, -9
1503698701351,0, -8, -4, 1, -2, -3, -3, 0
1503698701366,-2, -5, -3, -1, -2, -1, 0, 1
1503698701389,-9, -9, -5, -1, -1, -1, 0, -3
1503698701411,-3, -7, -2, 0, 1, 0, -1, 1
1503698701427,10, 0, -2, -3, -1, -1, 1, 8
1503698701449,1, 1, -1, 1, -2, 0, -1, 3
1503698701471,6, -1, 0, 0, 0, 0, 0, 6
1503698701494,-8, -3, -1, -1, -1, -1, -1, -2
1503698701509,0, 1, 3, -1, -1, 0, -1, 1
1503698701531,1, 3, -2, -2, -2, -1, 1, -1
1503698701546,-10, -6, -1, 1, -1, 1, 0, -4
1503698701569,-2, -4, 1, -1, 1, -1, -2, -6
1503698701591,8, 4, -2, -3, -1, 0, -2, -5
1503698701606,-7, 3, 5, 2, 1, -2, -3, -28
1503698701629,0, 5, -1, -2, -1, 0, -1, 4
1503698701652,-6, -5, 3, 0, -1, 0, -2, -2
1503698701670,-14, -4, -2, 1, -2, 1, 1, -16
1503698701689,5, -1, -4, -2, -2, -2, -2, 8
1503698701711,1, 0, -3, -2, -2, -2, -2, 5
1503698701726,2, -2, -1, -2, -1, -3, 1, 11
1503698701748,21, 11, -1, -1, -4, -3, -4, -3
1503698701771,-15, -14, 0, 0, 1, 1, -1, -1
1503698701788,-6, -4, -2, 0, -1, -2, -1, -1
1503698701808,-2, -1, -1, -4, -1, 0, 0, -19
1503698701831,8, 4, -3, 2, -1, -3, -2, -1
1503698701846,-6, -4, -2, -4, 1, 0, 2, 7
1503698701869,-2, 1, 2, 1, 2, 1, 0, 8
1503698701892,7, -1, -3, 2, -1, -1, 0, 4
1503698701906,-9, -7, 2, 2, 0, 1, 0, 3
1503698701929,-4, 8, -2, -1, -1, -2, 0, -7
1503698701951,-2, -6, 1, -1, -2, -1, -5, -22
1503698701967,-5, -8, -6, -3, -1, -1, -1, 9
1503698701992,-2, -4, -3, -1, 1, -1, -1, -3
1503698702011,3, 4, 3, 2, 0, 0, 0, 9
1503698702029,-4, 2, 2, 0, 0, -1, -1, 4
1503698702049,0, 3, 3, 0, 0, -1, 2, 2
1503698702071,-5, -8, -6, -1, -2, 0, -3, 7
1503698702086,2, -4, -4, -5, -1, -1, 3, 13
1503698702109,8, 3, 2, 1, -1, 0, 0, 9
1503698702133,2, 9, 1, -1, -1, 1, 0, -2
1503698702146,-9, -4, -2, 0, -2, -3, 1, 10
1503698702163,3, -2, -2, -2, -3, -1, 2, 4
1503698702175,5, -2, -2, 0, 0, 6, 1, -1
1503698702199,13, 10, -1, -2, -2, 0, -2, 4
1503698702206,5, -3, 1, -1, -1, -2, 1, -1
1503698702229,1, 4, -3, -3, -3, -4, -3, -5
1503698702251,12, -1, -3, -2, -1, -1, -3, -11
1503698702274,-10, -6, -2, -2, -1, 0, -3, -9
1503698702289,-9, -5, 7, 1, 0, 1, 0, 4
1503698702311,-2, 3, -1, 1, 0, -4, 2, -3
1503698702327,5, -5, -6, 0, -1, 0, -3, -8
1503698702349,-7, 0, -2, -1, -3, 0, -4, -21
1503698702371,12, -6, -2, -2, 0, 1, 2, 9
1503698702393,-4, -1, -5, -3, 0, -1, 0, -6
1503698702401,-8, -5, -2, -2, -2, -1, 3, 5
1503698702409,-2, 0, -3, -1, -3, 0, 2, -5
1503698702431,-1, -4, -3, -2, 0, 0, -1, -2
1503698702453,0, 0, -3, 0, -1, -3, -10, 2
1503698702468,-2, 2, -2, -3, -2, -1, -1, 5
1503698702493,-3, 0, -4, -3, -1, -1, 0, -3
1503698702513,-4, -2, 1, 2, 1, -1, 0, 6
1503698702531,0, -9, -4, -1, 0, -1, 9, 13
1503698702551,-3, 4, 3, 2, 0, -2, 2, 16
1503698702574,-9, -8, -8, -3, -3, -2, -2, -10
1503698702591,-4, -2, -2, -1, -1, -1, -5, -6
1503698702611,2, 8, 4, -3, -1, -3, -3, -4
1503698702634,-8, -3, -4, -2, -1, -1, -7, -34
1503698702649,-2, -2, 0, 1, 1, 0, 2, 5
1503698702671,-3, -2, 2, 1, 1, 1, 1, 4
1503698702695,-5, -7, -3, -3, 0, 1, 3, 6
1503698702702,2, -2, -2, 0, 0, -2, -1, 6
1503698702723,-1, -4, 4, 0, -2, -2, -1, -3
1503698702738,1, -3, -3, -4, -1, -2, 1, 2
1503698702762,-10, -8, -3, -1, -2, 0, -2, -7
1503698702783,11, 2, 0, 0, 1, 0, -2, 14
1503698702798,-4, 3, 1, -1, -3, -1, -2, 4
1503698702821,-2, 1, 1, -1, -1, -2, 1, 5
1503698702843,-13, 0, 7, 3, 1, 2, 0, -13
1503698702858,-4, 2, -1, 0, -1, -1, 0, -4
1503698702880,1, 0, -3, -3, -1, 0, -1, 2
1503698702904,12, 6, 2, 0, 0, -1, 1, 9
1503698702918,-1, 1, -4, -1, -2, 0, 1, 0
1503698702940,-3, 5, -1, 1, 1, -2, -8, -14
1503698702964,-4, -2, -3, -3, -2, -2, -6, -7
1503698702978,8, 1, 1, 0, 1, -1, 2, 5
1503698703001,-1, -1, 3, 0, 2, 0, 1, 6
1503698703023,-16, -7, -1, 2, 0, 2, 1, -4
1503698703038,7, 1, -5, -2, -2, -1, -2, -6
1503698703060,-5, -7, -1, -1, -1, 1, 2, 3
1503698703084,1, -6, -3, -3, -2, -2, -4, -6
1503698703103,1, 0, -1, -2, 0, 0, -1, -2
1503698703121,2, 3, -3, -2, -2, -1, 0, 0
1503698703144,0, 0, 4, 0, -1, 0, 1, 3
1503698703158,9, 4, -1, 0, 0, -2, -1, 3
1503698703181,0, -6, -4, -1, -1, 0, -1, -2
1503698703203,-2, 1, -3, -1, -2, -3, -3, 3
1503698703218,-1, 3, 2, -2, -1, -1, -2, -4
1503698703241,-6, -6, -2, -1, -1, 0, -1, -3
1503698703265,-5, -1, -1, 1, 0, -1, -1, -2
1503698703278,-1, 1, 2, 2, 0, 1, 2, 7
1503698703301,15, 0, -5, -3, -3, -2, 0, 2
1503698703323,-19, -8, -1, 1, 0, -1, 1, -6
1503698703345,-5, 0, -2, -2, -1, 0, -2, -2
1503698703360,8, 4, -3, 0, -3, -1, -1, 2
1503698703383,6, 1, -1, -2, 0, -1, -1, -5
1503698703405,-1, -1, 0, -2, 0, 0, -1, 1
1503698703420,-1, -3, -2, -2, -3, -1, -1, -3
1503698703443,-3, -4, 1, -2, -2, -2, -1, -1
1503698703467,-11, 2, 2, 0, -3, -1, -4, -7
1503698703480,-6, 0, 0, 0, 1, 0, 0, -2
1503698703504,-1, 0, -1, 0, 1, 0, 0, 2
1503698703525,4, 0, 1, 0, 0, -1, 0, 3
1503698703547,1, 1, 1, -2, 0, 0, 2, 0
1503698703563,-4, -5, -4, 1, -1, 0, -2, -2
1503698703585,1, -3, -1, 0, -1, 0, 0, 4
1503698703604,2, 1, 2, 2, -1, 0, 1, -3
1503698703623,-2, -2, -3, -1, -2, -1, 1, 3
1503698703648,4, -4, -4, -3, -1, 0, -4, -14
1503698703674,-1, 0, 2, 1, 0, -1, 1, 0
1503698703683,9, 2, -2, -4, -3, -4, -4, 0
1503698703705,-9, -3, -3, 0, 0, -1, 0, -3
1503698703720,9, 2, -2, 0, 0, 0, 0, 12
1503698703744,-8, -5, 2, -1, -1, 1, 0, 1
1503698703765,-1, 2, 2, -1, -1, 0, -2, -4
1503698703780,-10, -2, -4, 0, 0, -1, 2, 2
1503698703805,27, 6, 1, 1, -1, -2, -2, 4
1503698703825,-9, -2, 3, 2, 0, 1, 1, -3
1503698703841,0, 0, -3, -1, -3, -2, -2, 1
1503698703863,4, 1, -2, -5, -2, -2, 0, -2
1503698703885,2, 4, 0, 0, 1, 1, -2, 2
1503698703903,-15, -6, -1, 0, 0, -1, -3, -10
1503698703924,-9, -6, 1, 0, -1, 1, -1, -3
1503698703945,-9, -4, -3, -3, -1, 0, -1, -3
1503698703960,-4, -6, -5, -1, -1, -3, 1, -4
1503698703983,6, 2, 4, -1, 0, -1, -1, -7
1503698704005,0, 8, 7, 0, -1, -2, -2, 3
1503698704020,-7, -5, -3, -2, -1, -1, -1, -1
1503698704043,-4, -6, -7, -4, -2, 1, -1, 5
1503698704065,17, 5, -2, 2, -1, -2, 0, 9
1503698704080,-8, 0, 3, 1, 0, 0, 0, 2
1503698704104,-1, -2, -2, -2, -1, 0, -2, -2
1503698704125,17, 7, -1, -3, -3, -3, -1, -3
1503698704140,-3, -2, -1, 0, -2, -3, -1, -3
1503698704163,-10, -8, -4, -3, 0, 1, 1, 1
1503698704193,-4, 1, 0, 2, -1, -1, 1, 0
1503698704200,-2, 1, -4, 0, -2, -1, 0, -7
1503698704223,-2, -3, -2, -1, 2, 0, -1, -3
1503698704245,-6, -7, 0, 0, 0, 0, -2, -10
1503698704267,-4, -3, 2, 0, 0, -1, -1, 2
1503698704283,4, 2, 1, 0, -2, 1, -1, 1
1503698704305,0, -2, -4, 1, 0, -1, -1, 2
1503698704327,-2, 3, 2, 2, -1, -2, -2, -1
1503698704343,-11, -5, -1, -2, -1, -2, -1, -1
1503698704365,1, 4, 8, 3, 1, 0, -1, -1
1503698704387,0, -3, -4, -2, -1, -1, 0, 0
1503698704403,7, 11, 6, 2, 1, -1, 0, 0
1503698704425,2, -4, -3, -4, -1, 0, 0, 1
1503698704448,-6, -1, -3, -1, -1, -1, 0, -1
1503698704463,-1, -3, -3, 0, -1, -1, -1, -3
1503698704485,-1, -3, -6, -1, -1, 0, 0, 3
1503698704508,-3, -2, -4, -2, -1, 0, -1, 1
1503698704523,-1, 1, -2, -4, -4, -3, -1, -5
1503698704545,15, 13, 5, 1, -1, -1, -1, 3
1503698704567,-5, -4, -4, -4, -3, -2, -1, -1
1503698704584,-5, -5, -4, -3, -1, -2, -1, -4
1503698704608,0, -3, -1, 0, 0, 0, -2, -3
1503698704627,1, -2, 3, 4, 2, -3, -2, 0
1503698704643,-3, 1, 4, 0, -1, 0, -2, -2
1503698704665,0, -5, -10, -5, -4, 0, 0, -1
1503698704687,-4, -2, -2, -3, -3, -2, 0, 0
1503698704703,7, 4, 0, -2, -2, -1, 1, -1
1503698704725,4, 3, 1, 2, 0, 0, -1, 1
1503698704747,-2, -2, 0, 2, 2, 0, -2, -3
1503698704763,-10, -3, -1, -1, 0, 0, -2, 1
1503698704792,3, -2, -3, -4, -3, 0, 0, 1
1503698704810,-4, -4, -1, -2, -1, 0, 1, 4
1503698704823,-9, -5, -4, 0, -1, -2, 0, -2
1503698704846,-2, 2, 0, 0, -2, -2, -1, -3
1503698704867,17, 6, 1, 0, 1, -2, -2, 0
1503698704883,0, -2, -1, 0, 1, -1, -2, -1
1503698704905,-6, -7, -7, -4, -3, 0, -1, -3
1503698704927,-6, -1, 2, 0, 0, -1, -1, 1
1503698704944,-8, 0, 1, -1, 0, 0, 0, -3
1503698704965,-9, -6, 0, 1, 1, 1, 0, -2
1503698704987,7, -2, -6, -4, -3, -2, -1, 4
1503698705003,2, 0, 1, 5, 0, -1, -2, -7
1503698705025,-1, 13, 6, 0, -2, -1, -2, -5
1503698705047,-5, -6, -3, -4, -3, -1, 0, 7
1503698705063,-4, 0, 3, 4, 3, 0, -1, 2
1503698705086,-1, 0, -3, -2, -1, 0, 1, -2
1503698705107,-1, 5, 10, 4, 4, -1, -3, -8
1503698705123,2, -5, -5, -7, -5, 0, 0, 0
1503698705146,17, -1, -6, -1, -2, 0, -1, 1
1503698705167,8, 5, 2, -2, -1, -2, 0, 10
1503698705190,-12, -15, -9, -2, -3, -2, 0, 7
1503698705205,-2, -1, -3, -1, -2, 0, 1, -2
1503698705227,2, 0, -4, -1, -1, -1, 1, -4
1503698705250,-4, 1, 3, -1, 1, -1, 0, 3
1503698705265,1, -1, -6, -7, -8, -1, 3, -5
1503698705288,-1, 3, 2, 2, -2, -3, -4, -10
1503698705310,-5, -11, -9, -1, 0, 1, -4, -4
1503698705325,10, 15, 11, 5, 2, -2, -3, 1
1503698705347,-6, -10, -3, 0, 0, -2, 1, 1
1503698705370,6, 2, -1, -1, 1, -2, -3, -3
1503698705386,5, -2, 0, 0, 1, 1, 0, 5
1503698705407,0, 0, 0, 0, 0, -1, 0, 11
1503698705430,-1, -1, -3, -2, -1, -1, -3, -4
1503698705447,-6, 5, 4, -1, 0, 0, 1, -6
1503698705461,-1, -2, -4, 0, 1, 0, -1, 3
1503698705475,16, 4, 5, 2, 2, -1, 0, 9
1503698705498,3, 0, -2, -1, -2, 0, 0, 3
1503698705521,5, 0, 3, 1, -2, 0, 1, 3
1503698705535,-1, -2, -3, -2, -1, -1, 2, 5
1503698705558,-9, -6, -2, 0, -1, 2, 1, -2
1503698705581,-13, -4, -3, -5, -1, -1, -2, -10
1503698705595,5, 2, 0, -1, -2, -3, -3, 3
1503698705618,1, 0, -2, -1, -2, -1, 0, -1
1503698705640,4, 0, -2, -2, 0, 1, -1, 0
1503698705656,-3, -3, -1, 1, 0, -2, -1, -6
1503698705678,-1, -1, -1, 0, 0, 0, -1, 3
1503698705700,-13, -7, -4, -1, -1, 0, 0, 0
1503698705717,-6, -3, -2, 2, 0, -1, -3, 0
1503698705738,6, 4, 5, -1, -1, -2, -2, 1
1503698705760,3, -2, -4, -1, -1, -1, -2, -6
1503698705775,5, 3, 2, -1, -2, -2, -1, -2
1503698705798,9, 2, 2, 0, -1, -1, -1, -1
1503698705821,-6, -4, -1, 0, -2, -1, 0, -2
1503698705835,1, 2, 1, 0, 1, -2, 0, 0
1503698705859,-1, 1, -2, 0, 0, 1, -1, 0
1503698705883,-5, -4, -5, -1, -2, -3, -1, -2
1503698705895,1, -1, -1, -1, -3, 0, -1, 0
1503698705918,-4, -9, -5, -3, 0, -1, -1, -5
1503698705940,-14, -5, -2, -2, -1, -2, 0, -2
1503698705956,-4, -3, 0, -1, 0, -1, 0, 1
1503698705978,2, 3, 1, -3, 0, 1, -2, -2
1503698706000,6, 4, 2, 0, 0, -2, -2, -2
1503698706018,-4, -2, -1, -2, -1, 0, 0, -1
1503698706031,-1, 0, 1, -1, -1, -1, 2, 0
1503698706054,1, 2, 7, 2, 0, -2, 0, 3
1503698706075,-1, 2, -1, -1, 0, 0, -2, -1
1503698706091,4, 9, 6, -1, -1, -1, 0, -2
1503698706113,-1, -4, -5, -1, 0, -2, -2, -3
1503698706128,-1, -4, -2, 0, -1, 0, 1, -2
1503698706153,-4, -2, 0, 0, 0, -1, 0, -2
1503698706174,-2, -4, -5, 0, -1, 0, -2, -2
1503698706189,-8, -7, -2, 0, 0, -2, 0, -1
1503698706211,-2, -2, 2, -3, -1, 1, 0, 1
1503698706233,-6, -1, -2, -3, 0, 0, -3, -1
1503698706240,-4, 1, 2, 2, 1, -1, 0, 2
1503698706263,-1, 0, -4, -1, 0, 0, 0, -2
1503698706289,1, -1, 0, -2, -4, -1, 0, -1
1503698706300,1, -1, 0, 0, -1, -1, 0, 0
1503698706323,2, 4, 5, 2, 2, -2, 0, -1
1503698706338,-4, 0, -5, -3, 0, -1, -2, -2
1503698706360,0, -1, -2, 0, -1, -1, 0, 0
1503698706383,3, -4, 0, -1, -2, 0, -2, -3
1503698706398,-4, -2, 0, -1, -1, -1, 1, 0
1503698706422,-8, -5, -2, -1, -1, -1, -1, -1
1503698706443,5, -3, -1, -1, 1, -2, -3, 0
1503698706458,-6, -4, -1, 0, -1, -1, 1, -2
1503698706480,1, -1, -4, -2, -1, 0, -2, 0
1503698706503,9, 4, 2, 1, 0, 1, -1, 0
1503698706518,-4, -2, -2, -4, -1, -1, 0, 1
1503698706540,-2, 3, 0, 0, 0, 2, -3, -2
1503698706563,2, 1, -4, -2, -2, -3, -1, 1
1503698706578,5, 2, 3, -2, 0, -1, 0, -1
1503698706602,6, 4, 1, 1, 0, -1, -3, -2
1503698706624,3, 1, -3, 0, -2, 1, 0, -1
1503698706638,3, 1, -1, -2, -2, 0, 0, -3
1503698706669,-5, 2, 1, 0, -1, -2, -1, 1
1503698706684,1, 1, 2, -2, 0, -3, -2, -1
1503698706698,-5, -5, -2, 2, 2, -2, 0, -1
1503698706723,-7, 1, -2, -1, 0, -1, -1, 0
1503698706743,-2, -4, -1, -2, -1, -2, -2, -3
1503698706758,1, -1, 2, 0, -3, 0, -1, -1
1503698706780,8, 2, -2, -2, 1, 0, -1, 0
1503698706803,-5, -1, 1, 2, 1, 0, -1, 0
1503698706818,-2, -4, -2, -1, -1, 1, 0, 1
1503698706840,6, -3, -3, -2, 0, -1, -1, 0
1503698706863,-7, -4, -2, -1, -2, -3, -1, -1
1503698706878,-8, 1, -1, 1, -1, -1, -1, -1
1503698706900,2, 1, -1, -2, -2, -1, -1, -2
1503698706924,-1, 1, -1, -1, -1, -1, -1, -1
1503698706938,4, 3, 0, -3, -1, -1, 0, 0
1503698706960,5, 3, 0, 0, -2, 0, -1, -1
1503698706983,0, -3, 2, 1, 2, 0, -2, -1
1503698706998,-2, -4, 0, -1, -1, -1, -2, -3
1503698707021,-6, -5, -1, -2, -1, 0, -1, 0
1503698707043,0, 1, -2, -1, -3, -2, -2, -1
1503698707065,0, -2, -1, -2, 0, 0, 0, -1
1503698707080,-6, -3, -3, -1, 1, -1, 1, -1
1503698707103,-2, 3, 1, -1, -2, -1, 0, -2
1503698707126,-2, -2, -1, -1, -1, -2, -1, -2
1503698707140,5, -5, -4, -3, 1, 0, -1, 1
1503698707156,-3, -3, 0, -2, -2, -2, 0, -2
1503698707171,-3, -6, -2, -1, 0, 0, 0, -1
1503698707193,-2, 4, -2, -1, 0, 0, 0, 0
1503698707215,3, 4, 4, 0, -1, -2, 0, 1
1503698707231,9, 3, 0, 0, 0, 1, -1, 0
1503698707253,-6, -3, 2, 1, 1, -1, -2, 0
1503698707275,-2, -5, -6, -3, -1, -1, -1, -2
1503698707293,-6, 1, -2, -1, -1, -2, 0, -1
1503698707313,-5, -5, -4, -2, -3, 0, 0, 0
1503698707335,1, -4, -2, -2, -1, -1, -1, -3
1503698707343,-1, -3, -3, -1, 0, 0, 0, 0
1503698707365,2, -1, -2, -1, -2, -1, -1, 1
1503698707382,-3, 0, 0, 0, 0, -1, 0, -1
1503698707403,-1, 6, 2, 1, -1, -1, 1, 0
1503698707427,2, 2, 0, -2, 0, 0, -1, -2
1503698707440,3, -3, 1, 2, 0, -1, 0, -1
1503698707463,-3, 0, 2, 1, 0, -1, -1, -1
1503698707485,-4, -1, 0, -2, -2, 1, -1, -1
1503698707500,-13, -7, -2, 0, 0, -1, 1, 0
1503698707523,-4, -4, -2, -2, 0, -2, 0, -2
1503698707545,-4, -8, -3, -3, -2, -1, -2, -2
1503698707562,0, -3, -3, -1, 1, 1, 0, 0
1503698707583,7, 6, 0, -2, -1, -1, -1, 0
1503698707605,1, 0, -2, -1, -1, -2, 0, -1
1503698707620,-2, 1, 0, 0, -1, 0, 0, 1
1503698707643,-3, 1, 2, 3, 1, 0, -1, 0
1503698707669,4, -4, -2, -3, -1, -2, -1, -2
1503698707680,-5, -2, -3, 0, -2, -2, -1, 0
1503698707703,1, 2, 1, -1, -1, 0, -1, 0
1503698707725,-5, -4, -2, 0, 0, -1, -1, -2
1503698707733,4, -2, -2, 1, 0, 1, -1, -2
1503698707755,5, 0, -1, 1, -2, -2, 1, -2
1503698707771,-6, -3, 0, 0, 1, -3, -1, 0
1503698707793,1, -1, -4, -4, -2, -1, -2, -2
1503698707815,2, 1, 0, -2, -1, -2, 0, 1
1503698707831,-2, 3, 2, 0, -1, 2, 0, -1
1503698707853,-5, -5, -1, 0, -1, -1, -1, -2
1503698707875,3, -2, -3, -2, -1, -1, 0, -2
1503698707891,-7, -4, -1, 0, 0, -1, 0, -2
1503698707913,-7, -4, -1, -2, -2, 0, -1, -1
1503698707936,-1, -3, -4, -2, 0, -1, -1, -1
1503698707951,19, 5, -2, -1, 0, -1, -2, 0
1503698707973,-2, -5, -1, -1, 1, -1, -1, 1
1503698707995,-10, -1, 0, -2, -1, 0, -3, -2
1503698708018,0, -4, -4, 1, 0, -4, -2, 0
1503698708034,14, 9, 0, -4, -2, 0, 0, 1
1503698708055,-5, -1, 1, 1, 1, -1, -1, -2
1503698708078,-11, -3, 2, 0, -2, 0, 0, 0
1503698708093,5, 1, -1, 1, 1, -1, -1, -1
1503698708115,-3, -1, 0, 1, -3, -1, -1, -1
1503698708138,-3, -1, -1, -1, 0, -2, -1, -1
1503698708153,3, 2, -1, -3, -2, 0, -1, -3
1503698708175,-10, -7, 1, 0, -1, 0, 3, 1
1503698708199,1, 2, 2, 1, 1, -3, -1, 0
1503698708213,-4, -2, -1, -1, -1, 1, 0, -1
1503698708236,-6, -4, -2, -1, -1, 1, 0, -1
1503698708258,5, 4, 2, 0, 1, -2, -1, -1
1503698708273,1, 1, -2, 0, -3, -1, 0, 0
1503698708295,-7, -8, -6, 0, -1, 2, 1, 1
1503698708318,-1, -3, -1, 0, -1, 0, -1, 1
1503698708334,2, 3, -3, -3, 0, -1, -1, -3
1503698708355,-2, 0, 1, 0, 1, -1, -1, 2
1503698708378,-3, -2, 0, -1, -3, -2, -1, -3
1503698708393,4, 1, 1, -1, -1, 0, -1, 0
1503698708415,13, 0, -1, 1, 1, -1, -1, -1
1503698708438,2, 1, -1, 0, 0, 1, -2, -2
1503698708453,-3, -1, -5, -2, -2, -1, 0, -2
1503698708475,-3, 1, 2, 0, 1, -1, -1, 1
1503698708498,6, 0, 3, -1, -2, -2, -1, -1
1503698708513,-2, -1, 0, 0, 0, -1, -1, -1
1503698708536,-8, -6, -5, -3, -2, -2, -2, -1
1503698708558,1, 5, 2, 0, 0, 1, 0, 0
1503698708573,2, -4, 0, -2, -2, -1, 0, 0
1503698708596,-6, -4, -2, -1, -2, -1, -2, 0
1503698708618,3, 6, 1, 0, 0, -2, 0, 1
1503698708636,-3, -4, -4, -2, -1, -1, 0, -3
1503698708656,10, 6, 0, -1, 0, 0, -1, 0
1503698708678,-10, -6, -1, 0, -1, -1, -1, -1
1503698708693,-7, 0, 1, -1, 1, -3, -2, -3
1503698708716,-5, -3, 0, 1, 1, 1, -2, -1
1503698708738,-2, 0, -3, -1, -2, 0, 0, 1
1503698708753,9, 4, -1, -2, -2, -2, -1, 1
1503698708776,-1, 0, -2, -1, -1, 0, -1, -1
1503698708798,1, -2, 13, 5, 2, 0, 3, 0
1503698708813,-13, -13, -12, -5, -3, -3, -3, 0
1503698708838,-6, 2, 14, 4, 2, 2, 2, 1
1503698708858,4, 1, -6, -4, -4, -2, -3, -2
1503698708873,0, -1, -3, -2, 0, -1, 0, -2
1503698708896,-1, -2, -6, -3, -2, 0, -2, -2
1503698708918,0, 2, 0, 1, 0, 5, 0, 0
1503698708941,-2, -2, 0, -3, 1, -4, -2, -2
1503698708956,-8, 4, 2, -1, -1, -2, -1, -1
1503698708978,-1, -1, 0, 2, 0, 0, -1, -2
1503698709000,2, 3, 4, 1, 1, 0, 1, 0
1503698709009,-3, -3, -2, 1, 1, 0, -1, -3
1503698709030,-5, -6, -1, 0, -2, 0, 0, 1
1503698709045,-3, 0, -3, -1, -2, -1, -1, 1
1503698709068,-1, -1, 2, -2, 2, 0, -1, -2
1503698709090,-3, 1, -4, -2, -3, 0, 1, 0
1503698709108,-1, -10, -8, -4, -2, -2, -2, -1
1503698709128,-3, -2, -1, -2, -1, 0, -1, 0
1503698709150,-6, -2, 1, 0, -1, -1, -2, 0
1503698709165,5, 7, 5, 2, 1, -2, 0, 1
1503698709189,-7, -5, -4, -3, -1, -1, -2, -1
1503698709210,2, 4, 2, 1, -1, -1, 0, -1
1503698709225,5, 3, -3, 0, -1, 1, -1, -3
1503698709250,-6, -8, -5, -1, -1, -2, -1, -2
1503698709269,-1, -3, -6, -3, -2, -2, 0, 1
1503698709285,6, 9, 6, 4, 2, 1, 1, 0
1503698709308,-2, 4, -1, -1, -2, -1, -1, -2
1503698709329,-3, -5, -2, -4, -1, 0, -1, -3
1503698709345,-4, -5, -4, -2, -2, -1, -1, -1
1503698709368,0, -6, 1, -1, 1, 0, -2, 0
1503698709390,-1, 2, 3, 2, 1, 0, -2, 1
1503698709413,-2, -1, 4, 2, 0, 0, 0, -3
1503698709428,-1, 1, -3, -1, -1, -1, 1, -2
1503698709450,-5, -7, -5, -4, -2, -2, 0, 0
1503698709465,7, 4, 3, 0, -1, -1, -12, 3
1503698709488,0, 2, 0, -1, 1, 0, 2, 0
1503698709510,0, 8, 4, 4, 1, 1, 2, -1
1503698709525,-2, -3, -6, -1, 0, -1, 2, -4
1503698709543,-3, -2, -3, 0, -3, -1, -1, -2
1503698709556,1, -3, -3, -2, -2, 0, -2, 2
1503698709578,0, -3, -3, -1, 0, -1, -2, -2
1503698709600,5, 7, 12, 4, 2, 1, -2, 3
1503698709616,-4, -4, -4, -2, -1, 0, 0, 0
1503698709638,-1, -4, -4, -3, 0, -3, 0, 1
1503698709660,1, -1, 0, 1, 0, 0, 1, -3
1503698709677,0, 1, -3, -2, -1, -2, -2, -1
1503698709698,-4, -2, -2, 0, -1, -1, -4, -13
1503698709720,-2, 6, 3, 0, 1, 0, -1, 2
1503698709736,-7, -5, -1, 0, -2, -1, 1, 0
1503698709758,2, -7, -4, -3, -3, -1, -1, 0
1503698709780,-3, -5, -4, 0, 0, -2, 0, -1
1503698709796,-4, 1, 2, 1, -1, -1, -3, -4
1503698709819,0, -3, -4, -2, -3, -2, 0, 4
1503698709840,-3, -7, -3, -2, 0, -1, 3, 0
1503698709863,-2, 10, 3, 1, 2, 1, -3, 0
1503698709878,2, -6, -6, -4, -2, -2, -1, 3
1503698709900,1, 2, 0, -2, -2, 0, 1, -2
1503698709922,3, -1, 0, 1, -1, -1, 1, 0
1503698709939,-2, 4, 10, 2, 0, -1, -1, -4
1503698709960,1, 7, 6, 2, -1, 0, -1, 0
1503698709983,2, -4, -6, -3, -1, -1, -7, -3
1503698709998,-2, -4, -5, -1, 0, -1, 0, 3
1503698710021,-3, 1, 0, 1, 1, -2, -2, 0
1503698710028,-5, 2, 0, 0, -2, -1, 1, -4
1503698710050,-2, -4, -3, 1, 0, -1, -3, -3
1503698710072,-7, -6, -2, -3, -1, -1, -1, -5
1503698710088,-6, -6, -2, -1, 0, 0, -1, -14
1503698710109,9, 0, -4, -2, -3, -1, -1, 5
1503698710132,-2, 5, 4, -1, -2, -1, 2, -6
1503698710148,-5, 0, 5, 6, 2, 1, -1, -1
1503698710169,5, 1, -2, -4, -2, 0, -1, 5
1503698710192,-4, -1, -2, 0, -1, -1, -1, -1
1503698710208,-6, -4, -2, -1, -1, -1, -1, -5
1503698710229,6, -1, -2, -1, -1, -2, 2, 2
1503698710252,1, -1, -2, -2, 0, -1, 2, 4
1503698710267,-1, -2, -3, -4, -3, -1, -2, -9
1503698710290,-2, 1, -1, -2, 1, -1, 0, 13
1503698710298,4, 0, -3, -2, -2, 1, -2, 5
1503698710320,-8, -10, -5, -3, -1, -1, -2, -5
1503698710343,-4, 1, 1, 1, 1, -1, -3, -5
1503698710358,-1, 0, -3, -4, -2, -1, 2, 4
1503698710381,-6, 1, 1, 0, -1, 1, -1, -5
1503698710403,6, 12, 10, 2, 0, 0, -2, -4
1503698710418,-3, -2, -1, -1, 1, 0, 1, 5
1503698710440,7, -2, -4, -3, 0, 0, -2, 1
1503698710463,-5, -4, 1, 0, 0, -2, -3, -4
1503698710478,-3, -3, -6, -3, -3, -2, -4, -19
1503698710500,-1, -4, -1, 0, -1, -1, 0, 4
1503698710523,1, 2, 2, 2, 0, -1, 1, 3
1503698710538,-1, -1, -2, 0, 0, -1, 4, 6
1503698710560,6, 0, -2, 0, 0, 0, -3, -17
1503698710568,4, 4, 3, 0, 0, 1, 0, -2
1503698710589,2, -2, 1, -3, 0, 1, 4, 7
1503698710612,-4, -2, -3, 0, -2, -1, 1, 0
1503698710628,3, 4, 2, 1, 0, -1, -1, 0
1503698710650,8, -2, 0, -1, 0, -2, 0, 13
1503698710672,-7, -2, -4, 0, -2, -2, -11, -23
1503698710688,-5, -4, -4, -3, 0, 2, 7, 0
1503698710709,-4, -1, -3, -4, -1, -2, -2, -1
1503698710732,0, 0, 0, 1, -2, -1, 3, -1
1503698710755,-1, -3, -2, -2, 0, 0, -2, -3
1503698710769,-2, 1, 0, -2, -2, -1, 5, -4
1503698710793,-10, -3, 0, 2, 1, -1, -1, 1
1503698710814,-12, -3, -1, -1, -1, -1, -1, -8
1503698710830,13, -2, -3, 0, 0, 0, -5, 7
1503698710853,13, 18, 9, -2, -2, -3, 2, -6
1503698710884,-3, -11, -6, -1, -1, 0, 1, 2
1503698710890,1, 0, -1, 1, 1, -2, -2, 3
1503698710912,-12, -11, -5, -4, -3, -2, -4, -8
1503698710935,-6, -6, -3, -2, -1, 0, -1, -2
1503698710952,9, 5, 3, 3, 1, -1, 0, -1
1503698710972,-11, -6, -8, -2, 1, -2, -1, -7
1503698710996,3, 8, 0, -4, -2, -1, -3, -2
1503698711020,7, -6, -6, -2, -3, -3, -3, 0
1503698711033,-4, 2, 6, 3, 2, 2, -2, 3
1503698711056,3, -4, 1, -2, -1, 1, 2, -1
1503698711071,3, 4, 2, 2, 0, 0, -2, -2
1503698711093,-10, -3, -4, -1, -1, 1, 0, -1
1503698711116,2, -5, -5, -3, -5, -3, -2, -5
1503698711138,2, 0, 0, 2, 0, 0, 0, 2
1503698711154,-3, -1, 3, 1, -1, 0, -2, 1
1503698711176,0, 9, 2, -2, 0, -1, 2, -2
1503698711198,-4, 6, 2, 2, -1, 1, 1, 4
1503698711221,8, 2, -4, -5, -3, -1, -2, 0
1503698711243,4, 4, 5, 3, 2, 1, 1, -2
1503698711265,-7, -5, -4, -2, -3, -2, -1, -3
1503698711280,-4, 18, 12, 3, -1, -1, -1, -1
1503698711303,-3, 1, 0, -1, 1, 1, 0, -3
1503698711325,-3, -8, -3, -2, -1, -1, -3, 1
1503698711340,-1, -7, -4, -3, -2, -1, 1, 3
1503698711363,-10, 6, 7, -1, 0, -2, 0, -3
1503698711385,-3, -5, -1, 1, -1, 2, 1, 3
1503698711400,-3, 15, 7, 3, 0, 0, -1, 5
1503698711424,2, -4, 7, 2, 0, 0, 0, 2
1503698711445,10, -9, -7, -4, 0, -3, -1, 7
1503698711461,7, 1, -8, -3, -1, -1, -2, -4
1503698711483,2, 1, -6, -2, -2, -1, 1, 2
1503698711505,-13, -7, -2, -2, 0, -1, -4, -10
1503698711523,1, 6, 1, -1, -1, -1, 1, -4
1503698711543,-9, -5, -1, -1, -3, -3, 1, -2
1503698711566,10, -2, 8, 2, 2, 0, -5, 0
1503698711580,-5, -3, -6, -1, -1, -1, 4, 1
1503698711603,-5, 1, -1, -2, -3, -1, 4, 14
1503698711625,0, -4, -2, -2, -1, 1, 0, 3
1503698711640,-7, -3, -2, 1, 0, -2, -5, -8
1503698711663,-4, -6, -5, -2, -2, -1, 2, 0
1503698711685,-1, 10, -1, -2, 1, -2, -2, -21
1503698711708,5, -5, -4, -2, -2, 0, -4, -2
1503698711724,-2, 0, 2, 2, 0, 0, -2, 2
1503698711745,-3, -3, 1, -1, 0, 1, -2, 1
1503698711768,1, -4, -6, -2, 0, -1, 0, -3
1503698711776,-3, 4, -4, -3, -1, -3, -5, 1
1503698711798,-7, -2, -2, 0, -1, -3, 0, 12
1503698711813,-3, -1, 0, -2, 0, -1, 0, 3
1503698711843,14, 4, -2, -3, -2, -2, -9, -6
1503698711908,5, -5, -5, -1, -1, -2, -3, 0
1503698711915,0, -1, -6, -3, -1, 0, 2, -4
1503698711925,1, -1, -3, -1, 0, -1, 5, 10
1503698711948,-8, -7, -5, -1, 0, 1, -1, -8
1503698711963,-6, -4, -4, -2, -3, -3, 0, -5
1503698711985,7, -2, -6, -3, -2, -2, -3, -9
1503698711994,-4, 8, 4, 1, -1, 1, 2, -1
1503698712016,-9, -7, -6, -3, -1, -1, 0, -6
1503698712038,6, -1, -1, -1, -2, -1, 0, 12
1503698712053,7, 0, -1, 0, -1, -3, -1, 2
1503698712076,16, 4, 4, 1, 2, -2, -4, -8
1503698712098,-3, -9, -5, -2, -2, -1, -1, 4
1503698712106,4, 5, 6, 2, 3, 2, 2, 5
1503698712128,-5, -3, -5, -4, 0, -1, 0, -1
1503698712143,1, 2, 2, 1, -1, -3, 0, 6
1503698712173,-2, -5, -4, -3, -3, -1, 3, -1
1503698712200,-3, 3, 4, 0, 0, 0, 3, -1
1503698712219,6, 0, -6, -4, -2, -2, -1, -2
1503698712233,-2, 2, -4, -4, -3, -2, 0, 4
1503698712248,1, 0, 2, 1, -1, 0, 1, 6
1503698712263,0, -3, -2, 0, 0, -1, -1, 6
1503698712285,18, 6, -3, -1, 1, 1, 0, 13
1503698712308,5, -2, 0, -1, -1, -2, -2, -5
1503698712323,12, 3, -2, -1, -2, 0, 0, 5
1503698712345,-7, -5, -1, 0, 0, -1, 0, 2
1503698712368,-9, 2, -2, -2, 0, -1, -2, -8
1503698712383,-15, -5, -3, -2, -2, -1, -3, -5
1503698712399,1, 0, -2, -3, -2, -1, 2, 6
1503698712414,1, 4, -1, -1, 1, 0, -2, -5
1503698712436,-2, -1, 3, 0, 2, 0, 0, -1
1503698712458,6, 3, 3, 2, 0, -2, 2, 1
1503698712480,-7, 2, 4, 0, 1, -1, 0, -1
1503698712502,-6, -9, -5, -4, 0, -1, -1, 2
1503698712508,-1, 8, 5, 3, 1, 0, 0, 7
1503698712525,-6, -8, -7, -4, -1, -2, -1, -2
1503698712548,4, 1, -3, -1, -1, -1, -1, -4
1503698712564,-1, -2, -2, -1, -2, -1, -2, -13
1503698712585,13, 7, 3, 0, -1, 2, 0, -1
1503698712608,-10, -7, -3, -2, -2, -1, -1, -1
1503698712630,4, -1, -2, -3, -2, -1, 0, 6
1503698712645,-3, 1, 1, -2, -1, -1, -1, -1
1503698712668,-2, -5, -4, -2, -2, -2, 0, 1
1503698712676,0, -1, -2, 0, 0, -1, -1, -8
1503698712698,-3, -2, -7, -4, -1, -1, -1, -1
1503698712720,4, 1, 0, 1, 1, -2, 0, 3
1503698712736,1, 2, 2, 1, -1, 1, -2, -3
1503698712758,-2, -2, -1, 0, -2, 0, -2, 0
1503698712780,-5, 0, 1, -1, -1, -1, 0, -4
1503698712796,1, 0, 1, -2, -2, 0, -2, -8
1503698712818,7, 2, 1, 2, 0, -2, -4, -4
1503698712840,0, -4, -3, -1, 0, 1, 2, 4
1503698712856,-6, -7, -4, -3, -1, -1, -1, -3
1503698712878,-2, 0, -1, -2, -1, 0, -3, -22
1503698712900,-3, 1, 2, 1, 1, 0, 1, 9
1503698712915,-5, 3, 0, -3, -2, -1, 0, 4
1503698712938,-1, -4, -2, 0, -3, 1, 0, 8
1503698712960,-5, 3, 0, 0, -1, -1, -2, -4
1503698712976,2, 0, 0, 1, -3, -1, -1, 2
1503698713002,3, -2, -4, -4, -1, -1, 3, 6
1503698713020,4, -3, -2, 0, 1, 0, 1, 0
1503698713038,-4, -3, 0, 0, 0, -1, -3, -4
1503698713058,-2, -1, -1, -1, -2, -1, -4, 2
1503698713080,2, 0, -3, -1, 1, -2, -1, 0
1503698713095,-2, -5, 0, -1, 0, -1, -2, -4
1503698713118,-4, 0, 1, 1, 0, -1, 0, -1
1503698713140,2, 3, -1, -2, -1, -1, -1, 2
1503698713156,-2, 2, 0, -1, -1, -1, -2, -6
1503698713190,-1, 1, 1, -1, 0, -1, -1, -3
1503698713209,4, -1, 1, -1, -1, 0, -2, 5
1503698713230,-3, 0, -1, -1, -2, -1, -1, -1
1503698713245,1, -6, -3, -1, 0, -1, -1, 2
1503698713268,-2, 0, -1, -2, -3, 0, -1, -4
1503698713290,4, 4, -2, 0, -1, -2, 0, -2
1503698713305,7, 3, 3, 1, -1, -1, 0, 3
1503698713327,-1, 2, 2, -1, -2, 0, 0, -4
1503698713350,-4, -2, 0, 2, 0, 0, 0, 5
1503698713365,-9, -2, 0, 0, 1, -1, -1, -4
1503698713387,-9, -4, -2, -2, 0, -1, 2, -1
1503698713411,-1, -3, -1, -2, 0, -2, -2, -6
1503698713425,3, -7, -5, -2, 0, -2, 0, 7
1503698713448,2, -2, -3, -1, -1, 0, -2, -3
1503698713470,1, 1, -2, -1, -1, -1, -2, 0
1503698713485,-3, 3, 3, 0, 0, -1, -1, -1
1503698713509,0, 7, 4, 1, 2, 0, -1, -2
1503698713530,0, -5, -2, -2, -2, 0, -1, 1
1503698713545,-1, 2, 2, 2, -2, 0, 1, -2
1503698713570,0, 0, 3, 1, 0, 0, -1, 1
1503698713590,0, -1, -4, -2, -1, 0, 0, 0
1503698713613,-3, -5, -3, 2, 0, -1, -1, -2
1503698713627,-3, -1, -4, -4, -3, -2, -2, -1
1503698713650,3, -4, -5, -4, -2, 0, -1, -3
1503698713672,-5, -3, 1, 0, 1, -1, 1, 0
1503698713687,-2, -4, -4, -6, -2, -2, -2, 1
1503698713710,0, 4, 4, 3, 0, -1, -1, -1
1503698713732,0, 2, -2, -2, -2, -1, 0, -1
1503698713754,4, 5, 7, 5, 1, 1, 0, 0
1503698713778,3, 3, -1, -2, 0, -1, 0, 0
1503698713792,4, 1, 1, 0, -2, -2, -1, 1
1503698713808,-1, 3, 3, 0, 0, 0, -2, -2
1503698713830,-5, -7, -4, -2, -3, -1, -1, 0
1503698713852,-4, -2, -2, 1, 0, 1, 1, -1
1503698713867,0, 3, 8, 1, -2, 0, -2, -2
1503698713890,-4, -1, -2, -3, 0, 0, -4, -1
1503698713912,6, 4, -3, -4, -2, -2, 0, -2
1503698713927,-7, -4, -2, 1, 1, 0, 0, -1
1503698713950,16, 8, 0, 0, 1, -2, -1, -1
1503698713978,3, -3, 5, 5, 3, -1, -2, 4
1503698713987,-7, -1, 1, 0, 0, 1, 1, -1
1503698714010,-12, -7, -6, -5, -4, -1, 2, -4
1503698714032,3, 13, 7, 0, -2, -1, -1, -2
1503698714049,0, -14, -10, -3, -4, -2, -3, -1
1503698714070,1, -4, -5, -1, -3, -1, 1, 1
1503698714092,5, 2, -2, -3, -1, 1, 1, 1
1503698714109,-4, -1, -3, -3, -1, -1, -2, -1
1503698714130,6, -4, -5, 1, 1, -5, -5, -12
1503698714160,8, 2, -2, -3, -4, 1, 3, -2
1503698714184,-7, 2, -1, 0, 1, 0, -1, 2
1503698714198,6, -2, -2, -1, -2, -3, -3, -3
1503698714220,-7, -1, 1, 0, 0, 0, -1, -3
1503698714242,7, 4, -2, -1, -1, -2, -2, 4
1503698714258,4, 2, 4, 4, 3, -1, 0, -1
1503698714280,-7, -7, -5, -2, -2, -2, -1, -1
1503698714302,-9, -11, -4, -4, -3, -1, -1, -2
1503698714318,-8, -2, -2, 0, -1, 0, 0, -3
1503698714343,14, 3, 2, 1, 1, 0, -3, -4
1503698714362,-5, 8, 10, 2, 1, -2, -1, 3
1503698714380,4, -2, -4, -2, -1, -1, -1, -2
1503698714400,-7, -2, -1, -1, -3, -1, -1, -2
1503698714422,2, 4, 8, 2, 5, 0, -1, 3
1503698714438,-6, -6, -6, -6, -4, 1, 3, 1
1503698714460,-3, -7, -10, -6, -5, -1, 1, -2
1503698714482,-6, -2, -1, 0, -1, -2, -2, -1
1503698714490,-3, -4, -4, -6, -1, 1, 1, 0
1503698714512,-4, -3, -5, -4, -5, -2, 0, 1
1503698714545,5, -1, -1, -4, -2, 1, 0, 3
1503698714550,3, 0, -3, -2, -2, -1, -1, -2
1503698714572,6, -4, -2, 1, -1, -1, 0, -1
1503698714594,-7, 0, 4, 1, 0, 1, 0, 4
1503698714611,-2, -2, -2, 0, 0, -2, -3, -1
1503698714632,-1, 6, 4, 0, 0, 1, -1, -6
1503698714654,-2, -5, -2, -2, 0, -1, -3, -7
1503698714670,6, 3, 3, 1, 1, 0, 1, 5
1503698714692,-5, -2, -5, 0, -2, -1, -1, -2
1503698714714,2, -3, -1, -1, -3, -2, 0, 1
1503698714730,-7, -7, -7, -1, -3, -3, -2, -1
1503698714752,-7, 2, 1, -1, -3, 1, 0, -1
1503698714774,0, 2, 2, 0, 1, -1, 0, 10
1503698714790,0, -2, -1, -1, 0, 0, 1, 2
1503698714815,-2, -1, -1, -2, -1, 1, -1, -20
1503698714834,-1, -1, 0, 1, 3, 0, -2, 5
1503698714850,6, -4, -5, -3, -3, -1, -2, 8
1503698714872,6, 5, -1, -1, 1, -1, 0, -3
1503698714894,0, 0, -3, -1, -4, 0, 1, 2
1503698714910,5, 0, 3, 4, 1, 0, 1, 4
1503698714932,1, 2, 2, 1, 1, -2, -2, -1
1503698714955,-4, 2, 0, 0, -1, -1, -2, 1
1503698714970,-4, -2, -1, -2, -2, -2, 0, -8
1503698714992,4, -7, -5, -4, -3, -2, 2, 6
1503698715014,-13, -10, -5, -2, -2, -3, -2, -3
1503698715037,-3, 1, -1, 1, -2, -1, -2, -5
1503698715059,-1, 3, 1, -2, 0, 2, 0, -4
1503698715074,2, 0, 2, 0, -1, 0, -1, 0
1503698715090,5, 6, 2, 1, 2, -1, -3, 0
1503698715114,-8, -1, 3, 2, 2, 0, 1, -2
1503698715134,2, 2, -4, -1, -1, -1, 1, 0
1503698715150,4, -3, -2, -2, 0, 0, -1, -4
1503698715166,6, 1, -2, 0, -2, -1, -1, 0
1503698715183,-5, -1, -2, 0, -1, -2, -2, 0
1503698715202,-8, 2, 4, 4, 2, 0, 1, -1
1503698715225,-2, -1, -1, -3, 0, -1, -1, 0
1503698715240,2, -4, -3, 0, -2, -3, -1, -2
1503698715262,0, 1, 0, 4, 4, 1, -2, -2
1503698715286,0, 0, -1, -5, -5, -1, 0, -1
1503698715300,-1, -4, -3, -3, -1, 0, -2, -2
1503698715323,1, 5, 5, 2, 2, -2, 1, 1
1503698715345,0, -2, -2, 0, -1, -1, -1, -1
1503698715360,-2, -2, -3, -2, -4, 0, 0, 1
1503698715383,1, -1, -1, 0, -2, -1, -1, -3
1503698715405,-2, -3, -1, -3, 1, -1, 0, -1
1503698715427,-3, -3, -1, -2, -2, 1, -1, -2
1503698715442,-2, -6, -4, -2, -2, -2, -3, -1
1503698715457,-1, -5, -5, -3, -1, 0, -2, -1
1503698715472,0, -3, -5, 0, 1, -2, 0, -1
1503698715494,0, -2, -2, 0, -2, 0, -1, 0
1503698715518,-1, -4, -4, -2, 0, 0, 0, -1
1503698715532,-1, -4, -4, -1, -1, -1, -1, 0
1503698715554,3, 3, 1, -1, 0, -1, 0, 1
1503698715563,-2, 0, 1, 1, 1, -2, 0, -1
1503698715585,0, 3, 3, 2, 0, 1, 0, -1
1503698715607,-2, -3, -2, -2, -2, -1, 0, -1
1503698715623,3, -1, 0, -3, -1, -1, 0, 1
1503698715645,-4, 1, 0, -2, -1, 0, 0, -1
1503698715667,-7, -2, -2, 0, -1, -2, -1, -3
1503698715684,-3, -2, -2, -1, 1, -1, -3, -1
1503698715705,1, -3, 0, 0, -1, -1, -1, 2
1503698715727,4, 0, -4, -2, 0, -1, -3, -1
1503698715742,0, -3, -2, 0, -2, 0, -1, 1
1503698715765,0, 1, 2, -2, 0, 2, 0, 1
1503698715787,-4, -1, -2, -1, -1, 0, 0, -2
1503698715802,-3, -1, 1, 2, -1, -2, 2, 1
1503698715825,-3, 0, -1, -2, 0, 0, -1, -1
1503698715847,2, 1, 2, 2, 1, -1, 0, -1
1503698715862,8, -3, -4, -3, -1, 0, -3, 0
1503698715886,0, -1, 0, -3, -3, -1, -1, -2
1503698715893,-7, -4, -2, -3, -1, -2, 0, -1
1503698715914,6, 2, 0, 0, -1, 0, -1, -3
1503698715937,-8, -3, 0, 1, -1, -2, -1, -1
1503698715953,1, 1, -1, -1, -1, -1, -1, 0
1503698715967,2, 2, -3, -2, -2, -1, 0, 0
1503698715982,-2, -1, -2, 1, 0, -2, -2, -1
1503698716005,-2, -3, -1, 0, 1, 1, 0, -1
1503698716027,-2, -1, -1, -1, -1, 0, 0, -2
1503698716042,0, 3, -1, 0, -1, -1, -2, 1
1503698716065,-5, -1, 1, -1, 0, 0, 0, -4
1503698716088,7, 1, 0, -1, 0, -2, -2, 3
1503698716102,-2, -3, -2, 0, -1, -2, -1, 0
1503698716125,-1, 1, -1, -1, -1, 0, -1, 1
1503698716147,3, 0, 0, -2, -3, 0, 0, -2
1503698716163,-6, -3, -1, 0, -1, -2, -2, -2
1503698716185,-2, -1, -1, -1, -2, 1, -2, -2
1503698716207,-2, -3, 0, -2, 1, 0, 0, -1
1503698716223,7, 2, 2, -1, -1, 0, 0, 0
1503698716245,0, -2, -1, -1, -3, 0, 0, -2
1503698716267,-2, -2, 0, -1, -1, -1, 1, 0
1503698716282,-2, 3, 1, 2, 0, -1, -2, 0
1503698716319,-5, -3, -3, 0, -1, 0, -1, 0
1503698716334,-3, -2, -2, 0, -1, -2, -3, -1
1503698716342,1, -1, -2, 0, -1, 0, -2, -2
1503698716365,-1, -4, 0, -3, 0, -1, 0, 0
1503698716387,3, 0, -1, 0, 0, -1, -1, -1
1503698716410,0, -4, -1, -2, -3, -1, -1, -1
1503698716425,2, 3, -4, -4, -2, -2, -3, 0
1503698716447,-3, -2, 1, -2, -1, -2, -1, -2
1503698716470,1, 1, -1, -1, 0, 0, 0, -2
1503698716485,6, 1, 0, -3, 0, 0, 0, 1
1503698716507,-4, -5, -3, 1, -1, -2, 0, -3
1503698716531,-10, -1, -2, -1, -2, 0, 0, 0
1503698716545,0, 0, -2, -2, -1, -1, -2, -2
1503698716561,-2, 1, 2, 8, 4, 1, 1, 0
1503698716575,-3, -1, -2, -2, -1, -2, -2, -2
1503698716599,1, -3, -3, -1, -1, -1, 1, -1
1503698716628,0, 1, -2, -2, -3, 0, 0, -1
1503698716635,-7, -2, -2, 0, 0, -2, -3, -1
1503698716660,-1, -2, 0, 0, -1, 0, -2, -1
1503698716680,3, 0, -2, -4, -2, -3, -2, 0
1503698716696,0, 1, 0, 0, 1, 0, -1, 0
1503698716718,0, -1, 0, -1, -2, -1, 0, -2
1503698716740,1, -2, -1, 4, 3, -1, 1, 1
1503698716755,0, -2, -3, -2, -3, -1, 0, 0
1503698716778,0, 2, 2, 4, 1, 2, 0, -1
1503698716800,0, 3, -2, -3, -3, -2, -1, -2
1503698716815,-2, -4, -2, -6, -5, -1, -4, -2
1503698716838,-1, -1, -1, -5, -3, -2, 1, -1
1503698716861,1, 2, 4, 0, -3, 0, -1, 2
1503698716875,1, 12, 1, -2, 0, -1, -2, -2
1503698716898,-1, -4, -1, 2, 1, 2, -1, -2
1503698716920,-1, -4, 2, 2, 6, 0, 4, 2
1503698716928,-8, -4, -3, -2, -3, -1, 3, 0
1503698716950,1, 0, -2, 3, 5, 1, 0, 0
1503698716965,-4, -4, 0, -3, -3, 0, -2, -2
1503698716987,-1, 0, -1, 1, 1, -3, 1, -2
1503698717010,-4, -1, -3, -1, -2, 0, 0, 0
1503698717027,-3, -2, 0, -2, -2, 1, -2, 0
1503698717047,0, 1, 0, -3, -4, -1, -1, -1
1503698717070,5, 4, 2, 4, 3, -1, 0, -1
1503698717085,-1, -5, -2, -1, 0, 0, -1, 0
1503698717107,6, 2, -2, 2, 1, 1, -1, -1
1503698717130,-2, -1, -2, 4, 1, -1, 1, -1
1503698717145,3, 5, 1, -4, -1, -2, -2, 0
1503698717167,-3, -3, -1, -3, -1, -1, -2, -1
1503698717190,-2, -4, -1, 0, 0, 1, -1, -2
1503698717205,2, 0, -2, -1, -2, -3, -2, 0
1503698717230,-1, -1, -3, -4, -4, -2, -1, 1
1503698717250,-2, 0, 2, -1, 0, 1, 0, -2
1503698717265,-1, 1, -1, 0, -1, 0, 0, -1
1503698717287,-4, 0, 0, 2, 2, 0, -2, 2
1503698717310,1, -1, -1, -3, -1, -2, -1, -1
1503698717334,-2, -1, -3, -3, -1, -1, 0, -1
1503698717347,-1, -4, -1, 1, -1, 1, -1, -1
1503698717365,2, 14, 19, 9, 2, -1, 2, 2
1503698717378,-1, -3, -8, -3, -1, 0, -1, -3
1503698717402,0, -3, -4, 3, 3, 1, 0, -1
1503698717422,0, -2, -4, -3, -1, 0, -1, 0
1503698717445,-1, -3, -2, -2, -1, -1, 0, 1
1503698717460,2, -4, -5, -3, -1, -3, -2, 0
1503698717482,-2, -1, 0, -3, -2, -2, -2, -2
1503698717499,-3, -6, -2, -4, -3, -1, 0, 0
1503698717520,-1, -3, -1, 0, -1, -1, -1, -2
1503698717527,0, 0, -2, 0, -1, 0, -1, 1
1503698717550,-1, -1, 0, -2, -1, -3, -1, -2
1503698717573,-1, -2, 0, 2, -1, -1, 1, -1
1503698717587,-1, -1, -1, -3, -3, 0, -1, -3
1503698717610,-1, -1, -4, -3, 0, -1, -1, -1
1503698717633,2, 8, 4, 3, 1, -1, 1, 0
1503698717647,-2, -4, -7, -1, -1, 0, -2, -2
1503698717670,1, 4, 5, 5, 4, 0, -2, 1
1503698717693,-1, -3, -3, -3, 0, 0, -1, 0
1503698717708,-1, -5, -2, -2, -2, -2, -2, -1
1503698717730,-1, -4, -4, -1, -1, 0, 1, 1
1503698717753,1, 6, 5, -1, -1, -1, -1, -1
1503698717767,-1, -7, -6, -3, -3, -2, 0, 1
1503698717790,0, -3, -1, 0, -1, 0, 0, -1
1503698717812,-5, -2, -1, -2, -1, -1, -3, -3
1503698717827,-1, 5, 0, 0, 2, -1, -1, -1
1503698717850,-1, 3, 3, 0, 1, -2, -2, -2
1503698717873,0, -2, -2, -3, -1, 0, 0, 0
1503698717887,-1, -3, -2, -1, -4, 0, -2, -2
1503698717910,1, 0, -1, -1, -1, -2, 0, 0
1503698717934,0, 5, 5, -3, 1, -2, -1, -1
1503698717947,-2, -1, -1, 1, -1, -2, -2, 0
1503698717970,-3, -3, 0, -1, -2, -1, 1, -1
1503698717992,-2, -8, -7, 0, -2, -3, -2, -4
1503698718007,-1, 0, -2, 1, -2, -1, 0, 4
1503698718030,-1, -6, -7, -3, 1, -1, -3, -5
1503698718052,-1, 2, 1, 2, -1, 1, 1, 0
1503698718068,0, 1, 2, 1, 2, 1, 0, 1
1503698718090,1, -6, -6, -3, -1, -1, -2, 0
1503698718119,-6, -2, -2, -3, -1, -1, -4, -1
1503698718127,-2, -3, 1, -1, -1, 0, -5, -2
1503698718150,2, 6, 9, 2, -1, -1, 2, -1
1503698718172,1, -6, -1, -2, -3, -1, 0, -2
1503698718190,-2, -1, -4, -2, 0, 1, 1, -1
1503698718211,-3, 3, 0, 0, -3, -3, -1, -1
1503698718233,1, 0, -5, -1, 0, 0, 0, 0
1503698718255,-1, 4, 3, 1, -3, -2, -1, -3
1503698718274,2, -4, -6, 0, 1, -1, 1, -1
1503698718293,1, 4, -2, -1, 1, -1, 0, -1
1503698718314,0, -1, 0, -1, -1, -1, -1, 0
1503698718330,0, 0, -2, -1, 0, -1, 0, -3
1503698718352,0, -3, 3, 1, -1, 0, -2, -1
1503698718374,-2, -3, 0, -1, 0, -2, 1, 0
1503698718383,-1, -1, 0, -2, -1, -1, 1, 0
1503698718405,2, -1, 0, 1, 0, -1, 0, -2
1503698718420,-2, -4, -2, -1, -1, 0, 3, 3
1503698718443,0, -4, -4, -3, -1, -1, 0, -1
1503698718465,0, -4, -4, 0, -1, -1, 0, -4
1503698718480,-1, -5, -4, -2, -2, -3, -5, -2
1503698718504,-4, -4, -5, -1, -3, -2, -1, 1
1503698718525,-2, 0, 2, -1, -1, -2, 0, -2
1503698718541,0, 10, 5, 3, 1, 1, 0, 0
1503698718562,-2, -9, -7, -3, -3, -2, -1, 1
1503698718585,0, 1, -2, -1, 0, 0, 6, -1
1503698718600,-1, -1, -1, -2, 1, 0, -2, -1
1503698718622,0, 1, -2, -1, -3, -3, -3, 1
1503698718645,-2, 4, 0, -3, -1, -1, 0, -1
1503698718661,1, -6, -5, -2, -2, -2, 1, -4
1503698718683,-1, 0, 5, 0, 0, 1, -2, -1
1503698718707,-1, 0, 1, -1, -1, -1, 0, 1
1503698718720,0, 12, 9, 4, 2, 1, -1, 0
1503698718743,-1, -5, -5, 1, 0, -1, -2, -1
1503698718765,-3, -5, -6, -5, -2, -1, -4, 0
1503698718780,1, 1, 3, 2, 0, -1, 0, -1
1503698718802,-1, -2, 0, 0, 0, 0, -1, 1
1503698718825,0, -4, -6, -2, -3, -2, 1, 2
1503698718842,-3, -3, 3, 1, 0, -1, -1, -2
1503698718862,0, 4, 3, 1, -1, 0, -4, -5
1503698718885,-1, -4, 0, -1, 0, 0, -1, 0
1503698718901,-1, -2, 0, 0, -1, -1, -4, -2
1503698718929,1, 0, -4, -3, -3, -2, 2, 0
1503698718945,-1, -5, -3, -1, -1, 0, -3, -8
1503698718960,0, 3, 2, -2, -2, 0, 7, 2
1503698718983,-1, -1, -4, 0, 0, -1, -2, -1
1503698719005,-1, 0, -3, 0, -2, -2, -1, 0
1503698719020,-1, -3, 0, 1, -2, -1, -3, -1
1503698719042,0, 1, 0, -2, 0, 0, -1, 2
1503698719065,-3, -1, -1, -1, 0, -1, -3, -6
1503698719080,1, 5, 0, -1, -1, -1, -3, 2
1503698719103,0, -5, -4, -1, -2, -3, 0, 0
1503698719125,0, 0, 1, -3, 0, 0, -2, -2
1503698719153,-1, -2, -1, 0, -2, -1, 1, -1
1503698719163,0, 1, 1, 0, -3, -2, 1, 2
1503698719185,1, 2, 2, 0, 2, 0, -2, 0
1503698719210,-1, -1, -3, -2, 0, 1, 2, 1
1503698719223,-2, -1, -1, 1, -2, -1, 0, -2
1503698719246,1, 0, 1, -2, 0, -1, -1, 1
1503698719267,-1, -1, 1, 1, 0, -1, -3, -2
1503698719283,-2, -5, -3, -1, 0, 0, -2, -2
1503698719305,0, 3, 1, -1, 0, 0, -1, 1
1503698719327,0, -1, -2, 0, -1, 0, 1, 0
1503698719346,2, -5, -5, -2, -2, -3, -4, -3
1503698719365,-2, 0, -1, -2, -2, -3, -3, -1
1503698719387,0, -4, -3, -2, -1, 0, -3, 0
1503698719403,-1, -4, -4, -1, -1, 0, 2, 1
1503698719425,-3, -2, -1, 1, 0, 0, -3, -2
1503698719447,0, -1, 1, 0, -1, 0, -3, -2
1503698719463,-3, -1, -3, -3, -1, -2, 1, -1
1503698719485,-2, -1, -1, -2, -1, 0, -1, -1
1503698719507,-2, 1, 3, -1, -1, -1, 1, 1
1503698719523,2, -1, -3, -2, -1, -2, -2, -2
1503698719547,-1, 2, 0, 1, 1, -1, -3, -4
1503698719567,-2, -2, -4, 0, -2, 0, 0, 0
1503698719584,2, 0, 0, 0, 0, -1, 1, 0
1503698719605,2, 2, 3, -3, -1, -2, -2, -1
1503698719627,0, 0, 0, -1, 0, -1, 2, 2
1503698719643,-1, 1, 2, 0, 0, 2, 1, 3
1503698719665,2, -1, -2, 1, 0, -1, -2, -1
1503698719688,-4, -3, -3, 0, 2, 0, 1, -1
1503698719703,-1, -2, -1, -2, 0, -2, -2, 3
1503698719725,1, 19, 17, 3, -3, -2, -1, -3
1503698719747,-1, -7, -8, -3, 0, -1, -2, -3
1503698719763,-2, -6, -2, 1, -1, -2, -5, -3
1503698719777,0, 1, -7, -4, -1, -1, -3, -1
1503698719792,0, -6, -5, -2, -1, 0, -2, 1
1503698719815,-4, -1, 2, -4, -1, 0, -2, -3
1503698719836,-1, -7, -9, -6, -2, -3, -2, -1
1503698719852,0, 1, 3, 0, 0, -1, 1, -2
1503698719875,-1, -1, -1, 2, -1, -1, 0, 3
1503698719897,0, 0, -2, -1, -2, -3, -1, -3
1503698719914,-1, -3, 0, 0, -1, 1, 1, 1
1503698719935,-1, 9, 10, 3, 2, 0, 0, 1
1503698719957,-1, -5, -3, 0, 0, 2, -1, -2
1503698719972,1, 0, 0, -3, -1, -2, -1, 3
1503698719995,-1, 6, 3, 1, -2, 1, 0, 3
1503698720016,-4, -6, -3, -2, -1, 0, 1, 1
1503698720032,0, 1, -2, 2, -3, -2, -1, 1
1503698720056,-1, -1, -1, -2, 0, -3, -4, -5
1503698720077,-6, -1, -3, 0, -1, 0, 0, -1
1503698720099,3, -2, 3, 6, 10, 3, -6, 9
1503698720116,2, 2, -1, -3, -4, -1, 2, 0
1503698720136,0, -2, -2, -3, -2, -4, -5, -9
1503698720159,0, -1, -3, -4, -1, -2, 2, -4
1503698720183,1, 0, 3, 2, 0, -2, -1, -3
1503698720196,-2, 2, 0, -2, -4, -2, 1, -3
1503698720220,-1, -4, -1, -2, -2, -1, -1, -5
1503698720235,0, 2, 0, -1, -2, -2, -3, -1
1503698720257,-2, -5, -5, -1, -1, 2, 4, 1
1503698720279,1, -3, -1, -1, -2, 0, 3, 0
1503698720288,-1, 1, -2, -1, 0, 0, 0, 2
1503698720310,-3, -3, 1, 1, 0, 1, -3, -5
1503698720325,6, 1, -5, -4, -2, -1, 1, 6
1503698720347,-5, 0, 2, 1, -2, -1, -2, -10
1503698720370,2, 1, 1, -1, 0, -1, -1, 1
1503698720385,1, 0, 1, 0, -2, -1, -3, -2
1503698720407,3, -1, -2, 0, -2, -2, 1, 2
1503698720430,-2, 13, 17, 4, 1, 0, 0, -3
1503698720445,0, 0, -6, -1, 0, 0, -3, 3
1503698720467,0, -3, -1, -3, -3, -4, -2, -6
1503698720490,-3, -5, -6, -1, -3, -2, -2, -2
1503698720505,0, -5, -4, -2, 2, 0, 1, -1
1503698720527,-2, -2, -1, -3, -2, -1, 2, 4
1503698720552,-9, -6, -3, -4, 0, -1, 0, 0
1503698720565,-7, -5, -7, -3, -1, 0, -2, -3
1503698720588,2, 1, -3, 0, -1, -1, -5, -8
1503698720610,1, -3, -1, -2, -1, 1, -2, 3
1503698720625,0, 0, 1, 1, -1, -2, 2, -3
1503698720647,2, -1, -1, 3, 2, 1, -3, 3
1503698720670,0, 1, 2, 1, -2, -2, -1, -4
1503698720693,-4, 0, 3, -1, 1, -1, 0, 0
1503698720707,2, -1, -3, 1, 0, 0, -1, -3
1503698720730,2, 1, -1, -2, -2, 0, -1, 2
1503698720745,-1, -2, 0, 1, 0, -1, 1, 0
1503698720767,0, -1, -3, -1, -2, -2, 0, 2
1503698720790,1, -2, -5, 2, 3, -1, 1, 2
1503698720805,-4, -3, 0, -2, -2, 0, -5, -10
1503698720828,-3, 0, -1, -2, -3, -1, -1, 4
1503698720850,1, 1, 3, 0, 1, 1, 2, 1
1503698720865,1, 3, 4, 4, 2, 1, -2, 2
1503698720888,-1, -2, -1, -3, -1, 0, 3, -2
1503698720910,1, -2, -4, -1, -2, -2, 0, -1
1503698720917,1, -2, -1, -3, 0, -3, -5, -2
1503698720939,0, -2, -2, -1, -1, 3, -6, -1
1503698720955,1, 10, 12, 6, 6, 0, 0, 3
1503698720976,-1, -2, -7, -3, -2, 0, 0, -2
1503698720999,2, 0, 0, 1, -1, -3, -2, -2
1503698721022,1, -2, -1, -1, -1, 2, 6, -1
1503698721036,1, 1, 2, 1, -2, -4, -6, -21
1503698721059,4, -2, -3, -2, -1, -2, 0, 3
1503698721081,-11, -8, -7, -4, 0, -1, -1, 2
1503698721096,0, -2, 0, -1, -1, -1, 1, 0
1503698721112,-1, 0, -1, -1, 1, -3, 1, -6
1503698721127,2, -2, -1, 0, 0, -1, -4, 1
1503698721150,-4, -1, 4, 3, -1, 0, -3, -3
1503698721172,-1, -2, 0, -2, -1, 1, 0, 3
1503698721188,1, 2, 2, 1, 0, 0, 0, 5
1503698721203,-1, -7, -9, -3, -3, -4, -3, -3
1503698721218,-5, -4, -3, -3, -2, -2, -6, -6
1503698721240,2, -5, -4, -2, -1, -5, 1, 16
1503698721264,-1, -2, -6, -1, 0, -1, 1, 8
1503698721278,2, -9, -6, -1, -1, 1, 4, 6
1503698721300,-1, 2, -1, -1, 1, 0, -2, -2
1503698721324,-2, -2, -2, -2, -2, 1, -3, -5
1503698721338,-3, -1, -2, 1, 0, -1, -4, -7
1503698721360,-10, 1, 0, -1, -1, 0, -2, -6
1503698721383,4, 3, 5, 2, 0, -2, 2, 11
1503698721392,-1, -5, -3, -2, 1, 1, -3, -4
1503698721412,0, -1, -1, -1, -4, 1, 6, -2
1503698721428,2, 0, -1, -1, -2, 0, 4, 1
1503698721443,0, -5, -1, -1, -2, -6, 3, 2
1503698721465,-2, -4, -2, -3, -2, -2, -3, -1
1503698721480,-2, -3, -3, -3, -3, 1, 1, -9
1503698721503,8, 4, -3, -2, -1, -2, -4, 5
1503698721526,-8, -11, -8, -1, 0, -3, -1, -1
1503698721540,-6, 1, 1, 0, -2, -4, 1, -1
1503698721564,0, 0, 1, 0, 0, -4, -1, -1
1503698721578,4, 1, 4, 0, 1, 1, -1, 3
1503698721601,-5, 0, 1, 3, 1, 2, 3, 2
1503698721623,-4, -4, -3, -2, -1, -1, -3, -10
1503698721638,-4, 1, 0, 2, 1, 1, -2, -6
1503698721662,-8, -5, -2, -2, -4, -2, -3, -10
1503698721683,3, 4, 4, 1, 1, -1, 0, 5
1503698721705,2, 0, -3, -3, -2, 2, 3, 7
1503698721712,-3, 10, 13, 1, 2, -3, -3, -5
1503698721733,-2, -5, -5, 0, 0, -4, -6, -6
1503698721750,4, -2, -1, -1, -2, -2, -3, 2
1503698721773,-8, -1, -6, -3, -1, -1, -2, -5
1503698721787,-2, -5, -2, 1, 1, 1, 2, 1
1503698721810,-1, -8, -7, -4, -2, -2, 0, -3
1503698721833,-1, 0, 1, -1, -3, -1, 0, -6
1503698721847,1, 0, -3, -1, -1, 0, 1, 3
1503698721870,4, 2, 1, 0, -2, 4, 8, 5
1503698721885,-1, 0, 1, 0, -1, -2, 5, 8
1503698721901,-1, -2, -1, -4, -2, -1, 2, -1
1503698721923,-1, -3, 0, -2, -1, 0, -1, 1
1503698721945,-5, -5, -4, 0, -2, -1, -3, -1
1503698721963,1, 7, 2, -1, 0, 2, 2, 10
1503698721983,3, -4, -2, -2, -1, -3, 1, -5
1503698722005,3, -1, 0, 1, -1, 0, -3, -15
1503698722020,-6, 0, -1, 0, 0, -1, -2, 1
1503698722043,-6, 0, 2, 1, -1, 0, 0, -1
1503698722066,-1, 0, -1, 1, 1, 7, -2, -2
1503698722080,-2, -2, -4, -4, -3, -4, 6, -4
1503698722105,0, -1, -1, 1, -3, -2, -1, 1
1503698722125,5, 1, 1, 1, 1, -2, -4, 1
1503698722140,-3, -1, -1, -2, -1, -2, -4, 0
1503698722165,-2, 0, 0, -3, -1, -3, 0, 0
1503698722185,-1, -3, -1, -1, 0, -2, -3, -2
1503698722201,1, 1, -3, -3, -4, -2, 0, 3
1503698722223,-7, -1, -1, 0, 0, 0, 4, -1
1503698722245,2, 0, 0, -1, -3, -4, -7, -13
1503698722260,-2, -1, 2, 0, 0, 0, 2, 7
1503698722283,-2, -2, 0, 1, 1, 2, 2, -6
1503698722306,1, 0, -2, -1, 1, -1, 0, 5
1503698722320,-1, 1, 1, 1, 3, -1, -2, 3
1503698722343,0, -1, 0, 1, -2, 1, -1, 3
1503698722372,-1, 3, 5, 2, 0, -1, -2, -5
1503698722380,-1, 0, 0, -2, -1, 0, -1, 1
1503698722403,-7, -3, 2, -1, -1, 0, -1, -8
1503698722425,3, -3, -2, 0, 0, 0, -1, 6
1503698722441,2, 2, -2, -1, -3, -1, -6, -2
1503698722463,2, -4, -4, -3, -2, -2, 1, 9
1503698722485,0, 1, 1, -1, -1, -2, 4, 1
1503698722500,0, -1, -2, 0, 1, -3, -2, -1
1503698722523,0, -1, -3, -4, -2, 0, -1, 3
1503698722544,-2, 0, 0, 1, -1, 0, 2, -2
1503698722560,0, 13, 10, 4, 0, -1, -2, 2
1503698722583,3, 9, 3, 1, -2, 0, 1, -3
1503698722605,1, -9, -7, -6, -3, -1, 0, 0
1503698722620,-6, -4, -3, 2, 0, 0, -1, -6
1503698722643,-1, -4, -2, -1, 0, -1, -1, 0
1503698722668,-1, -5, -5, -2, 0, -4, -2, -4
1503698722680,1, -3, -1, -2, -1, -1, -1, 1
1503698722705,0, -2, -2, -2, -2, -2, 0, 2
1503698722735,2, 1, -1, -1, -2, -3, -3, -1
1503698722755,13, 1, 3, 0, -3, -2, 0, 14
1503698722770,-1, -2, 1, -3, -1, -2, 6, -5
1503698722792,-4, -7, -7, -2, -1, 1, 0, 0
1503698722815,-1, 0, -2, -1, 0, 0, -3, -3
1503698722830,-2, 2, 1, -2, -3, -10, 3, -17
1503698722852,4, -1, -2, -2, -2, -2, -15, 4
1503698722875,0, 0, -1, 1, 0, -1, 3, 7
1503698722897,-3, -4, -8, -3, -2, -1, 0, -4
1503698722912,-6, 0, -3, -2, -1, 0, -1, -1
1503698722936,-5, -3, 2, 2, 1, 2, -2, 0
1503698722957,2, -3, -3, -3, 0, 0, -1, 1
1503698722973,1, 3, 1, 1, -2, -1, -1, -3
1503698722995,4, -1, 1, -3, 0, 1, 0, 5
1503698723017,-1, 7, 2, 0, -1, -1, -3, -5
1503698723032,-4, -4, 3, 0, -1, 0, 0, -1
1503698723055,6, 0, -2, -1, -1, -1, 0, 3
1503698723078,0, 0, 0, 0, -1, 0, -2, -4
1503698723092,-5, -5, -3, 0, -1, -2, -6, -7
1503698723115,-4, -1, 2, -1, 0, 0, -1, -1
1503698723137,1, -3, -3, -1, -1, 1, 1, 3
1503698723146,0, -3, 0, 1, -1, 0, -2, 1
1503698723167,-2, -1, -5, -4, -3, -1, -5, -6
1503698723183,2, 9, 10, 3, 1, 1, 2, 7
1503698723206,-4, -10, -9, -3, -2, -1, -5, -3
1503698723227,-3, 3, 1, -1, -1, 1, -2, -7
1503698723237,10, 2, 1, 2, -1, -1, 2, 20
1503698723257,0, 1, 0, -3, -2, -1, 2, 2
1503698723272,-5, -5, -4, -4, -1, -2, -1, -5
1503698723295,0, 2, 2, 3, -1, 0, 3, -1
1503698723317,-2, -7, -4, -2, -2, 0, 1, -2
1503698723333,-5, 3, -1, -2, -1, -1, -4, -8
1503698723355,-4, 2, -1, -1, -1, 0, -4, -5
1503698723377,2, -4, 0, 2, 0, -3, -6, -4
1503698723386,10, -5, -5, -4, -2, -1, 1, 5
1503698723407,4, 0, 0, 1, -1, 0, -1, 4
1503698723423,-3, 0, -1, -2, -1, -1, -3, -5
1503698723445,-2, -6, -1, 2, 0, -1, -6, 1
1503698723467,-5, -5, -7, -2, -2, 1, 2, -4
1503698723483,-4, -1, -1, -2, -2, 1, 2, 1
1503698723507,1, 2, 4, 3, 3, 0, 0, 3
1503698723527,0, 0, 3, 0, -1, -1, 3, 6
1503698723543,-3, -2, -4, -1, -1, -2, 0, -3
1503698723565,4, 2, 3, -1, -1, 0, -1, 0
1503698723587,-5, 1, 0, 1, 1, 0, -5, -5
1503698723602,2, 11, 9, 3, -1, 0, -1, -1
1503698723625,0, -9, -11, -3, -1, 0, 1, 2
1503698723647,3, 5, 2, -4, -4, -2, -3, -5
1503698723663,6, 3, 3, -1, -1, 0, 4, 7
1503698723685,-2, -3, -5, -2, -2, -1, 0, -4
1503698723708,-7, -8, -6, -2, -1, -2, -4, -22
1503698723722,6, 10, 2, -1, 0, -2, -3, 7
1503698723744,-1, -5, 0, 3, 0, -1, 0, -2
1503698723752,-2, -3, -3, -4, -4, -2, 0, 3
1503698723775,-2, 3, -4, -4, -2, 2, 2, 3
1503698723797,-6, -4, -5, -4, -2, -2, -1, -4
1503698723819,-6, 3, -1, 0, 0, -2, 1, 1
1503698723834,8, -4, 0, -3, -2, 1, 1, 7
1503698723857,0, 2, -2, -1, -2, 0, -2, -2
1503698723880,-1, -4, -1, -2, -1, -2, 0, 0
1503698723894,-4, 13, 12, 4, 4, 2, -2, -6
1503698723917,3, -5, -1, 3, 2, -3, -4, -5
1503698723939,1, -2, -1, -2, -2, -1, 1, 1
1503698723954,-15, -7, -5, -4, -3, -1, -1, -2
1503698723977,2, 3, -1, -1, 1, 0, 3, 11
1503698723999,2, -2, -3, -1, -1, 1, 0, 2
1503698724021,-3, 4, -1, -1, -4, -2, -10, -22
1503698724037,-10, -13, -8, -2, -2, 0, 1, 5
1503698724059,8, 9, 1, 0, -1, -1, 1, 1
1503698724077,0, -3, -1, 1, 2, 0, -3, 4
1503698724097,-3, 2, 3, -1, -1, 0, 1, 6
1503698724119,5, 6, 5, 1, 0, 0, 3, 4
1503698724134,5, 6, 5, 5, 4, -1, -4, 0
1503698724157,0, -7, -1, -1, -1, -1, -1, -2
1503698724179,0, -1, -2, 0, -1, 1, 0, 6
1503698724194,2, -1, -3, -1, -1, 0, 2, -1
1503698724217,1, 4, 2, -1, 1, -2, -4, -7
1503698724239,-4, -2, 0, -2, -3, 0, 2, 4
1503698724256,-1, -1, -2, -1, -2, -3, 0, 0
1503698724278,-7, -4, -4, -3, -3, -1, -1, 7
1503698724299,-4, 1, -3, 0, -1, 0, 1, -6
1503698724314,4, -3, -2, -2, -1, -3, 0, -2
1503698724337,-2, -2, -2, -4, -2, 0, -2, -5
1503698724359,1, 2, 0, -1, -2, -1, -1, -2
1503698724374,2, 1, -1, -3, -2, 0, -2, -4
1503698724390,-4, -3, -3, 2, 1, -2, -8, -1
1503698724405,-7, -3, 2, 4, 4, 0, 0, -1
1503698724427,-7, -2, -1, 1, 0, 0, 0, -1
1503698724449,-3, -3, -1, -1, 0, -1, -3, 2
1503698724465,-2, 1, 4, 13, 12, 3, 2, 0
1503698724487,3, 1, 1, -2, -3, -1, -2, 1
1503698724494,1, 3, 2, 2, 2, 2, 0, 0
1503698724517,0, 1, -2, -5, -2, 0, 1, 1
1503698724539,-3, -3, -1, 0, 0, -2, 1, -1
1503698724555,2, 1, 0, 0, -2, 2, 0, -1
1503698724577,-3, -2, -1, -1, -2, 0, -1, -1
1503698724599,2, 2, 2, 0, 0, 0, -1, 0
1503698724615,1, -3, -2, -2, 0, -1, -4, -2
1503698724637,-8, -2, -2, -1, -1, 4, 1, 0
1503698724659,4, -2, 1, 10, 6, -1, -1, -1
1503698724674,-8, -4, -2, -1, -2, -3, -2, -5
1503698724697,3, 6, 5, -1, 1, -2, -1, -1
1503698724719,-1, -3, -6, -9, -4, -2, -2, -2
1503698724734,-2, -3, -2, -5, -3, -2, -1, -2
1503698724757,1, 1, 0, -1, -3, -1, -2, -1
1503698724779,-2, 4, -9, -6, -2, -2, -3, -3
1503698724787,0, -8, -2, -2, 0, -3, 0, -1
1503698724810,-2, -4, -6, -6, -6, 1, -1, 2
1503698724832,-4, 0, 0, 0, -1, 0, -1, -2
1503698724849,9, -1, -6, -4, -3, -5, -4, -2
1503698724861,-8, -9, -4, -4, -5, 0, -2, -1
1503698724877,2, 0, -2, -1, 1, 1, 1, 1
1503698724899,3, -2, 0, 1, -1, 0, 0, 0
1503698724921,-9, -3, -1, -1, 1, 1, -1, 1
1503698724937,2, 0, -1, -1, -1, -1, -1, -2
1503698724959,-5, 2, 3, 2, 1, -1, 1, -1
1503698724983,0, -1, -5, 0, -2, -2, 1, 1
1503698724997,-4, -4, -4, -1, -2, 0, 1, -1
1503698725019,-5, -6, -4, 3, 6, 1, 0, -4
1503698725041,2, -1, -2, -1, -2, -2, -3, -2
1503698725058,0, 2, 2, 0, -3, 0, -3, 1
1503698725080,2, 0, -2, -1, 0, -1, -2, 0
1503698725101,0, 0, 0, -2, -1, 0, -3, -1
1503698725118,-1, 0, 1, -2, -2, -2, -4, -1
1503698725139,0, 0, -2, -4, 0, -3, -2, -5
1503698725161,-4, 1, 1, 2, 3, 2, 5, 3
1503698725177,4, 5, 2, -3, -5, -4, -2, -2
1503698725199,1, -1, -2, 11, 18, 2, 0, 1
1503698725222,-5, -5, -4, -11, -10, -1, 1, 3
1503698725237,4, 4, 2, -5, -10, -1, 0, 0
1503698725259,-1, -7, -1, -5, -5, -1, -2, -2
1503698725281,10, 3, -3, 0, -2, 0, -2, -1
1503698725304,-3, -1, 0, -4, -5, 0, -2, 3
1503698725319,2, -2, -8, -8, -1, -2, 1, -5
1503698725341,-7, -3, 2, 10, 6, 1, -1, -1
1503698725357,1, 0, 2, 1, -1, -2, -8, 2
1503698725379,-1, -5, -3, -3, -3, -1, 0, 5
1503698725401,-6, 0, 1, 2, -1, -1, 3, -3
1503698725420,3, 4, 3, 0, -1, 3, 0, -1
1503698725439,-5, -2, 4, 6, 10, 0, 1, -2
1503698725462,-4, -2, -2, -2, -1, 0, -5, -8
1503698725477,5, 6, 9, 2, 0, -1, 1, -2
1503698725499,6, 1, -1, -2, 2, 3, 2, 5
1503698725521,-1, -8, -7, -2, -1, -1, -4, 4
1503698725537,2, -4, -5, 0, -2, -3, -1, -1
1503698725559,-8, -5, -4, -2, -2, -2, -1, -2
1503698725581,-3, 1, 3, 0, -3, -4, 1, 0
1503698725597,-4, -2, -5, -3, -3, -2, -3, -6
1503698725621,-2, -2, -3, -5, -2, -1, -6, -1
1503698725641,-2, 7, 5, 0, -2, -1, 6, 12
1503698725657,-3, -7, -5, 1, 0, -1, 1, -2
1503698725679,1, 0, 1, 0, -2, 1, 0, -4
1503698725701,-1, 1, -3, -2, 0, -1, 0, -5
1503698725724,-1, 0, -1, 1, -1, -2, -2, -1
1503698725739,-1, 0, -6, -3, -3, -2, 0, -2
1503698725761,-3, -2, -4, -1, -1, 0, 2, -3
1503698725784,-3, -3, 3, 0, 1, 0, -1, 0
1503698725799,-2, 2, 13, 5, 1, -1, -1, 3
1503698725822,5, 2, -6, -2, -2, -1, -3, -5
1503698725844,-4, -8, -3, -1, 0, 0, -1, -5
1503698725859,2, -5, -14, -5, -3, -4, -2, 1
1503698725881,-5, -9, -2, -1, -2, -2, 0, -4
1503698725904,-6, -3, 0, 0, 1, -5, -4, -2
1503698725919,3, 5, 4, 1, 1, 0, 0, 0
1503698725941,5, 10, 10, 1, -3, 1, -3, -2
1503698725964,15, 5, 2, 0, 0, 1, -1, 2
1503698725978,-6, 7, 5, 1, -1, 0, -5, -6
1503698726001,-2, -4, -6, -1, 0, 1, 0, 2
1503698726032,-3, -3, -3, -3, 0, 0, 1, -1
1503698726039,-4, -3, -2, 0, 2, 1, 1, 0
1503698726062,-5, -1, 2, -1, -2, -2, 2, 3
1503698726084,-3, -2, -4, -3, -2, 0, 0, 5
1503698726099,-2, -1, 0, 2, 6, -1, 2, 1
1503698726121,-2, -1, 3, 1, -1, 1, 1, -1
1503698726144,-8, -6, -6, -5, -2, 0, 3, -4
1503698726160,-3, 1, 2, 0, 0, 1, 0, 1
1503698726181,2, -4, -5, -2, -3, -2, 0, -1
1503698726204,-4, 0, 1, 0, 0, -1, -1, -1
1503698726228,5, 2, -2, -1, -1, 1, -1, 1
1503698726242,2, 0, 0, 4, 0, 1, 5, -3
1503698726265,3, -7, -7, -4, -1, 2, 0, -1
1503698726287,1, 6, 2, -1, 0, -1, -1, 1
1503698726303,-1, -3, -3, -1, -2, -4, -6, 4
1503698726327,-6, -1, -4, -3, -2, -2, -1, -1
1503698726348,0, -5, -5, -1, 0, 0, -4, -2
1503698726363,-2, 2, 1, -3, -4, -2, -1, 0
1503698726385,0, 3, 5, -2, -2, -1, -2, -5
1503698726407,3, 4, 7, 3, 0, -1, -4, -3
1503698726422,0, 2, 4, 1, 2, 1, -1, 2
1503698726445,-1, -3, -6, -3, 0, -2, 0, -3
1503698726468,-1, -2, -5, -2, -1, -1, -4, -4
1503698726482,-3, -1, -1, 1, 0, -1, -2, -2
1503698726505,4, -2, 2, 0, -2, -2, -2, -3
1503698726528,-2, 1, 1, 2, 1, -2, -1, -3
1503698726542,0, -1, -5, -3, -2, -1, -1, -3
1503698726565,6, 0, -3, 1, -2, 0, 1, 4
1503698726587,-4, 2, 7, 0, 2, 0, 0, -4
1503698726603,-2, -9, -11, -3, -1, 0, -1, 1
1503698726625,-4, -3, 0, 2, -1, -1, -1, 0
1503698726655,-1, 2, 4, 2, 0, -2, 0, 0
1503698726677,-3, -1, -3, -2, -3, -2, -2, -5
1503698726692,-6, -7, -3, -2, -2, -2, -1, -3
1503698726707,-5, -7, -3, -1, -1, 0, -3, -1
1503698726714,-6, 0, -1, -2, 1, 0, -2, -1
1503698726737,0, 0, 0, 1, 0, 1, 1, -1
1503698726745,-4, -5, -1, -3, -2, -1, -3, -3
1503698726767,1, -4, -3, -2, -2, -1, -1, -2
1503698726782,-2, -5, -4, -2, -3, -1, -1, 0
1503698726805,3, -1, -8, -2, -2, -1, -2, -1
1503698726829,1, 2, 0, 1, 0, 0, 0, 0
1503698726842,-1, 9, 6, -2, -1, -1, 0, 0
1503698726865,8, 2, -1, -3, -1, -1, -1, 1
1503698726887,-4, -5, -2, 3, 3, 1, -2, -4
1503698726902,-6, -4, 1, 0, -1, -1, 1, 1
1503698726925,-5, 2, 5, 0, -2, 0, -2, -2
1503698726947,1, 2, -5, -4, -3, -3, -1, -2
1503698726964,3, 1, 6, 2, 0, 0, -2, 0
1503698726987,3, 4, 4, 2, -1, -1, 2, 1
1503698727008,-4, -4, -3, -3, 1, -1, 0, -1
1503698727023,-4, -2, -4, -2, 2, 0, -1, 0
1503698727046,9, -5, -5, -1, -3, -2, -2, 1
1503698727076,-8, -5, -3, -3, -2, -2, -2, 0
1503698727083,-3, 0, 1, 2, 0, 0, 1, -2
1503698727105,-8, -5, -1, -1, -2, 0, -2, -2
1503698727127,-1, -1, -2, -2, -2, -1, -2, -1
1503698727142,-3, -6, -3, -1, 1, -1, 2, 0
1503698727165,1, 8, 4, 1, 2, 1, -2, -4
1503698727188,1, -1, 2, 1, 1, 0, -1, 3
1503698727202,10, 3, -2, -1, -3, -1, -1, -3
1503698727217,1, -3, -1, -3, -2, -2, 1, 0
1503698727233,14, 7, 0, 3, 10, 0, -2, 0
1503698727254,1, -3, -4, -2, -5, -2, -4, 0
1503698727277,-7, -3, 0, 0, -1, 0, 1, 0
1503698727292,-5, -3, 0, 1, 2, -1, 2, -2
1503698727315,-3, -1, 1, 0, -3, 0, -1, -1
1503698727338,3, 1, -4, -1, -3, -3, -3, -2
1503698727352,-3, -2, 1, 1, 1, 1, -1, 1
1503698727369,-6, 0, 1, -1, -4, 0, -3, -4
1503698727383,-1, 0, -1, -3, 0, 1, -1, 0
1503698727406,-3, -2, 1, -1, 0, -1, 0, -2
1503698727427,5, -1, -1, 0, 0, -1, -1, 0
1503698727443,0, -1, 1, 3, 2, -1, 0, 1
1503698727467,-4, -5, -3, -1, 0, -1, -1, 1
1503698727487,1, -1, -1, 0, -1, 0, 0, 0
1503698727503,7, 0, -5, -1, 0, 0, -3, -2
1503698727525,-4, -8, -6, -3, -2, -1, -2, 1
1503698727547,-4, -3, -4, -2, 0, 1, -1, 0
1503698727570,0, 9, 4, 0, -2, -1, 0, -1
1503698727585,1, 5, 1, -1, 0, 0, -1, -2
1503698727607,1, 2, 3, 1, -1, 0, 0, 7
1503698727629,-6, -4, -2, 0, -2, -3, 0, -7
1503698727645,-3, 1, -1, -3, 0, 1, 2, 0
1503698727673,-3, 13, 10, 1, 0, -3, -3, -2
1503698727689,-1, -8, -10, -2, -2, -1, -2, -2
1503698727705,-5, -3, -1, -1, -1, 1, 0, -1
1503698727727,-3, 3, 3, 0, 2, -1, 0, 1
1503698727749,7, -2, -4, 2, -1, -1, -1, -1
1503698727765,1, -7, -7, -4, -3, -2, 1, 1
1503698727787,3, -6, -2, 1, 0, -1, 0, 0
1503698727809,-1, -2, 2, -1, -2, -1, -1, -1
1503698727832,-1, -1, -2, 4, 3, 1, 0, -1
1503698727854,-4, -1, 3, -3, -2, -1, 0, -1
1503698727870,-1, -4, -3, -2, 0, 0, 0, 0
1503698727885,-8, -4, 0, 0, 1, 0, -1, 0
1503698727907,12, 13, 2, 0, -2, -1, 1, 2
1503698727929,-2, -3, -2, -1, 1, 1, 0, -1
1503698727945,0, -3, -1, -2, -1, 0, -1, 0
1503698727967,-1, 8, 4, 0, -1, -1, -4, -1
1503698727989,5, -2, -2, -1, -3, -4, -3, -8
1503698728008,-1, -3, -2, -1, -2, 1, 0, 0
1503698728027,-8, -1, 1, -1, 0, -3, -8, -13
1503698728049,1, 4, 2, 1, -2, -3, -1, -13
1503698728065,2, -5, -6, -5, 0, -1, 3, 7
1503698728088,-1, 7, 11, 4, 0, 1, 1, 6
1503698728116,0, -3, 0, -1, -1, 0, 0, 2
1503698728125,4, -3, -3, -1, 0, 0, 0, 2
1503698728147,-2, 0, -1, -3, -2, 0, 5, 0
1503698728169,3, -3, -6, -2, 1, 0, 1, 2
1503698728185,-3, 8, 12, 3, 1, 2, -1, 2
1503698728210,-2, -5, -5, -3, -3, -1, -3, -2
1503698728229,1, -4, -2, 5, 6, -6, -2, -1
1503698728245,-4, 0, -1, -3, -2, -1, -1, -2
1503698728267,1, -2, -2, 1, -5, 0, -8, -5
1503698728289,-14, -6, -4, -3, -5, 1, 3, 1
1503698728306,0, -5, 1, 2, 2, 1, 0, 0
1503698728327,8, 3, 1, -2, -1, 0, -2, -2
1503698728349,4, 0, -4, -3, -2, -2, 2, 0
1503698728365,-7, -2, -4, -1, 2, 4, 1, 1
1503698728387,-4, -2, 5, 0, 1, -2, -1, 2
1503698728410,-1, -2, -4, -3, -2, -3, -6, 2
1503698728425,-1, -1, -4, -5, -7, -2, 0, -3
1503698728447,3, 1, 0, -2, -2, 0, 2, 2
1503698728469,-1, -7, -7, -2, 0, -4, -11, -3
1503698728492,5, -7, -8, -3, 0, -2, -1, -7
1503698728510,-10, -2, -5, -2, -1, -2, -4, -3
1503698728529,-2, 7, 8, 3, 3, 1, -1, -3
1503698728552,-5, 0, 2, 2, -2, 0, 3, 1
1503698728567,-1, -2, -5, -3, -1, -2, 1, 0
1503698728589,2, 3, 4, 2, -1, 1, 2, 2
1503698728613,3, 1, -2, 0, 1, 0, 0, 1
1503698728630,1, 4, 3, -7, -5, -1, 0, 0
1503698728651,2, 3, 0, 2, 1, 0, -2, -1
1503698728657,-8, -2, -1, 1, 1, -1, 0, 1
1503698728679,-6, -7, -3, -3, -2, 0, 1, -1
1503698728687,8, 1, -4, -1, 0, 0, 4, 4
1503698728710,-7, -2, 3, 1, 2, -1, -11, -9
1503698728732,-11, -4, -1, 1, 0, 0, 5, 5
1503698728750,1, -3, -1, -3, -2, 0, 2, 1
1503698728769,7, -3, -4, 3, 1, -1, 0, 1
1503698728792,-5, 3, 0, -1, -1, -1, -6, -4
1503698728810,-9, -6, -1, 1, -2, -1, 2, 2
1503698728829,0, -1, 0, -1, 0, 3, -1, -1
1503698728854,-4, -1, -3, -3, -2, -5, 0, 1
1503698728867,7, -6, -7, -3, -2, 0, 2, -4
1503698728889,1, 1, 0, 1, -1, -1, 3, 4
1503698728912,0, 2, -1, -3, -2, -2, -2, -1
1503698728927,-9, -1, -1, -1, -2, -1, -5, 0
1503698728950,1, 4, 2, 2, -2, -1, 4, 1
1503698728972,2, 0, -1, 1, 1, -2, -5, -2
1503698728981,0, -3, -3, -3, -1, 1, 0, 1
1503698729001,10, 4, 1, 0, -1, 0, 2, 2
1503698729017,-6, -4, -2, -3, -3, 3, 0, 3
1503698729039,0, -2, -3, -1, -2, -5, 0, -10
1503698729061,2, 3, 0, 0, -1, 1, 2, 4
1503698729078,12, 11, 4, 0, 0, -3, -8, 5
1503698729099,0, 1, -2, 1, -4, -9, 11, 6
1503698729121,-2, -4, 0, 2, 5, 7, -2, 0
1503698729145,-1, -6, -3, -3, -2, -5, -4, 1
1503698729159,-1, -4, 1, 2, 4, 12, -9, 5
1503698729181,-12, -9, -3, -1, 1, 14, 7, 0
1503698729197,4, 1, 2, 0, -3, -8, -2, -8
1503698729220,4, 14, 7, 0, 0, -4, -3, -4
1503698729241,2, 10, 6, 1, 0, 0, -2, -3
1503698729258,-12, -19, -6, -3, -4, 1, 2, 0
1503698729279,16, 10, 1, -2, -3, -6, -10, -4
1503698729301,-10, -5, -4, -4, -2, -3, 1, 0
1503698729317,0, -6, -9, -4, -2, -2, -4, -2
1503698729339,9, 2, 0, -1, -1, -6, -7, -27
1503698729361,-9, -3, -3, -1, 5, 0, 4, 10
1503698729377,-6, 12, 1, 0, 7, 5, -3, -2
1503698729399,8, 0, -7, -4, -5, -11, -7, 1
1503698729422,-5, -3, 7, 5, 1, 3, 6, 4
1503698729443,0, 0, 0, 0, 1, -4, 2, -1
1503698729452,7, 3, -3, -1, -1, -4, 0, 2
1503698729474,18, 9, 1, -1, 4, -1, -1, 1
1503698729504,-8, -10, -2, 0, 2, 3, 3, 4
1503698729519,23, 23, 8, 2, 1, -1, -6, -2
1503698729541,7, 13, -4, -3, 6, -2, -2, -11
1503698729550,16, 3, -5, -3, -3, -7, -3, -2
1503698729572,-8, 1, 0, 2, 1, 2, 3, -8
1503698729594,2, 11, 3, -2, -4, 4, 3, -2
1503698729609,-6, -6, 2, 2, 3, -11, -4, -11
1503698729632,-7, -7, -7, -2, 1, 7, -7, 2
1503698729654,-17, -17, -5, -2, -1, 6, 6, 0
1503698729669,10, 11, 5, 0, -1, 1, -1, -4
1503698729692,-13, -5, -2, -4, -9, -8, -10, 19
1503698729716,11, 10, 0, -1, -1, 1, 4, 9
1503698729730,-22, -4, -2, 0, 4, -2, 4, -4
1503698729752,11, 4, -6, -2, -2, -3, 0, -5
1503698729774,12, 6, 0, 2, -1, -11, 1, 1
1503698729790,-29, -18, 3, 1, 1, 3, 3, 0
1503698729812,-9, -3, 4, 2, -4, 9, 2, 6
1503698729834,-12, -3, -1, -1, -7, -19, 3, -42
1503698729852,4, -10, -4, 0, 0, 3, -6, 0
1503698729872,4, 7, 7, -1, -5, 0, -8, -1
1503698729894,4, -5, -6, -3, 1, 1, 1, 0
1503698729902,5, -1, 4, 3, 2, 14, 10, 0
1503698729924,-8, 5, -2, -1, 1, -7, -6, -13
1503698729939,20, 6, 1, -2, -3, -9, 0, 7
1503698729955,4, -2, -3, -2, 16, 24, -5, -4
1503698729970,-19, -12, -4, 1, -1, 5, 4, 15
1503698729993,29, 10, 3, 0, -8, -11, -5, -4
1503698730014,14, 13, 6, -2, -8, -4, -7, -5
1503698730022,8, 0, -5, -1, 3, 1, -7, -7
1503698730044,-20, -15, -8, -1, 5, 3, 6, 4
1503698730060,-2, 2, -1, -1, 0, 3, 0, -4
1503698730082,-3, -11, -12, -3, -2, -3, 1, 9
1503698730104,3, -1, -2, -1, -2, -4, -1, -15
1503698730120,-20, -8, -2, -1, 1, -2, -3, -12
1503698730142,3, 4, 1, -3, 0, 7, 4, 11
1503698730164,20, 22, 16, 4, 2, -4, -1, -8
1503698730179,-11, 5, 0, -2, 1, 5, -1, -6
1503698730202,0, -13, -9, -1, -2, 0, -1, 22
1503698730224,-4, 2, 0, 0, -6, -4, -5, -9
1503698730239,11, 7, 1, -4, -8, -2, -3, -22
1503698730262,-3, -5, -2, -1, 0, -1, 2, 11
1503698730284,-2, 11, 8, 2, 12, 7, 4, -39
1503698730306,13, 0, -4, 1, -5, -8, -4, 10
1503698730322,10, -6, 2, 0, 0, -3, -2, 48
1503698730344,-9, -7, -1, -1, -3, -1, 12, 22
1503698730366,-9, -11, -4, -1, -2, 0, -2, -11
1503698730382,5, 17, 2, 0, 0, 5, -5, -4
1503698730403,1, -7, -6, -1, 1, 1, -8, 16
1503698730426,13, 3, 1, -1, -1, -2, 4, 2
1503698730442,-6, -10, -1, 2, -3, -5, -1, 5
1503698730463,-12, -7, 0, -1, -1, -6, -8, -30
1503698730492,-25, -13, -4, -1, -5, -17, -1, -5
1503698730502,33, 19, -1, -3, 5, 17, -14, 9
1503698730526,-19, -8, -2, -3, -1, -1, 2, 0
1503698730546,1, 4, 2, -1, -7, -21, -4, -45
1503698730562,6, 1, -2, -1, -6, -6, 7, 3
1503698730584,2, -3, 0, 1, 2, 6, 5, 39
1503698730606,-14, -3, -5, -2, 1, 8, 8, 3
1503698730622,-19, 0, 4, 2, -2, 0, -1, -21
1503698730643,9, -7, -3, 0, 0, 1, -3, 10
1503698730667,11, 3, 4, 2, -4, 0, 2, 25
1503698730682,4, 3, 4, 0, 3, 0, 0, 0
1503698730703,0, 2, 0, -3, 1, 7, 5, -7
1503698730726,14, 0, -4, -1, 7, 10, -2, 16
1503698730741,2, 4, 1, -1, 0, 1, -5, 1
1503698730757,0, 9, 9, 3, 1, -1, -4, 5
1503698730772,3, 2, -3, -3, -4, 5, -4, -12
1503698730794,4, -6, -5, -3, 6, 7, 2, 7
1503698730802,-5, 3, -1, -1, -6, -10, -9, -24
1503698730824,2, -14, -6, 0, 15, 24, 0, -26
1503698730846,-21, 5, 3, -1, -3, 3, -2, -34
1503698730862,-8, -6, -1, -1, -3, -3, 0, 9
1503698730877,-13, -9, -1, 1, 13, 16, -5, -4
1503698730892,10, 5, 0, 2, -1, 0, 10, 22
1503698730914,0, -4, -3, -1, 9, 11, -12, -10
1503698730937,-17, -8, -1, -1, 1, 2, -5, -15
1503698730952,9, 8, -5, -2, -3, -2, 2, -7
1503698730974,2, 2, 1, -2, -4, -5, -4, -6
1503698730997,14, 7, 0, -2, -3, -2, -1, 9
1503698731011,3, -5, -3, 1, -3, -5, -2, 13
1503698731034,27, 19, 7, 2, -1, -5, -8, 5
1503698731059,-5, -8, -4, -2, -11, -20, -4, -33
1503698731072,-17, -11, -3, 0, -2, -4, 3, 1
1503698731095,2, 0, 0, 0, -1, 0, 1, 3
1503698731117,31, 18, 5, -3, 8, 28, 4, 12
1503698731132,12, -5, -3, -2, -2, -5, 7, 25
1503698731154,-20, -15, -1, 0, 6, 5, 5, 12
1503698731177,-16, 3, 5, -1, -4, -5, 4, 0
1503698731195,-12, -3, -3, 0, -1, 3, -9, -14
1503698731214,4, -1, -4, 0, -2, -5, -11, -6
1503698731237,-39, -11, 2, 1, -1, -4, 6, -13
1503698731252,1, 1, 4, 0, 0, -11, 2, 1
1503698731274,5, 4, -2, -1, -3, -2, -1, -6
1503698731297,20, 10, -4, -1, -7, -1, 6, 9
1503698731319,-10, -10, -3, -1, 1, 2, 3, -6
1503698731334,2, -10, -5, -5, 0, 9, 1, 24
1503698731357,-3, 3, -4, -1, 5, 4, 2, 1
1503698731379,-3, -2, 0, 1, 3, 8, -8, -7
1503698731395,-1, -9, -6, -1, -2, -11, 1, -2
1503698731417,-7, 0, -1, 2, 1, 2, -5, -19
1503698731439,5, 3, 3, 0, -7, -13, -3, -8
1503698731454,-6, -5, 1, 0, -6, -2, 0, 28
1503698731477,-12, -3, 1, -1, 1, -2, -1, 1
1503698731500,17, 5, 0, -2, -2, -3, -3, -6
1503698731514,-11, -2, -2, 1, 1, -1, -6, -12
1503698731537,-5, -1, 4, -1, -3, -2, -2, -36
1503698731559,8, -3, -6, -3, 0, 4, 3, -5
1503698731574,-1, -3, -2, -1, 3, 3, 7, 22
1503698731597,-10, -5, -2, -1, 0, -3, -5, -32
1503698731619,2, -4, -6, -2, 0, 1, 1, 10
1503698731636,-1, -4, -4, -5, -4, -6, -5, 3
1503698731657,26, 8, 2, 2, 2, 3, 0, 44
1503698731679,11, 10, -1, -1, -4, -1, -1, 7
1503698731698,-20, -12, -2, -2, -2, -2, 0, -3
1503698731717,9, 3, 0, 0, -1, -1, -2, 4
1503698731740,5, 7, 2, 1, 1, 2, -3, -1
1503698731754,-5, 0, -1, 0, 1, 3, -2, -2
1503698731777,17, 4, -4, -3, 3, -1, -2, -6
1503698731785,-9, -4, -1, -2, -1, -3, -11, -48
1503698731807,-1, -7, -4, 1, 0, -3, 2, 14
1503698731831,-1, -3, -3, 2, 1, -1, 2, 24
1503698731845,14, 3, -2, -6, -10, -3, -1, 3
1503698731867,0, 15, 7, 3, 4, 0, 1, 12
1503698731890,-11, -6, 0, -1, 2, 5, -1, 3
1503698731905,-6, -1, 2, 3, 1, -1, 1, 0
1503698731927,0, 3, 3, 0, 4, 8, 2, -13
1503698731950,-9, -9, -4, -1, -3, -6, -4, -12
1503698731965,-1, -6, -6, -4, -1, -3, -3, 3
1503698731988,-8, 0, 2, -1, -1, -2, -1, 5
1503698732010,0, 0, -4, -2, -1, -3, -1, 0
1503698732025,9, -3, -6, -2, -3, 0, -1, 7
1503698732047,4, 0, -1, -1, -2, 0, 0, 0
1503698732070,-1, -5, -2, 0, 1, -1, -3, 0
1503698732085,-6, -3, 3, 0, 2, -1, -1, 1
1503698732107,2, 0, -3, 0, -1, 0, 0, 2
1503698732130,-8, -6, -5, -1, -1, 0, 0, 8
1503698732145,-1, 2, 3, -2, -1, 0, 1, -2
1503698732167,-3, 1, 1, -1, 0, 0, -2, -5
1503698732190,3, 0, -4, -1, -3, -4, -6, -12
1503698732211,13, 1, 0, -3, -1, -2, 3, 7
1503698732227,2, 3, -2, 1, 1, 0, 0, 3
1503698732250,-12, -5, 0, -2, -1, 0, 1, -5
1503698732272,-3, -4, 0, -2, -3, -1, 0, 2
1503698732287,-4, -1, 2, 2, 2, 0, -1, -1
1503698732310,12, 3, -1, -1, -2, -2, -1, -4
1503698732334,13, 9, -3, -2, -2, -3, -3, 2
1503698732347,-3, -3, 2, -1, 2, 1, -1, -3
1503698732370,7, -3, -5, -3, -2, -2, -3, -1
1503698732392,3, 9, -2, -4, -3, -1, 0, -1
1503698732407,4, 0, 2, 1, 0, 0, -1, 1
1503698732430,-20, -13, -5, 0, -1, 1, -1, -8
1503698732452,-7, -8, -3, -1, 0, -1, 0, -5
1503698732471,-8, -3, 0, -1, -1, -1, -1, 1
1503698732490,-5, -3, 0, -1, 0, -1, -1, 2
1503698732512,2, -3, 2, 1, 1, 1, -1, 4
1503698732527,0, 2, -1, 0, -2, 0, -1, 0
1503698732550,-6, 5, 5, 0, -1, -2, 0, -1
1503698732572,1, 1, 1, -2, 0, -1, 0, -2
1503698732587,18, 11, 1, 2, 0, 0, -1, 0
1503698732610,-19, -9, -5, -4, -1, -1, 0, -4
1503698732632,-2, -5, 1, 3, 2, -1, -1, -3
1503698732647,5, 4, 2, 1, 1, -1, -3, 1
1503698732672,3, 0, -1, 0, 1, 0, -2, 0
1503698732692,-13, -8, -7, -4, -5, -4, -1, -6
1503698732709,-1, 18, 18, 4, 3, 2, 4, 4
1503698732730,-5, -5, -7, -2, -2, -1, -3, -2
1503698732752,2, -1, -7, -1, -1, -1, -2, -6
1503698732767,-3, -4, 0, -1, -2, 0, -1, -4
1503698732790,-5, -5, -1, 2, 0, 0, 0, 10
1503698732812,7, -2, -9, -9, -5, -4, -1, -15
1503698732827,-4, -5, -4, -1, -2, 0, 0, 4
1503698732850,1, 5, 4, 2, 2, 0, -2, 2
1503698732872,-2, 3, 4, 1, 1, 0, -4, -4
1503698732887,-8, -5, -5, -1, 2, 1, -2, -3
1503698732910,-5, -4, -2, -2, -1, -2, 0, 3
1503698732932,5, -10, -9, -4, -4, -1, 2, 0
1503698732954,2, 1, 3, -1, -2, 0, 2, 4
1503698732976,-5, -1, -3, -1, 0, -1, 1, -2
1503698732991,13, 3, 2, -4, -5, -3, -4, 0
1503698733007,10, 1, -6, -4, -6, -1, 0, 4
1503698733029,-3, 20, 11, 3, 3, 2, -1, 0
1503698733051,-6, -3, -2, 3, 0, -1, 1, 0
1503698733067,-4, -6, -1, -2, -1, 0, -1, -1
1503698733090,15, 2, 0, 2, 2, 3, 0, -4
1503698733112,-9, -2, 4, 0, 0, -1, 0, 3
1503698733134,2, -5, -1, 0, -1, -3, -1, 0
1503698733150,0, -4, -5, 0, -1, -2, -1, 1
1503698733173,-5, -2, -1, -2, -1, -2, -2, -6
1503698733194,-5, -6, -5, -2, -3, -7, -3, 3
1503698733210,-2, 0, 2, 2, 2, 1, 2, -5
1503698733232,4, -2, -2, -2, -1, 0, 1, 17
1503698733254,-1, -1, -3, -4, -3, 2, 0, 2
1503698733270,1, -1, 1, 0, -1, -1, 1, 0
1503698733292,-12, -14, -14, -5, -3, -1, -1, -2
1503698733314,-8, -6, -4, -2, 0, -2, -1, -6
1503698733330,9, 6, 4, 2, 2, 0, -1, -2
1503698733352,15, 11, 5, 0, -1, -3, -6, -3
1503698733375,-6, 1, 3, 1, 2, 1, 0, -2
1503698733390,9, 5, 2, 0, -1, 2, 2, 1
1503698733412,-15, -6, -2, 0, 0, -1, 0, -3
1503698733434,-10, -2, 10, 3, 1, -2, -1, -3
1503698733450,-1, -4, -8, -6, -3, 0, 0, 0
1503698733472,0, 4, 3, 2, 0, 1, -1, -1
1503698733494,12, 5, -3, -3, -3, -3, -4, -2
1503698733510,-3, -3, -2, -1, 0, -1, 0, -2
1503698733532,6, 1, -4, -1, -1, -2, -4, 0
1503698733554,1, 5, 9, 5, 2, 1, 0, 0
1503698733570,-8, -5, -4, -2, 0, 1, -1, -2
1503698733592,-5, -6, -6, -3, -1, 0, -1, -3
1503698733614,-3, 2, 3, 0, -1, -4, -3, 0
1503698733632,-1, -2, -2, -1, -2, -1, 2, -1
1503698733652,-1, -4, -3, -4, -1, -2, 1, -1
1503698733677,-5, -4, 2, 1, -1, 1, 0, -2
1503698733690,0, -1, -2, -2, -1, 1, -1, 0
1503698733712,-3, -2, -2, -2, -1, -1, -2, -1
1503698733720,1, 0, -2, 0, 0, -1, 0, 1
1503698733744,4, -1, 1, 1, -2, -2, -1, -3
1503698733764,-4, -2, 2, 1, -2, -1, -2, 2
1503698733779,-5, -1, 0, -1, 1, 0, 0, -3
1503698733802,-5, -7, -7, -2, -3, 1, 1, -1
1503698733824,3, -7, -7, -1, 0, -3, -3, -1
1503698733839,1, -1, -1, -1, -1, 1, -1, -1
1503698733862,-8, -2, 0, -2, 0, 0, -4, -3
1503698733884,-2, 5, 2, 0, 0, 1, 0, 1
1503698733906,-2, 1, 1, -4, -1, -1, 1, 0
1503698733922,1, 0, -1, -2, -1, 0, 0, 0
1503698733946,-1, 0, 0, 1, -2, 1, -4, -1
1503698733959,-3, 2, 1, 1, 0, -2, -2, 0
1503698733982,0, 0, 1, 1, 0, -1, -1, -1
1503698734004,-4, -2, 1, 3, -1, 0, 1, -1
1503698734021,0, -14, -8, -4, -2, -2, 1, 1
1503698734042,-3, 3, 2, 1, 0, -1, -2, -1
1503698734052,0, 1, 0, -2, -2, -3, 1, -1
1503698734072,6, 4, -2, 0, 0, 0, -1, 0
1503698734094,0, 7, 3, 0, -1, -1, 0, 0
1503698734118,-7, -15, -6, -3, -3, -1, -1, -2
1503698734132,7, 13, 7, 2, -1, 1, 0, 0
1503698734154,-1, -3, -2, -1, 0, 0, 0, 0
1503698734162,4, -6, -4, 0, -1, -1, -1, 0
1503698734186,-6, 0, 2, 0, 0, -1, -2, -2
1503698734206,9, 3, 0, -1, -1, -2, -3, -1
1503698734222,-19, -8, 1, 2, 1, -1, 0, -4
1503698734244,2, 0, 0, -3, 1, 2, 2, -2
1503698734266,1, 1, 0, -2, 6, 6, -1, 1
1503698734282,5, 6, 2, 1, -8, -6, -3, -2
1503698734304,-5, 0, -2, -1, -1, -2, -2, 0
1503698734326,17, 29, 32, 6, 2, 3, 1, 3
1503698734341,-4, -4, -10, -5, 0, -1, 0, -3
1503698734364,-4, -15, -12, -3, -3, -2, 1, 1
1503698734386,15, 9, 5, 0, -1, -1, 1, 1
1503698734401,5, -4, -5, -2, -2, -3, -4, -6
1503698734424,-16, -12, -7, -3, 0, -1, 0, 0
1503698734446,-8, -5, -4, 0, -2, -1, -1, 1
1503698734462,0, -3, -4, -2, -1, -1, -1, -2
1503698734484,-2, -6, -2, 2, -1, -1, -1, -1
1503698734492,6, 3, -2, -4, 0, -2, -3, 0
1503698734516,5, 1, -2, -2, -3, -1, 1, 0
1503698734536,-5, -5, -2, 0, -1, 0, -2, 1
1503698734553,2, 0, 3, 0, 0, -1, 0, 0
1503698734574,-7, -9, -7, -3, -2, -2, -2, -1
1503698734597,13, 12, 13, 7, 2, 0, 0, -1
1503698734612,-6, -4, -2, -4, -2, -4, -2, -4
1503698734634,-3, 0, -4, -1, 0, 0, 0, 2
1503698734657,-11, -4, -2, -1, 1, 0, 0, -4
1503698734686,2, -4, -5, -2, -1, -3, -3, -2
1503698734701,0, -1, 1, 1, 0, -1, -1, -2
1503698734724,2, -2, -1, -2, -1, 0, -1, -1
1503698734746,-10, -5, 2, 1, 1, -1, -2, -2
1503698734761,4, 7, 4, 4, 4, 1, 2, 2
1503698734786,-10, -6, -2, -2, -2, 1, 1, 0
1503698734806,-4, -4, -1, -1, 0, 0, -1, -2
1503698734822,3, -1, -1, -1, -1, 0, -1, 1
1503698734844,-2, -1, -3, -4, -3, -2, -1, -1
