1503614249228,-3, -1, -1, -2, -2, -1, -1, -2
1503614249243,1, 1, 2, 2, -1, 0, -1, -1
1503614249273,0, -1, -1, 1, 0, -3, -1, -1
1503614249295,-1, -1, -1, -3, -2, 2, 1, -1
1503614249317,-3, -3, -1, -2, 0, 0, 0, 0
1503614249335,-2, -1, -1, -1, -2, 0, 0, -3
1503614249355,-3, -3, 0, -1, 1, 0, 0, 1
1503614249377,-1, -2, 1, 0, -2, -1, -1, -2
1503614249392,0, -1, -1, -2, -1, -1, -1, 4
1503614249415,0, 1, 0, -2, 0, -1, -2, -2
1503614249438,1, 1, -1, 0, 0, -2, -2, -2
1503614249452,0, -3, -2, 1, -1, 0, 1, -1
1503614249475,-1, 0, -1, 1, -1, 0, -1, -1
1503614249497,-1, 0, 1, 1, -1, 1, -2, 0
1503614249512,-1, -1, -1, -1, 0, -3, -2, -1
1503614249535,-1, 0, 0, 0, 0, -2, -3, 0
1503614249556,-3, 0, -1, -1, 0, 0, 0, -2
1503614249565,-1, 1, 0, 1, -1, -2, -3, -1
1503614249587,3, 2, 0, -2, -2, 0, 1, 0
1503614249603,0, 0, 1, 1, -1, 0, 0, -1
1503614249625,-2, 1, 3, 0, -1, -1, -2, -1
1503614249647,1, -2, -1, -4, 0, -1, -2, 0
1503614249663,0, -2, -3, -1, -1, 1, -4, -2
1503614249685,-4, -1, -1, -2, -1, 0, -1, -3
1503614249708,-1, -4, -3, 0, -1, -1, 1, 2
1503614249723,3, -3, -2, -1, -2, 0, 0, -1
1503614249745,-3, 0, -1, -1, -2, -2, 0, 3
1503614249767,-4, -1, 1, -2, -1, 0, -3, -3
1503614249784,1, -2, -3, 0, 0, 0, -1, -2
1503614249805,-2, -2, -1, -1, -1, -1, 0, 1
1503614249827,3, 1, 0, -2, -1, 1, 1, -1
1503614249843,-4, 0, -3, 0, -2, 1, 0, -1
1503614249865,5, 5, 0, 1, -2, -2, 2, 3
1503614249887,-2, -2, -1, -3, 0, -1, -2, -8
1503614249910,-12, -2, 0, -1, -2, -4, -3, -3
1503614249925,2, -3, -1, 0, 0, 0, 0, 0
1503614249949,1, -1, -2, 1, -2, -1, -1, -1
1503614249970,-4, -5, -5, -4, 0, 1, 3, 1
1503614249985,-2, -4, -3, 2, -1, -2, -1, 2
1503614250008,5, 4, 1, -3, 1, -1, 1, 3
1503614250030,2, -4, 0, 1, -1, -2, -1, -3
1503614250045,1, 2, 1, -2, 1, 1, -2, 0
1503614250068,-1, 1, -1, 2, -1, 1, -2, -7
1503614250090,1, 0, -1, -2, 1, -3, -3, -1
1503614250105,0, -2, 2, -1, 1, -2, 0, 1
1503614250127,0, -2, 1, -3, 0, -3, 2, 1
1503614250150,-1, -4, -3, -1, 0, 0, -1, 1
1503614250165,-1, -2, -3, 0, -2, 2, 0, -1
1503614250187,0, 0, 0, -1, 0, -4, 0, 3
1503614250211,-1, 1, 2, 4, -1, -1, -4, -4
1503614250217,3, -1, 0, 0, -2, 1, -1, 1
1503614250239,0, 0, -2, -2, 0, -5, -5, -8
1503614250255,-1, -3, -2, -2, -1, -1, 3, 5
1503614250278,3, 0, -2, 0, -3, 0, -2, -6
1503614250299,-2, -1, -1, 1, 1, -2, -2, -1
1503614250315,5, 0, 0, -1, -1, 1, -3, 2
1503614250336,-3, -2, 0, 2, -1, 0, 0, -3
1503614250359,-3, 0, -2, -2, -1, -1, -4, -4
1503614250375,6, 1, 0, 1, 1, 0, 3, 4
1503614250396,-3, -2, 0, 0, -1, -2, -1, -1
1503614250419,-3, -1, -1, -1, -1, 0, 1, 0
1503614250435,-1, 5, 0, 0, -1, -2, -2, -4
1503614250456,1, -3, 0, 2, -1, -1, 1, 3
1503614250480,-1, -1, -2, -2, -1, 1, 0, 0
1503614250501,1, -2, -3, -2, -1, 1, 1, 2
1503614250517,-3, -2, -1, 0, 0, 0, -2, 1
1503614250539,-3, -1, -1, -3, 0, 0, 1, -2
1503614250555,2, 0, -3, -2, -1, -2, 0, 3
1503614250576,-2, -1, 0, -1, 0, -1, 0, -3
1503614250599,-2, -1, -1, -1, -1, -1, -2, -1
1503614250615,0, 0, -1, -1, 0, -3, -3, -9
1503614250637,-4, -2, 0, 2, 0, -1, 1, 2
1503614250659,-2, -2, 0, -2, -1, 2, 1, 2
1503614250675,-1, 1, 1, 0, -1, -2, -3, 0
1503614250696,-3, -1, -1, 0, -1, 0, -2, 2
1503614250719,0, 0, -2, 0, 1, 0, -1, 2
1503614250735,2, 0, 1, 0, 0, -1, -3, -3
1503614250756,-2, -1, -2, -2, -3, -2, -1, -1
1503614250765,-1, -2, -1, -1, -2, -1, 0, -1
1503614250787,-2, 0, -3, 0, 1, 1, 0, -3
1503614250811,0, -2, 1, -1, -1, -1, -4, -1
1503614250832,0, 0, -2, 1, 0, 0, -1, -2
1503614250850,-2, 0, -1, -1, -1, -2, -2, -3
1503614250870,-2, -3, -2, -1, 0, -1, -1, 0
1503614250892,0, 1, 0, -2, -3, -1, -1, 0
1503614250907,1, -1, 1, 0, -1, 1, 0, -4
1503614250930,-1, 1, 1, 0, -2, -2, -3, -1
1503614250953,1, -2, -2, -2, 2, 0, -1, -2
1503614250967,-1, 2, -2, 0, 0, 1, 1, 4
1503614250990,0, -2, -1, -1, -3, -1, -1, -2
1503614251012,2, 0, 0, 0, -2, 0, -1, 2
1503614251027,-1, -1, -1, -2, 0, -2, 0, -2
1503614251051,-4, 0, 0, 1, 0, 2, 0, 1
1503614251072,0, -4, -2, -3, -1, -3, -1, 0
1503614251087,0, 0, -2, -1, -4, -1, 0, 2
1503614251109,-2, -2, -1, -2, -1, 1, -1, 0
1503614251132,1, 3, 1, -1, -1, 0, -2, 0
1503614251147,0, -1, 1, -1, -1, -2, 0, -2
1503614251169,0, -1, -3, 0, 0, 0, 0, -3
1503614251193,1, 0, 2, 1, 0, -3, -6, -2
1503614251207,-2, -3, -1, -1, 0, -3, -1, -1
1503614251230,0, 1, -1, 1, 0, 0, 1, 1
1503614251252,-1, -1, 0, -3, 1, -1, 1, -3
1503614251268,0, -2, -4, -1, -2, 0, -2, 1
1503614251290,-1, -3, -2, -1, -1, -2, -4, -9
1503614251312,2, -1, 0, 1, -2, -1, -1, 0
1503614251328,1, 0, -1, 0, -2, 1, 0, 1
1503614251351,0, 3, -3, 1, -1, -1, 0, 1
1503614251372,-1, -4, -3, -2, -1, -1, 0, 0
1503614251388,1, -2, -2, -1, 1, 1, 3, -1
1503614251409,-4, 1, 1, 0, 0, 0, -1, 0
1503614251432,0, 0, 0, -2, -1, -1, -3, -1
1503614251447,1, -1, 0, 1, 1, 0, 0, 2
1503614251470,-2, -3, -1, -4, 0, -2, 1, -1
1503614251492,-1, -1, -2, 1, -2, 0, -2, -4
1503614251507,2, -1, 0, -1, -1, 0, -1, -1
1503614251530,-2, -2, -1, -2, -1, -2, 0, -2
1503614251553,0, 0, 0, -2, 0, -2, -1, 1
1503614251568,-4, 0, 0, 2, 1, 0, -2, 0
1503614251590,-4, 1, 1, 0, -1, 0, -2, 0
1503614251612,-1, -3, -2, -4, -2, -2, -1, 1
1503614251627,0, -3, 0, 0, -1, 0, 2, 1
1503614251650,0, 0, -2, -1, -1, -2, 0, -1
1503614251672,-2, 0, 0, 1, -1, 1, -1, 0
1503614251688,0, 0, -1, 1, 0, -3, -5, -4
1503614251710,-3, -4, -2, -3, -1, -1, -3, -4
1503614251732,1, 1, -1, -2, 0, 1, 0, 2
1503614251755,-2, 0, 2, 1, -1, 0, -1, 1
1503614251771,0, 2, -1, -1, 0, -1, 1, -1
1503614251793,0, 2, 3, 1, -1, -2, 0, 0
1503614251815,-2, 0, -4, -1, -1, -3, -2, -9
1503614251831,-2, -4, -1, -3, -1, -1, -1, 3
1503614251852,-1, -2, -1, -1, -3, 0, -1, -3
1503614251875,-1, -2, -3, -3, 0, 0, 1, 3
1503614251890,1, 0, -3, -2, -1, 0, 0, 0
1503614251912,-2, -2, -2, 0, -1, -1, -3, -3
1503614251935,-1, 1, -1, 0, -1, 0, -1, -5
1503614251950,0, -2, 1, 0, -1, -1, -1, 1
1503614251973,0, -1, -5, 0, -2, -2, 0, 3
1503614251996,0, 1, 0, 1, -1, 0, -1, -2
1503614252010,-1, -1, 1, 0, -1, -1, 0, -1
1503614252033,-2, 2, -2, -1, -1, -1, -1, 1
1503614252057,0, -2, -1, -1, 0, -3, 1, 0
1503614252070,-1, 2, 2, 2, -1, 1, -1, -1
1503614252092,1, -1, -1, 1, 0, -1, -1, -1
1503614252116,1, -3, 0, -2, -1, 0, 0, 0
1503614252130,-2, 1, 0, -1, 0, 1, -3, -1
1503614252145,-1, -1, 1, -3, 0, 0, -1, 0
1503614252161,0, -1, 2, 0, -1, -1, -1, 0
1503614252183,0, 0, -2, 0, -2, 1, -1, -3
1503614252205,1, -2, -2, -2, 0, 0, -1, -3
1503614252220,-3, 0, -2, -1, -2, -3, 0, 2
1503614252242,3, -1, -1, -1, 0, 0, 2, 2
1503614252250,0, 0, -1, -2, 0, 0, 0, 2
1503614252272,0, -2, -3, -3, -1, 0, 1, 1
1503614252295,-1, -1, -3, -1, 0, -3, 0, 1
1503614252302,-1, -2, -2, -2, -1, -2, -2, 1
1503614252310,-3, -2, -3, -1, -2, -2, -4, -2
1503614252332,-1, -2, -2, -1, -2, -3, -1, -2
1503614252355,0, -1, 0, 1, -1, 1, 0, -3
1503614252370,-1, 1, 0, -1, -2, -2, -4, -3
1503614252393,-1, -1, 0, -2, 0, 0, 1, -1
1503614252415,1, -2, -3, -1, -1, 0, 0, 1
1503614252430,-3, -1, -1, 2, -1, -3, 0, -1
1503614252452,-1, -1, 0, -1, -1, -3, 0, 0
1503614252475,-1, -2, -3, 0, 1, 1, -2, 0
1503614252490,-2, -1, 0, -4, -1, 1, -3, -6
1503614252512,0, -1, 0, -1, -2, 0, 1, 1
1503614252535,-2, -1, -1, -1, 0, -1, 0, 2
1503614252550,-2, -1, -3, -1, -2, -1, -2, -2
1503614252572,0, 1, 2, 0, -1, -1, 0, 3
1503614252595,1, -2, 0, -1, -1, 1, 0, -1
1503614252610,0, 2, 1, 0, 0, -2, 0, 3
1503614252633,-1, -2, -2, -2, 1, -3, -1, -3
1503614252655,0, 1, -1, -3, 0, 2, -2, -1
1503614252677,0, -3, -1, -2, -2, 0, 0, 1
1503614252695,0, 1, 1, 1, -2, -2, -2, -2
1503614252715,0, -3, -2, 0, -1, -1, -2, -4
1503614252737,-1, -1, -1, 0, -2, -1, 1, -3
1503614252753,0, -2, 3, -1, 0, -1, 0, 0
1503614252767,-5, 2, 0, 0, 0, -2, -1, -5
1503614252783,2, 1, -1, -2, -1, -1, 0, 1
1503614252805,1, -1, 4, -1, 0, 0, 1, -2
1503614252829,-1, 1, 0, 1, -2, -1, -1, -3
1503614252843,0, -1, -1, 0, -1, -1, -1, 0
1503614252868,-1, -3, -4, -2, 1, 0, -3, -3
1503614252887,-1, -3, -1, -4, -1, -1, 0, 3
1503614252903,1, 2, 1, 2, -1, -1, 1, 1
1503614252925,-1, -2, -2, -1, 0, 0, 0, -1
1503614252947,-2, -1, -2, -1, -1, 0, -4, -7
1503614252964,0, 0, 0, -2, 0, -2, -1, 0
1503614252985,-2, -2, -2, -2, 1, -2, -1, 0
1503614253007,-1, -2, -3, -2, -2, -4, -2, -3
1503614253022,1, -3, -2, -2, -1, 0, 0, 6
1503614253053,-1, -2, -3, -3, 0, -2, 0, -4
1503614253075,1, -3, -3, -1, 0, -2, 0, 0
1503614253098,-4, -1, -3, -3, -2, 0, 2, 1
1503614253112,-2, 0, -1, -2, 1, -1, -1, -1
1503614253135,-1, -3, 1, 1, -2, 0, 0, 2
1503614253157,0, 0, 0, 0, -1, -3, -3, 2
1503614253173,0, -2, 1, -1, -1, -2, -1, -1
1503614253195,0, -4, -1, -1, -1, -2, -1, -1
1503614253217,2, -1, -1, 1, 0, -1, -2, -4
1503614253232,1, 0, -2, 0, -2, 2, 0, 5
1503614253255,-1, 1, -1, -1, 0, -1, 1, -3
1503614253277,-2, -2, 1, -1, -2, 1, -1, -1
1503614253292,0, 1, -3, -2, 0, -2, -2, -1
1503614253314,-1, 1, 2, 2, -2, -1, -1, 0
1503614253337,-2, 1, -2, -1, -1, -1, -1, -1
1503614253352,-1, -1, 1, 0, -1, -2, -3, 0
1503614253367,-1, -1, -3, -2, -1, 1, -1, 1
1503614253382,-1, -3, -2, 1, 0, -1, -1, -1
1503614253405,-2, -2, 1, 1, 0, -1, 1, -1
1503614253427,0, 0, 1, -2, -3, -1, 0, 1
1503614253443,-2, -3, -2, -1, 0, -1, 1, 3
1503614253467,1, 1, 1, 1, -3, 0, -1, 0
1503614253487,-1, 0, -3, 1, -1, 1, -1, -1
1503614253503,-1, -2, 0, 0, -2, -4, -1, -3
1503614253525,-1, 0, 0, 0, 0, 1, -2, -1
1503614253547,0, -1, -1, -2, -1, -1, 2, -2
1503614253562,1, -1, -1, -2, -1, -2, -3, -1
1503614253585,-2, 0, -4, -2, 0, 1, 0, -2
1503614253607,-1, 0, 1, -1, -2, -2, -1, -5
1503614253629,0, -1, 1, -1, 0, 2, 2, -1
1503614253645,-2, -1, -2, -2, 0, -1, 0, -1
1503614253670,1, -1, 2, 1, -1, 0, 2, 4
1503614253689,0, -3, -1, 0, -2, -3, -5, 2
1503614253697,-1, -1, 1, -1, 2, -1, -1, 2
1503614253719,-3, -2, 0, -2, -2, -1, 1, 2
1503614253735,-3, -1, -3, 1, -1, 1, 0, 1
1503614253757,-1, -1, 0, 0, -1, -2, 0, 1
1503614253779,-1, -2, 0, -3, 1, 0, 0, 1
1503614253808,1, 1, 0, 1, -3, -1, -2, -1
1503614253827,0, -2, -3, -4, -3, -1, -2, -1
1503614253841,-1, -2, 1, 0, 1, 1, -2, 0
1503614253855,-1, -2, -1, -2, 0, -2, 2, 1
1503614253878,1, 1, 0, -1, -2, -1, -3, 0
1503614253899,0, 0, 0, -1, -1, -1, 0, -2
1503614253914,0, 0, -3, 1, -1, 0, -3, -3
1503614253937,-1, 1, 3, -1, 1, -3, -2, -2
1503614253959,-3, -1, -2, -1, 0, -1, -3, -6
1503614253974,-1, -1, -4, -2, -1, -1, 0, -1
1503614253997,-1, -3, -3, -1, 0, -2, 0, -3
1503614254019,1, 0, -1, -3, -2, 1, 1, 3
1503614254035,-1, -3, 1, -1, 2, 1, -2, 2
1503614254057,-1, 1, 1, 1, -2, -1, -2, 1
1503614254079,1, 1, -3, 1, -1, 1, -1, -3
1503614254094,-3, -2, -2, -2, -1, -1, 1, -3
1503614254117,1, 0, 0, 0, -1, -2, -2, -1
1503614254139,0, -1, -1, -1, -2, 1, -1, 0
1503614254154,1, -2, -2, -1, 1, -1, 0, 0
1503614254177,-1, -1, -2, -1, 0, -2, 0, -1
1503614254199,0, 0, 0, 3, -1, -1, -4, -1
1503614254215,0, -3, 0, -1, -4, -1, -1, 0
1503614254239,-2, 2, 1, -2, 0, -2, -3, -8
1503614254263,-1, 2, 3, 5, 0, -1, 0, 2
1503614254275,-1, -3, -2, -3, -1, -1, 3, 0
1503614254297,0, -1, -1, -2, -2, 0, -2, 0
1503614254319,-2, -2, -2, -1, -2, 0, 1, -1
1503614254334,-1, -1, -4, -2, 0, 0, 0, 0
1503614254357,-1, 0, -1, 0, 0, 0, -1, 0
1503614254379,-1, 0, -1, 0, -1, 0, -2, -3
1503614254394,-3, 0, -1, -2, -2, -1, 3, 1
1503614254417,0, -2, 0, -1, 0, -1, -1, -4
1503614254440,0, 0, 0, 0, 0, -1, -1, -1
1503614254454,-1, -3, -2, 0, 0, -3, -1, 0
1503614254477,0, -2, 1, 0, 1, 0, 0, -2
1503614254499,2, 1, 0, 0, 0, 1, -3, -1
1503614254515,0, 0, -2, -1, -3, -1, -2, 0
1503614254537,0, 0, -2, -1, 0, -1, 0, 3
1503614254559,-2, 2, 0, -3, -1, 0, -1, -3
1503614254581,-1, -4, -1, -1, 0, 0, -2, 2
1503614254597,-1, -1, -2, -2, -1, -2, 2, 2
1503614254621,1, -1, -2, -2, -1, 0, 0, 2
1503614254642,-1, -3, -2, 0, -1, 0, -1, -2
1503614254657,0, 0, 1, 0, 1, -1, -2, -1
1503614254679,-2, -1, 0, -1, 0, 1, 0, -6
1503614254701,0, 0, 0, 0, -1, 0, -3, 0
1503614254718,-1, -2, -1, 0, -1, 0, -1, 0
1503614254739,-1, 0, -1, -1, -4, -1, -1, 0
1503614254761,-1, -3, -6, -1, -1, -1, 0, 3
1503614254777,2, 0, 3, -1, 0, -2, -1, 0
1503614254799,-2, -1, -4, -3, -3, 1, 4, 0
1503614254821,-1, -1, -1, -1, -3, -2, -3, 0
1503614254837,-3, -1, 0, 0, 0, -2, 0, -4
1503614254859,-1, -3, -3, -2, -1, -1, 0, -3
1503614254881,1, 3, 0, 1, 1, 0, -1, 0
1503614254897,0, -1, 1, 0, -1, 0, -1, 0
1503614254919,-3, 0, -2, -1, -1, -1, -2, -2
1503614254941,2, 1, -2, -1, 0, -2, 0, 2
1503614254957,-2, -1, -3, -2, -1, 0, -2, -3
1503614254979,-1, 0, -1, 0, 0, -1, -3, -3
1503614255001,-1, -3, 0, 0, -1, 0, 1, 1
1503614255017,1, 1, 2, 0, 0, -1, -1, -1
1503614255040,-1, -1, -2, -1, -1, -3, -2, -2
1503614255061,-1, -3, -1, -2, 1, -1, -3, -2
1503614255070,-3, -4, -3, 0, -2, 0, 0, -1
1503614255092,1, -1, -2, -1, 1, -1, -1, 1
1503614255108,0, -2, -2, 1, 0, -2, -1, -1
1503614255130,0, -1, -4, -2, -1, -3, -3, -1
1503614255152,-2, -3, 1, 0, -1, 1, -1, -1
1503614255168,-2, 0, 0, -1, -1, 0, -1, -3
1503614255189,-1, 1, 0, 1, 0, -1, -1, 3
1503614255197,-2, -2, -1, 1, 0, 0, -2, 3
1503614255219,0, -2, -2, -3, -2, -1, 2, 1
1503614255241,-2, -2, -3, -1, -1, 0, -1, 0
1503614255262,0, 1, 1, 0, -1, -2, -3, -2
1503614255279,-1, 2, 2, 0, -1, -1, -3, 1
1503614255301,-2, 0, 3, 0, 1, -1, 2, -2
1503614255317,-1, -3, -4, 0, -1, -3, 0, -1
1503614255339,-2, 0, -1, -1, -3, -2, 0, -1
1503614255361,-2, -1, 0, -2, 0, 1, -1, -1
1503614255377,-1, -1, 0, -1, 0, -1, 0, -1
1503614255399,-1, -4, -3, 0, 0, -2, -1, 0
1503614255422,0, -3, 0, -1, -1, -1, 2, 1
1503614255444,0, -1, -1, -1, -3, 0, 1, -3
1503614255459,0, -1, -1, -1, -2, -1, -3, -3
1503614255481,0, -2, -3, -1, -1, -1, 0, -5
1503614255490,0, -1, 0, 2, -1, -1, -3, -7
1503614255514,-1, -3, -2, 0, 1, 1, -1, 3
1503614255535,-2, -2, -4, -3, -1, -1, 2, -1
1503614255557,-1, -2, -3, -1, -3, 0, -3, 1
1503614255572,-2, -1, 2, -2, -3, 1, 1, -2
1503614255595,1, 0, -3, 0, 1, -3, -2, 0
1503614255611,2, 1, 2, 0, -1, -3, -4, -3
1503614255632,-3, 0, -1, 0, -2, -1, -2, -2
1503614255655,-2, -5, 0, -3, -2, 0, 2, 3
1503614255669,-1, -2, -5, -2, 2, 1, 3, 0
1503614255692,0, 3, 0, 2, -1, -2, -4, -1
1503614255716,1, -3, 1, -1, -3, -1, 0, 4
1503614255729,1, 0, 1, -3, 0, -1, 0, 4
1503614255752,1, 7, -3, 1, 0, 1, -1, -6
1503614255774,-3, -2, -1, 0, 0, -1, 1, 4
1503614255790,-4, -4, 2, -2, -1, 0, -5, -13
1503614255812,-4, -15, -12, -6, -3, -1, -3, -9
1503614255834,5, 9, 11, 7, 3, 0, 4, 11
1503614255850,-6, -20, -24, -13, -4, -5, -3, -8
1503614255872,-6, -1, -4, -4, -4, -2, 2, -4
1503614255894,4, -2, -3, 0, -4, -2, -5, 14
1503614255909,-24, -21, -14, -5, -1, 1, -10, -1
1503614255932,5, 14, 20, 5, 2, 0, 7, -2
1503614255954,22, 16, 30, 18, 10, 4, 11, 10
1503614255977,5, -4, 7, 3, -1, 1, 4, -1
1503614255993,-16, -2, -8, -10, -4, -3, -1, -5
1503614256014,6, 9, -3, -2, -3, -1, -2, 0
1503614256029,-53, -28, -15, -5, -1, -3, -5, -15
1503614256052,18, -1, -2, -3, 0, 1, 0, 11
1503614256075,10, 3, -5, 0, -1, 2, -3, 0
1503614256090,-1, -1, 1, 2, 0, -1, 2, 0
1503614256112,7, -8, 4, -1, 0, 0, 0, 1
1503614256134,14, 4, -12, -8, -5, -3, -1, -2
1503614256150,-3, 16, -6, 4, 1, -1, -2, -5
1503614256172,36, 3, 3, -1, -2, -2, -1, 3
1503614256195,0, 12, 6, -1, -1, -1, 0, -5
1503614256209,-22, -3, -3, -5, -4, 0, -3, -3
1503614256225,-4, -5, -10, -3, 0, -2, 0, -1
1503614256248,40, 3, 4, 1, 1, -1, -1, 2
1503614256264,-15, -14, -8, -5, -5, -1, -1, 1
1503614256287,10, -5, -4, -3, 0, -1, -1, 2
1503614256308,-15, 1, -3, -3, -2, -2, -1, 0
1503614256323,2, 4, 4, 1, 0, -2, 1, 2
1503614256345,-34, -12, 0, -3, -1, 2, 0, -2
1503614256368,9, 19, 13, 6, 2, 1, 3, 7
1503614256383,7, 19, 23, 7, 3, 3, -1, -3
1503614256405,5, 4, -4, -4, -1, -2, -1, -1
1503614256428,-11, 7, 7, 4, 3, -1, -3, -2
1503614256443,7, -29, -25, -2, -2, 2, 4, 12
1503614256465,7, -32, -42, -18, -39, -30, 3, 37
1503614256490,43, 61, 58, 75, 73, 23, 29, 0
1503614256502,-31, -44, -36, -53, -125, -115, -37, -21
1503614256526,-12, -7, -13, -3, 26, 25, -1, -5
1503614256548,57, 12, -1, -5, -24, 0, 30, 73
1503614256563,78, 28, 16, 1, -48, -13, 33, 73
1503614256585,-36, -15, -8, -21, -51, -23, -26, -50
1503614256607,-27, -14, -9, -12, -10, 1, -13, -15
1503614256623,-23, -4, 0, 3, 33, 43, 13, -29
1503614256645,-18, -1, 2, 9, 51, 54, 1, -47
1503614256668,-20, -1, 2, 7, 24, 7, -19, -36
1503614256682,-6, 11, 14, 1, -3, -6, -7, -4
1503614256705,-3, 4, 9, 6, -2, -10, 1, -10
1503614256727,-5, -11, -12, -4, 1, -3, -5, 4
1503614256743,-4, 1, -4, -8, 4, -3, 20, -14
1503614256765,-2, 0, 1, 5, 7, 7, -9, -5
1503614256788,-10, -8, -11, -6, -5, -1, -7, -4
1503614256802,-3, -4, -4, -4, -2, -6, -6, 3
1503614256825,-8, -5, -4, -3, 1, -2, -9, -4
1503614256847,5, -2, -1, 2, -1, -17, -2, -2
1503614256869,17, 5, 5, -1, 1, 12, 5, 38
1503614256886,29, 1, 0, 4, 5, 9, 0, 39
1503614256907,-45, -26, -21, -11, -3, -6, -8, -74
1503614256925,9, -3, -9, 3, 5, -3, -1, 18
1503614256945,18, 7, 11, 2, -9, -3, 13, 94
1503614256967,37, 6, -1, 1, -1, 5, 40, 61
1503614256982,-6, -3, 0, 0, -2, -15, -23, -51
1503614257005,-21, 6, 4, 2, 7, 5, -12, -55
1503614257028,-2, 12, 6, 5, 3, 3, -8, -13
1503614257042,-12, -5, -9, -5, 0, -3, -7, -47
1503614257065,-29, -8, 1, -2, -4, -4, -15, -36
1503614257087,-18, -5, 2, 0, -2, 2, -8, -46
1503614257102,9, 2, 12, 1, -1, -1, 1, 26
1503614257127,-4, 10, 13, 3, 1, 5, 0, -24
1503614257147,4, 8, 17, 6, 3, 6, 3, 11
1503614257162,-18, -9, -3, 0, -1, -7, -10, -37
1503614257185,-6, -6, -10, -5, -1, -1, -5, -23
1503614257207,9, 45, 53, 16, 5, 0, -7, 8
1503614257214,-2, 8, 6, -9, -6, -4, -5, -20
1503614257237,9, 9, 6, 9, 3, 3, 4, 5
1503614257252,-22, -27, -15, -8, -5, -2, -8, -41
1503614257275,-16, 5, 4, 3, 2, 3, -4, -36
1503614257297,-5, 10, 17, 4, 1, -1, -6, -53
1503614257305,-10, 6, 3, -1, -4, -2, 0, 0
1503614257329,27, 31, 16, 5, 2, 0, 2, 10
1503614257350,-9, -9, -5, -5, -3, -1, 3, -7
1503614257365,1, -5, -11, -6, -4, 0, 9, 24
1503614257388,0, -5, -2, 0, 0, -3, -11, -11
1503614257410,-45, -16, -16, -4, 0, 3, -8, -28
1503614257425,2, -19, -13, -1, -1, -3, 1, -1
1503614257448,3, 12, 5, 2, 0, -1, -8, -18
1503614257471,4, 2, 12, 0, -3, -2, -3, -14
1503614257485,-14, 1, -5, -3, 0, -1, -4, -8
1503614257507,-7, -7, -5, -3, 0, 3, 11, 7
1503614257529,-47, -12, 3, 1, 1, 0, 4, 48
1503614257545,-3, -13, -8, 3, 9, -1, -8, -55
1503614257567,44, -13, -14, -4, -5, -4, -3, 2
1503614257589,-12, 9, 0, -2, -2, -2, -14, -74
1503614257605,-2, -5, 1, -2, -3, -3, -2, 16
1503614257630,-11, 12, 3, -1, 1, 4, 4, -9
1503614257649,47, -12, -5, -5, -4, -2, 6, 24
1503614257665,21, 24, 18, 4, -1, -1, -1, -8
1503614257687,-11, -3, 1, 3, 1, -1, 0, 23
1503614257709,-24, 2, -1, -1, 1, 0, 4, 18
1503614257725,-20, -1, 0, 0, -5, 0, 3, 27
1503614257747,16, -7, -2, -1, -2, 0, 1, 0
1503614257770,-26, 4, 7, 8, 17, 3, -3, -19
1503614257785,-12, -6, -11, -21, -20, -6, -6, -8
1503614257808,16, 7, 5, 5, 7, -3, -3, -4
1503614257831,44, 20, 12, 1, 0, 2, 4, 9
1503614257845,-9, -8, -9, -3, -2, -1, 2, -5
1503614257868,2, 7, 1, 4, 1, 5, 3, -19
1503614257889,-22, -15, -12, -2, 1, -3, -1, -29
1503614257905,19, -1, -5, -2, -4, -1, 2, 50
1503614257927,-14, -6, -4, 3, -1, -2, -2, -1
1503614257949,-2, -3, 0, -4, -7, -5, -4, 45
1503614257965,-18, -17, -12, -6, -4, -2, -6, -12
1503614257988,5, 11, 9, 4, 4, -1, -2, 3
1503614258009,26, 12, 10, 2, 2, 1, -1, -5
1503614258025,12, 10, 8, -2, -1, 0, 3, -4
1503614258047,-12, -3, -9, -4, -4, -2, 0, -11
1503614258069,27, -2, -6, 2, 2, 3, 4, 25
1503614258085,-9, -7, -1, -1, 12, 2, -8, -23
1503614258107,-33, -2, 11, 1, -13, -11, 2, 7
1503614258129,66, -2, -5, 1, -2, 2, 12, 44
1503614258145,45, 22, 13, 5, 5, 7, -5, -23
1503614258174,21, -2, -4, 0, -1, -1, -7, -16
1503614258190,-31, -5, -5, 0, 14, 9, -3, -16
1503614258205,7, -1, -11, -10, -15, -9, -1, 2
1503614258227,-38, -16, -11, -6, -9, -6, -11, -36
1503614258250,13, 6, 6, 0, 0, 3, 7, 39
1503614258273,-1, 0, 2, -3, -13, -6, 3, 15
1503614258287,-31, 4, 2, -2, 4, -7, -7, -20
1503614258309,8, -1, -5, -2, -6, -1, 1, -21
1503614258334,4, -2, -6, -2, -3, -4, 3, -17
1503614258347,-18, -15, 0, -2, -11, -8, -2, 11
1503614258370,-13, 6, 8, 1, 10, 4, -7, -24
1503614258392,27, -4, 0, 6, 49, 24, 8, 5
1503614258408,117, 27, 7, 9, -9, 12, 16, 28
1503614258429,-15, 9, 5, -2, -9, -5, 1, 26
1503614258452,-82, -20, -6, 5, 45, 29, -3, -26
1503614258469,-26, 1, 16, -3, -30, -26, -10, 21
1503614258489,14, 18, 5, 3, -8, -11, -8, -34
1503614258512,8, -14, -13, -5, 12, 6, 6, 18
1503614258527,-17, -1, -5, -3, -12, -2, -3, -6
1503614258549,-25, -10, -9, -4, -21, -16, -6, -8
1503614258573,-23, -1, -2, -6, -5, 0, -4, -26
1503614258587,22, -5, -8, -3, -7, -1, 1, 11
1503614258605,-25, -2, 0, -4, -6, -8, -8, -50
1503614258617,26, 8, 13, 10, 11, 9, -2, -14
1503614258640,49, 7, -2, -1, 1, 0, 3, 68
1503614258661,3, 10, 6, 3, 5, -4, -5, -9
1503614258678,-34, 1, -3, -4, 5, 6, -8, -70
1503614258699,-83, -18, -12, -3, -6, -9, 0, -15
1503614258721,9, 16, 9, 3, 5, 2, -2, -11
1503614258737,-8, -2, -3, -1, 9, 11, 5, 29
1503614258759,-29, -23, -13, -8, -6, -4, -5, -28
1503614258781,-46, -19, -10, -8, -19, -19, 6, 58
1503614258797,44, 10, 0, 2, -4, 7, -2, -9
1503614258819,-2, 4, 8, 6, 10, 9, 0, 4
1503614258842,-6, 7, 5, -2, -11, -11, -2, 8
1503614258857,33, 0, -4, -3, -2, 1, 0, -13
1503614258880,-10, -9, -1, 0, 2, 0, -9, -53
1503614258901,13, 1, -3, 0, 2, 3, 1, 17
1503614258917,-10, 2, 4, 6, 30, 27, 7, -19
1503614258939,-17, -3, -2, 0, -11, -7, -2, -5
1503614258961,48, 2, -2, -2, 6, 4, -1, 33
1503614258977,13, 8, 7, 8, 9, 16, 24, 72
1503614258999,-59, -15, -8, -3, 7, 1, -9, -60
1503614259021,83, 22, -2, -6, -22, -4, 10, 96
1503614259040,8, 10, -1, -5, -11, -13, -15, -59
1503614259059,-30, -10, -1, 0, -10, -12, -1, -19
1503614259082,11, -4, 1, -2, -2, -7, -14, -37
1503614259097,-9, -16, -5, 2, -9, 12, 3, -2
1503614259119,-42, -6, -3, -4, 3, -8, -12, -56
1503614259142,69, 15, 4, -5, 0, 2, 9, 62
1503614259157,-44, -4, 9, 10, 1, -2, 2, -19
1503614259180,-10, 2, 7, 11, 43, 21, 2, -15
1503614259202,-15, -9, -3, 1, -7, -12, -19, -47
1503614259225,-72, -15, -9, -14, -27, -18, -10, -30
1503614259241,-5, -13, -4, -3, -3, -7, -5, 2
1503614259262,66, 22, 3, 0, 3, 4, 7, 30
1503614259284,16, -2, -4, -3, -2, -5, 1, 13
1503614259299,-89, -5, -3, -3, -12, 0, -9, 17
1503614259322,-2, -9, -14, -5, 0, -5, 1, 56
1503614259344,-44, -18, -17, -11, -16, -17, -4, -30
1503614259359,42, 9, 1, -4, -1, -4, -1, -7
1503614259382,28, 4, 3, 7, 17, 10, 6, -23
1503614259404,31, 2, 2, 1, -2, 1, 3, 23
1503614259419,2, 19, 17, 3, -11, -5, 2, 11
1503614259450,39, 20, 10, 1, -8, -9, -3, 36
1503614259472,-8, -12, -8, -2, -5, -5, -1, -20
1503614259494,-14, -8, 2, 14, 28, 5, -3, -22
1503614259510,-42, 9, 4, -7, -20, -15, -4, 57
1503614259524,21, 11, 1, -5, -4, -7, -2, -5
1503614259539,-24, -8, -5, -2, 14, 10, -3, -6
1503614259562,-13, -6, 3, 1, -8, -12, -8, 1
1503614259584,-61, -2, 7, 15, 13, 0, 0, 5
1503614259599,-18, -12, -9, -12, -12, 0, -3, 3
1503614259622,11, -6, -8, -3, -6, -1, 1, 3
1503614259644,-15, 13, 12, 2, -5, -2, -3, -1
1503614259659,16, 3, -2, 1, 1, -1, -1, 13
1503614259682,-24, -13, -11, -4, -4, -2, 1, -6
1503614259704,-2, 0, 2, -3, 0, -1, -4, -28
1503614259719,29, 13, 5, 1, 3, -1, -2, -46
1503614259744,-5, -3, -6, -8, -5, -3, 0, -25
1503614259763,7, 0, 0, -1, 4, 0, 0, 52
1503614259780,-7, -2, 2, 3, 4, 1, -1, 23
1503614259802,-6, -13, -8, -9, -4, 0, -2, -127
1503614259824,3, 0, 4, 7, 5, 0, -3, 31
1503614259839,-4, -5, -8, 7, 1, -3, -2, 83
1503614259862,15, 13, 4, 3, 3, 1, 2, -76
1503614259884,4, 0, 2, 0, 3, 15, 1, 40
1503614259899,2, -4, 3, -1, -5, -6, 6, 51
1503614259922,-3, 1, -3, -3, -5, -5, -7, -12
1503614259947,-7, -6, -3, -5, -8, -4, -6, 6
1503614259959,-10, -20, -11, -4, -4, 1, 2, -19
1503614259982,-3, -8, -12, -1, -3, -3, -2, -5
1503614260004,15, -1, 2, -1, -2, -3, -1, 2
1503614260019,-6, 14, 12, -2, 2, 0, 2, 5
1503614260042,1, 7, 3, 2, 2, 2, 6, 20
1503614260063,3, 14, 5, 5, 0, -2, -1, 2
1503614260080,-5, -10, -3, -10, -7, -2, -2, 0
1503614260102,-14, -3, -1, 3, 2, -1, -3, -17
1503614260123,2, 29, 30, 12, 5, 2, 1, -3
1503614260132,-5, -3, 2, 7, 2, -2, 0, -9
1503614260155,8, 5, -1, -7, -7, -2, 3, 4
1503614260177,17, 32, 25, 6, 3, 3, -2, -8
1503614260184,-13, -3, -12, -5, -3, 0, -2, -4
1503614260206,4, 1, 10, 2, 1, 1, 1, 9
1503614260222,-3, -3, -3, -1, -4, -2, 0, 1
1503614260243,-1, 1, 1, 3, 1, -2, -5, -6
1503614260266,-10, -1, -2, -2, 3, -1, -2, -4
1503614260282,4, 10, 1, -3, -2, -1, -2, 3
1503614260304,3, -3, -1, -4, 0, 1, -3, -8
1503614260326,13, 7, -1, 3, 0, 2, 4, 24
1503614260342,-8, 0, 8, 6, 2, 0, -2, -10
1503614260363,-8, -3, -4, 0, -4, -1, 1, -14
1503614260386,0, 5, 7, -1, -6, 1, -2, 0
1503614260402,8, 17, 12, -1, 1, -1, 1, -1
1503614260424,-9, -15, -18, -4, 1, -3, -2, -11
1503614260446,3, -4, -1, 5, 2, 1, 0, 5
1503614260462,-6, -12, -15, 2, 2, 0, 2, 3
1503614260484,11, 5, 5, 3, 3, -3, -3, -2
1503614260506,-5, 2, 3, -2, -3, 0, -2, 2
1503614260522,12, -2, -1, -3, 0, 1, 3, 6
1503614260543,9, 11, 3, 2, 1, -2, -1, -11
1503614260566,-7, -11, -14, -7, -5, -1, 0, 1
1503614260583,-6, -4, -5, -2, -4, -2, -4, -8
1503614260603,2, -5, -10, -9, -8, -3, -2, -4
1503614260626,-17, 12, 2, 1, -1, -1, 1, -1
1503614260642,9, 8, 17, 6, 2, 0, -1, -3
1503614260663,8, -10, -5, 3, 5, 1, 5, 28
1503614260686,24, 4, 4, 3, 3, 1, 2, 27
1503614260701,7, -3, -1, 0, 3, 0, -5, -12
1503614260739,-6, -5, 1, -1, 1, -2, -3, -12
1503614260754,9, 4, -1, 0, -3, -2, -1, -1
1503614260777,12, 9, 4, 1, -2, -1, 2, 5
1503614260792,-36, -22, -15, -6, -3, -3, -5, -50
1503614260814,-8, -14, -6, -3, -2, -2, -4, -18
1503614260837,2, 1, 2, 2, -5, 0, -3, 16
1503614260852,15, 13, 5, -2, 1, 1, 4, 19
1503614260874,3, 43, 23, 8, 4, 3, 2, 13
1503614260897,7, 0, -5, 1, 3, 2, 4, 11
1503614260912,2, -10, -7, -3, -4, -3, -1, 0
1503614260934,6, -7, -5, -3, 0, 0, 2, 0
1503614260957,5, -2, -3, -4, -3, 2, 0, 9
1503614260972,-4, -14, -5, -2, 0, -1, -3, -4
1503614260994,-3, -5, 1, -1, -1, -3, -10, -9
1503614261017,-7, -2, -3, -1, -2, -3, -3, -4
1503614261032,4, 1, 4, 4, 2, 1, 5, 16
1503614261055,16, 0, 2, -1, 0, 1, 0, 4
1503614261077,-8, -12, -4, -3, -2, -2, -2, -10
1503614261099,-5, 4, 2, 2, 1, -1, 2, 11
1503614261114,9, -6, 0, -2, -10, -6, 0, 10
1503614261137,-11, 6, -4, -3, -3, -3, -3, -6
1503614261160,-7, 0, -2, -6, -4, -2, 0, -10
1503614261174,6, 9, 4, 3, -1, -2, 0, 2
1503614261197,-21, 7, 10, -2, -2, -2, -5, -25
1503614261221,-17, 1, -3, -2, 3, 2, 1, -5
1503614261234,28, 2, -4, 1, 2, -2, 2, 15
1503614261259,9, 12, 6, 0, 8, 2, 2, 6
1503614261265,10, 4, -2, -5, -3, -4, -9, -5
1503614261288,-15, -4, 0, -2, -3, -1, 1, 11
1503614261310,18, -5, -1, -2, -12, -6, -1, -22
1503614261325,9, 10, 2, -1, -6, -5, -2, 5
1503614261339,46, 12, 2, 1, -2, 3, 15, 77
1503614261355,-39, -12, -3, 1, -3, -2, -2, 19
1503614261377,62, 9, 5, 1, -1, -2, 6, -3
1503614261399,7, 3, 2, -2, -1, -3, -8, -29
1503614261414,-34, -9, -11, -6, -5, -7, 2, 19
1503614261437,-16, -1, 1, 0, -5, -1, -10, -73
1503614261459,-21, -14, -9, -3, -8, -5, -8, -12
1503614261474,-5, 13, 3, -1, 0, -3, -3, -8
1503614261497,42, 4, -3, -4, -5, -2, 9, 33
1503614261519,-3, 5, 1, -2, -4, 1, -6, -26
1503614261534,-10, 9, 10, 6, 4, 2, -1, 12
1503614261557,-3, 18, 9, 4, 13, 6, -2, -4
1503614261579,-24, -9, 3, 0, 15, 6, -3, -9
1503614261594,12, -7, -8, -7, -7, -1, 10, 52
1503614261618,-24, -7, 0, -2, -2, -2, -8, -7
1503614261639,-11, 2, 2, 2, 10, 7, -1, 3
1503614261654,34, 1, -5, -2, -8, -6, -3, 23
1503614261677,-21, -10, -3, 2, -2, -3, -3, -8
1503614261700,-11, -5, -6, -1, -6, -5, 1, -21
1503614261714,17, 1, -3, -6, -8, -6, -1, 14
1503614261737,8, -6, -6, -3, -5, -2, -2, -36
1503614261761,-8, 3, 5, 2, -3, -4, -7, -35
1503614261774,-4, 8, 3, 0, 13, 3, 0, 1
1503614261797,13, 14, 10, 4, 0, 2, -1, 17
1503614261819,-10, 1, 4, 4, 1, 2, 1, -11
1503614261834,-28, -14, -9, -5, 5, 6, 2, 11
1503614261859,18, -5, -7, -1, 9, 3, -2, -9
1503614261879,14, -8, -7, -3, -8, -4, -1, 16
1503614261894,-13, -14, -11, -5, -8, -2, 1, -7
1503614261924,6, 5, 7, 2, -2, -3, -4, -4
1503614261939,-12, -8, 1, 2, -4, -4, -4, 4
1503614261954,4, 14, 0, -2, 8, 3, 0, -11
1503614261977,1, -2, 1, 0, -8, -5, -2, 0
1503614262000,-22, -3, -2, -1, -2, -3, -4, -14
1503614262022,-5, -8, -11, -3, -4, -4, -6, -67
1503614262037,31, 7, 9, 0, -5, 0, 1, 16
1503614262060,-14, -6, -3, -2, -2, -2, 3, 49
1503614262082,-5, 0, 3, 1, 0, 0, 0, -24
1503614262097,12, 10, 10, 0, -1, 1, 0, -9
1503614262119,2, 4, 2, -1, 0, 0, 1, 43
1503614262142,-8, -5, -2, -2, -2, 0, -2, 11
1503614262157,22, -2, -5, 1, -1, 1, 4, -12
1503614262179,12, 5, 4, 5, 2, -1, 1, -27
1503614262202,-21, -2, 3, -1, 0, -2, -1, 83
1503614262210,19, 42, 16, 3, 1, 1, 0, -27
1503614262232,13, 0, 1, 0, -2, 0, -1, -15
1503614262247,-5, -5, -4, 0, 0, -1, 0, -30
1503614262271,-47, -13, -6, -3, 0, -2, -4, 17
1503614262292,30, 2, -3, -1, -1, -2, 1, 29
1503614262307,-18, 2, -12, 0, 0, -1, -2, -11
1503614262330,-32, -12, -3, 0, 0, 3, 0, 3
1503614262352,9, 1, 0, 1, -2, 1, 2, 22
1503614262367,5, -18, -14, -3, 0, 1, 1, 27
1503614262390,2, 2, 4, 0, -1, -1, -1, -2
1503614262411,-4, 11, 13, 3, -2, -2, -2, 10
1503614262429,-11, 2, -2, -3, 1, -2, -4, -7
1503614262450,31, 1, -1, -1, 0, -3, 0, 5
1503614262472,0, -5, -3, -4, -1, 0, 2, 9
1503614262487,-10, -4, 0, -4, -1, -3, 0, 5
1503614262510,-13, -6, -7, 2, -1, 4, 2, -5
1503614262517,-18, -2, -2, -1, -2, -4, 1, -2
1503614262539,15, 7, 1, 0, -1, 0, -2, -7
1503614262564,-32, -4, 1, 0, 2, 0, -6, -19
1503614262577,0, 13, 12, 4, 4, 2, 3, 7
1503614262599,0, -5, -6, -5, -1, -2, -1, -2
1503614262622,-7, -7, -3, 1, -1, -2, -3, -7
1503614262637,4, -2, -7, -1, -2, -2, 0, 6
1503614262652,-34, -19, -6, -5, -2, -2, -6, -20
1503614262668,-3, 0, 3, 1, 1, -3, -5, -8
1503614262690,8, -3, -12, 1, 1, 0, -1, 6
1503614262712,1, -1, -4, -1, -2, -1, 3, 14
1503614262727,5, 5, 4, -2, -2, 0, -1, -11
1503614262750,5, 4, 3, 0, -2, 1, 0, -7
1503614262772,-3, -5, -5, -3, -3, -2, -1, -4
1503614262788,-5, -1, -2, -3, 1, -2, -1, 4
1503614262809,-3, -6, -2, -1, -1, -1, -1, -13
1503614262817,-8, -2, -2, -2, -2, -2, 1, 4
1503614262840,6, 10, 2, -1, -1, -2, -3, -4
1503614262861,0, -5, -5, -2, -1, 0, -3, 10
1503614262871,-24, -9, -2, 1, 0, -4, 0, -4
1503614262892,6, 10, 8, 2, 1, 1, 0, 0
1503614262907,-2, -11, -6, -3, -3, -1, 1, 9
1503614262930,2, -10, -6, -3, -1, 0, -2, 8
1503614262952,-2, 1, 2, 0, -1, -1, -3, -9
1503614262977,8, -4, -2, 0, -2, -1, 3, 5
1503614262990,9, 2, -1, -2, 0, -1, 2, 29
1503614263012,-10, -1, -2, -2, -4, -1, -4, -14
1503614263038,-6, -9, -7, -2, 0, -2, 0, -10
1503614263050,4, -3, -3, 1, 0, -2, -1, -9
1503614263072,-6, 0, -3, -1, -1, -1, -3, -13
1503614263094,5, 5, 8, 1, 0, 1, 0, 15
1503614263110,-3, 2, -2, 1, -1, -2, -2, -1
1503614263132,6, 5, 4, -1, -1, -1, 3, 8
1503614263154,0, 1, -3, -2, 0, -1, -2, -12
1503614263170,-11, -3, -1, 0, -1, -2, -5, -21
1503614263192,-7, -6, -2, -1, -1, -1, -2, -13
1503614263214,-28, -3, 3, -2, -1, -1, -1, 0
1503614263230,3, 0, -4, -3, -2, -2, -1, -2
1503614263252,10, -2, -1, 0, -2, 0, -2, 1
1503614263281,5, 12, 3, 2, 2, -2, 0, 3
1503614263290,-3, -6, -4, -1, 0, 0, -2, -3
1503614263312,3, -4, -5, -3, -2, -1, 1, 3
1503614263335,20, 12, 3, 1, 2, 3, 5, 8
1503614263342,-13, -10, -8, -3, 0, -3, -3, -9
1503614263363,-7, -2, -2, 1, -1, -2, 0, -4
1503614263379,11, 1, -2, -3, -1, -1, -2, -2
1503614263403,-12, -6, -6, -5, -3, 0, -2, -7
1503614263423,-6, -7, -4, -1, 0, -1, -3, -3
1503614263439,10, 21, 21, 6, 1, 0, -2, 4
1503614263462,0, -9, -11, -3, -2, -1, 1, -7
1503614263484,-15, -8, -9, -4, -3, -2, -2, -9
1503614263499,-6, -3, -2, 2, -1, 0, -2, 2
1503614263522,6, 2, 4, -2, -3, -3, -3, -2
1503614263543,5, 2, 1, -1, 1, -2, 2, 12
1503614263552,-3, -2, -4, -7, -4, -4, -2, -1
1503614263575,10, 2, -3, -1, -2, 1, 1, 1
1503614263590,-3, -2, 2, 0, -2, -1, -2, -4
1503614263612,5, 24, 18, 2, 1, 2, 2, 18
1503614263634,9, -3, -6, 4, 0, 0, -3, -9
1503614263657,-3, -4, -2, -2, 0, 0, -1, 1
1503614263673,-13, -3, 3, 0, -1, 1, -1, -4
1503614263694,5, -5, -7, -4, -7, -7, -5, -11
1503614263702,-9, -4, -1, -1, 0, 3, 4, 6
1503614263723,-2, -7, -11, -1, 0, -1, -3, -13
1503614263739,-15, 3, 4, 0, -2, -3, -1, 6
1503614263762,12, -12, -9, -1, -1, -2, -1, -10
1503614263784,0, 11, 12, 7, 4, 1, -1, -6
1503614263799,35, 0, -4, -2, -1, -1, -2, -2
1503614263822,5, -5, -7, 0, -1, -2, -7, -5
1503614263845,-21, 0, 1, 1, -1, -4, 0, -3
1503614263866,-18, -10, -6, -6, -4, -4, 1, 3
1503614263882,-9, 1, 2, 2, 6, 5, 4, 6
1503614263907,1, 0, -2, -2, -6, -2, 1, 20
1503614263926,-1, 14, 4, 1, 1, 0, -3, -9
1503614263942,21, 7, 4, 2, -2, 0, -1, -32
1503614263964,-6, 7, 2, 0, -2, 1, -4, -22
1503614263986,-12, -11, -8, -6, -2, 0, 1, 12
1503614264002,-5, -10, -7, -6, -1, 0, 2, 20
1503614264024,11, -3, -1, -1, -5, -6, -1, 6
1503614264046,10, 6, 2, -1, 3, 1, 4, -1
1503614264062,43, 9, 4, 0, -2, -2, -4, 3
1503614264084,-28, -10, -7, 0, -2, -2, -3, -8
1503614264109,58, 4, 1, 0, 0, 0, 0, 21
1503614264122,-28, -1, 1, -1, -4, -3, -2, -17
1503614264145,27, -7, -5, -6, -2, -3, 4, -3
1503614264166,-5, -2, 3, 0, -13, -3, 3, 30
1503614264182,-34, -1, 2, -3, 5, 2, -7, -24
1503614264204,-20, -4, 0, -2, -2, -2, -5, -22
1503614264226,-6, 15, 9, 4, -3, 0, -7, -30
1503614264242,88, 28, 21, 9, 6, 6, 3, -39
1503614264264,-21, -12, -10, -4, -1, -3, 0, 19
1503614264286,-25, 0, 1, 1, -1, 1, 1, -13
1503614264294,-8, -9, -5, -1, -3, -1, -5, 10
1503614264318,27, -13, -17, -6, 1, 2, 5, 13
1503614264332,-41, 2, 1, -1, -5, -4, -12, -6
1503614264354,22, 3, -3, 2, -1, 0, 1, -21
1503614264362,3, 3, 3, 0, -6, -3, -2, 20
1503614264385,-6, 1, -7, -3, -7, 3, 5, -25
1503614264406,-79, -8, -5, -1, 0, -1, -7, -72
1503614264421,41, 4, -3, 0, -2, -1, 0, 29
1503614264444,-12, -1, 4, 3, 4, -2, 1, 9
1503614264466,-41, 3, 6, 1, 8, 2, 1, 9
1503614264482,18, -8, -5, -1, 0, 2, -3, 23
1503614264504,-12, -17, -7, -2, 6, 1, -5, 3
1503614264526,-14, 1, -1, -1, -3, -6, -12, -64
1503614264544,31, -1, -3, -2, -13, -4, -1, 19
1503614264564,4, 5, 0, -4, -5, -2, 2, 3
1503614264586,35, 1, -2, 0, -4, 0, 10, 43
1503614264602,44, 10, -2, 1, 3, 2, 6, 28
1503614264624,0, -2, -2, -2, 7, 5, -9, -17
1503614264646,-39, -11, -5, -4, -2, -7, -4, -46
1503614264661,2, 3, 4, 2, 8, 3, 9, 41
1503614264684,-53, -19, -13, -4, -16, -7, -8, -30
1503614264706,-8, 10, 5, 2, -6, -3, -5, -37
1503614264721,1, -3, -1, 0, -4, -3, 5, -37
1503614264745,-39, 3, 4, 1, 1, 1, -6, -1
1503614264766,24, 13, 9, 4, 10, 4, 2, 12
1503614264788,35, 7, 4, 2, 8, 6, 10, 99
1503614264804,-24, -7, -1, -2, -3, -3, -4, -22
1503614264826,-6, 21, 11, 2, -1, -3, -2, -14
1503614264849,-8, -13, -12, -6, 6, 4, 6, 34
1503614264864,-8, 1, 0, -1, -4, -3, -11, -61
1503614264886,-7, -3, -2, 2, -1, 0, 3, 6
1503614264908,48, 0, 0, 2, 4, 4, 5, 30
1503614264924,-32, -8, -5, -1, 5, -2, -3, 18
1503614264947,69, -7, -7, -4, -1, -4, 1, -14
1503614264969,-14, -11, -6, -3, -6, 4, -4, -28
1503614264985,-23, -14, -10, -9, -11, -7, -6, 13
1503614265006,17, 21, 9, -1, -7, -1, 7, 57
1503614265029,12, -8, -8, -4, 0, 1, 3, 13
1503614265044,-50, 2, 0, 2, 0, 0, -8, -65
1503614265066,28, 5, 6, 2, 1, 2, 9, 58
1503614265088,6, 12, 4, 7, 3, -2, -7, -39
1503614265104,26, 23, 11, -3, -5, -3, 5, 21
1503614265126,-23, -11, -6, 2, 21, 8, 0, 44
1503614265149,13, -8, -4, -2, -9, -4, -6, -71
1503614265164,-17, 11, 3, -1, -2, -3, -1, -21
1503614265186,84, -2, -4, -7, -10, -3, 2, 46
1503614265208,-4, -7, -4, 0, -6, -4, -4, -45
1503614265224,5, 20, 10, 5, 2, 1, -3, 11
1503614265246,-26, -16, -3, 1, -1, -1, 5, -1
1503614265268,-13, -7, 0, 1, -11, -8, -6, 40
1503614265284,-13, 26, 11, 2, 4, -2, -6, 31
1503614265306,29, -8, -7, -2, 7, 0, 3, 2
1503614265328,-35, -13, -7, -3, -2, 0, 1, -37
1503614265344,1, -8, -4, -6, -2, 1, -4, -36
1503614265366,25, 14, 4, 0, 2, 4, 3, 29
1503614265388,22, 18, 3, 3, -3, -3, 3, 29
1503614265396,34, 9, 5, -2, 18, 7, 3, -12
1503614265419,-19, -12, -4, -4, -13, -6, -3, -7
1503614265434,-16, -11, -10, -4, -5, -4, -4, 4
1503614265457,44, 19, 10, 5, 0, 3, 8, -10
1503614265479,-13, 8, 5, 3, 2, 1, -4, 7
1503614265494,-7, -14, -5, -5, -8, -5, -2, 0
1503614265518,-31, -7, -4, -2, 0, -1, 1, 14
1503614265539,18, 14, 10, 2, -3, 1, -1, 0
1503614265554,13, -5, -10, -4, 1, -1, 1, 59
1503614265576,2, -1, -5, -1, -1, -2, -3, 15
1503614265599,18, 39, 9, 5, 1, 1, -1, -75
1503614265614,20, -14, -7, -2, -1, 0, 3, 7
1503614265636,-16, -27, -16, -5, -4, -3, -3, 107
1503614265659,-12, 31, 12, -1, 0, 1, -1, -88
1503614265666,-14, 10, 5, 1, -1, -1, 0, -84
1503614265689,-6, 3, 2, 0, -1, -1, -1, 14
1503614265704,4, 2, 4, 0, -2, -1, 2, 51
1503614265726,10, 5, 0, 1, -2, 1, 2, 3
1503614265748,-2, -3, -4, -2, 0, -2, 2, 27
1503614265771,-1, 3, 1, -4, -3, 4, -4, 8
1503614265786,0, 5, -3, 1, -1, -2, -1, 8
1503614265809,4, 6, 6, 1, 0, -1, 2, 9
1503614265832,-5, -5, -2, 1, -3, -1, -5, -44
1503614265855,-11, -14, -5, -3, 0, 0, -2, -11
1503614265876,2, 7, 1, 2, 1, 0, 3, 14
1503614265892,-1, -5, -3, -2, -3, -1, 0, 12
1503614265915,-4, -11, -5, -1, 0, -4, -1, 7
1503614265936,5, 11, 6, 2, 1, 2, -1, 4
1503614265954,7, 6, -2, -2, -1, 0, 0, 2
1503614265974,11, -1, 1, -2, 0, -1, -1, 6
1503614265993,-10, -5, -8, -2, -1, -1, -2, -1
1503614266012,-10, -3, -2, -2, 1, -2, 0, -2
1503614266034,6, -7, -7, 1, 0, -1, -2, 14
1503614266049,-7, 4, 3, 2, 0, 0, -5, -5
1503614266072,9, 8, 7, 0, 1, 1, 0, -30
1503614266094,-4, 0, -2, 0, -4, -1, -2, 3
1503614266110,3, 2, -6, -4, 0, -2, 1, 9
1503614266132,5, -6, -1, -4, -2, -1, 0, 61
1503614266157,0, 4, 4, -1, 0, 1, 1, -50
1503614266169,-4, 3, 1, 0, 0, -1, -1, -10
1503614266192,1, 2, 9, 1, -2, -1, -4, -3
1503614266215,-2, -4, -4, -3, -1, -1, -1, -1
1503614266223,-4, -1, 2, 2, -2, -3, -2, 5
1503614266236,-21, -4, -2, -1, 0, 0, 2, 23
1503614266259,1, -2, -1, 0, -2, -2, -1, -4
1503614266281,-3, -16, -8, -2, 0, 1, -4, -19
1503614266297,2, 6, 1, -1, -2, -2, 1, -1
1503614266319,1, -4, -5, -3, -1, 2, 0, -7
1503614266341,6, 3, 2, 0, 1, -2, -6, -24
1503614266358,7, -8, -1, -1, -1, -1, 1, 20
1503614266379,-3, -11, -23, -3, -1, 0, 2, 16
1503614266401,10, 4, 2, -2, -2, -2, 0, -12
1503614266416,14, 2, 4, -2, -3, -1, -1, -5
1503614266439,-2, 5, 4, 0, 0, 0, -2, 3
1503614266461,-41, -7, -1, -2, -3, -2, -6, -19
1503614266476,3, 1, 4, 0, 0, -1, 1, -1
1503614266499,-25, -8, -12, -5, -1, 0, 2, 6
1503614266522,-5, 2, 4, 0, -1, -2, 0, -2
1503614266530,4, 2, -2, 1, 0, 0, 0, -6
1503614266552,22, 8, 3, 2, 2, 4, 4, 35
1503614266574,-20, -7, -2, -3, -1, 0, 1, -1
1503614266591,11, 1, 2, -1, 0, -2, 3, 2
1503614266597,9, 4, 6, -1, -1, 0, 1, -7
1503614266619,17, -6, -9, -3, -2, 0, 0, 3
1503614266641,2, -8, -5, -5, -3, -3, 2, 23
1503614266664,-3, 7, 8, 3, 0, -1, -2, 7
1503614266679,-8, -4, -5, -2, 0, 1, 0, 18
1503614266701,-18, -4, -3, -3, 0, -2, -5, -21
1503614266726,34, 15, 11, 4, 1, 3, 8, 33
1503614266739,11, 25, 28, 6, 4, 3, -1, -27
1503614266762,-2, -9, -7, -2, -2, -2, -4, 1
1503614266784,-2, -8, -12, 0, -1, -2, -5, -4
1503614266799,-10, -7, -7, -2, -1, -3, -3, -14
1503614266821,-16, 0, 4, 2, 2, 0, -2, 2
1503614266830,-4, -2, -3, -2, 1, 0, -2, -9
1503614266852,2, -3, -2, -1, -1, 0, -5, -31
1503614266874,-5, -3, -1, -2, -1, 0, -2, -4
1503614266890,-30, -12, -10, -2, -1, -2, -2, -6
1503614266912,4, -3, 1, -3, -2, -2, -1, 8
1503614266934,8, 11, 6, 1, -1, -1, 3, 7
1503614266949,3, -1, -1, -3, 0, -1, 0, 4
1503614266972,-1, -7, -7, -3, -2, -2, -2, -6
1503614266995,4, -3, -2, 1, 0, -1, -2, 8
1503614267009,1, 14, 21, 2, 1, 1, 2, 3
1503614267032,-14, -7, -9, -5, -2, -2, -1, -7
1503614267054,-6, -2, -3, -2, -1, -2, -3, 4
1503614267070,-22, -1, 0, 3, -2, 0, -1, -3
1503614267092,15, 7, -2, -1, 1, 1, -1, -4
1503614267114,11, 0, 3, 1, -1, -1, -1, 3
1503614267137,-8, -6, -8, -4, -2, -1, -2, 0
1503614267159,2, -4, -3, -2, 0, -1, 1, 4
1503614267174,5, 0, -6, -1, -1, 0, 0, -4
1503614267190,3, -9, -4, -1, -1, 0, -1, -2
1503614267212,3, -2, -3, -1, -1, -1, 4, 8
1503614267234,1, -5, -6, -1, -1, 0, 1, -2
1503614267258,10, 11, 2, 1, 0, -4, -4, -16
1503614267273,-16, -11, -6, -1, -2, -1, 0, 8
1503614267294,23, 11, 1, 1, 2, 0, 3, 23
1503614267309,-13, -9, -2, -2, -2, 0, -1, 5
1503614267333,-1, 5, 5, -1, -1, -2, -1, -9
1503614267363,-3, -1, 1, -4, -2, -2, -4, -8
1503614267369,2, 9, 7, 1, -1, 1, 3, 27
1503614267392,6, 0, -3, -1, 1, 1, -4, -21
1503614267414,-1, -7, -7, -1, 0, -1, -1, -4
1503614267431,-20, -8, -3, 0, -1, -3, -4, -23
1503614267452,-2, -5, -1, -2, -5, -4, -2, -12
1503614267474,16, -1, 1, 0, 0, 2, 1, 2
1503614267490,2, 0, -3, -1, 0, -2, -1, 2
1503614267512,5, 10, 3, 1, 0, 1, 0, -2
1503614267535,-11, -6, -5, -3, -2, 1, 1, 0
1503614267549,6, 13, 4, 1, 0, -2, -2, -19
1503614267566,1, 1, -1, -2, -1, 0, 0, -3
1503614267587,-2, -7, -4, -1, -1, -1, -1, 3
1503614267602,-1, 2, -2, 0, 0, 0, -1, -3
1503614267624,8, 3, -1, 0, -1, 0, -1, -7
1503614267647,-3, -2, -5, -1, -5, -3, -3, -5
1503614267661,-15, -6, 0, 1, -1, 0, -1, -4
1503614267677,-24, -11, -7, -3, -2, -2, -2, -15
1503614267692,-4, -1, -2, -1, -2, -1, -1, -1
1503614267715,7, 2, -1, -2, -1, 0, -2, -6
1503614267737,4, 29, 24, 6, -1, -2, -1, -19
1503614267752,-4, -12, -14, -6, -5, 0, 1, 8
1503614267776,-3, -10, -2, 0, 0, -2, 1, 7
1503614267797,3, -13, -10, -3, -4, -2, -2, -9
1503614267812,15, 11, 7, 2, 1, 0, -1, 4
1503614267835,12, 1, -2, -4, -3, -1, -3, -16
1503614267842,5, 17, 9, 2, 2, -1, 0, 3
1503614267864,-5, 9, 7, 2, -3, 1, -1, -13
1503614267886,-6, -17, -13, -6, 5, 0, -3, -5
1503614267901,22, 2, -10, -1, -1, -3, 0, -5
1503614267917,2, 0, -3, -1, -3, -3, 0, -8
1503614267935,-6, -7, -4, -3, -2, 0, 1, -4
1503614267955,1, 2, -2, 0, -1, -2, -3, -6
1503614267977,0, -5, -1, 0, 0, -2, -3, 8
1503614267992,-3, 1, 0, -2, -1, 0, 2, 12
1503614268015,-19, -7, -1, -3, -3, 0, -3, -14
1503614268037,3, 11, 5, 3, 2, 0, 0, -13
1503614268052,25, 7, -5, -3, 1, 0, -3, 7
1503614268078,-19, -6, -1, -2, -1, 0, 0, -12
1503614268097,-10, -3, -4, -3, -5, -7, -5, -1
1503614268106,-9, -8, -1, -4, -1, 0, 0, -14
1503614268127,8, 2, -3, 0, 2, 1, -1, 0
1503614268142,-6, -13, -8, 0, 0, -1, -3, -21
1503614268164,15, 3, -1, -1, -3, -2, -2, -22
1503614268186,-68, -13, -7, -3, -3, -2, -2, -14
1503614268203,14, -2, -3, 0, 0, 0, 2, 13
1503614268224,-8, -5, -5, -5, -5, -3, -1, -23
1503614268246,-38, -11, -10, -5, -8, -1, 1, -9
1503614268254,-15, 1, 4, 0, 0, -3, -2, 4
1503614268277,43, 9, 3, 2, 1, 2, 5, 17
1503614268292,-8, -6, -6, -5, -4, -2, 0, -2
1503614268314,1, 2, -1, -2, -2, -1, -3, -6
1503614268337,5, 3, 2, -3, -3, -2, -1, 5
1503614268352,6, 4, 1, 0, 0, 0, -1, -5
1503614268375,-11, -8, -9, -3, 0, -1, 1, 1
1503614268407,5, -12, -16, -4, -3, 4, 4, 5
1503614268427,14, 22, 10, 2, -2, -2, -5, -6
1503614268435,-16, -6, -1, 1, 3, 3, 4, 1
1503614268457,-6, -7, -5, -2, -3, -2, -1, -7
1503614268473,11, 4, -2, 0, -2, 1, 8, 4
1503614268494,-14, 9, -2, -2, 1, 0, -9, -21
1503614268516,6, -9, -4, -2, 0, 0, 2, 18
1503614268539,-14, -4, 1, 1, -5, -4, -5, -8
1503614268554,-14, -3, 1, 0, -1, 0, -3, -15
1503614268577,4, -1, -2, -2, -2, 2, 0, -13
1503614268599,16, 1, 3, -1, -1, -1, -1, 11
1503614268615,20, 0, -4, -1, -4, -3, -6, -35
1503614268636,-22, -15, -2, 1, 1, -1, -6, -34
1503614268659,-15, 2, -2, 0, -7, -2, 3, 18
1503614268674,-5, -6, -2, -3, 3, 0, -2, -1
1503614268696,37, 10, 6, 2, 1, -1, 1, 3
1503614268719,-17, -4, 0, -2, 7, 1, -1, 2
1503614268734,-21, 0, -4, -3, -4, -6, -5, -8
1503614268756,25, 9, 6, 1, 0, 2, 4, 45
1503614268779,-10, 1, -10, -8, -4, -5, 0, 5
1503614268794,-7, -1, 5, 4, -1, -4, -6, -12
1503614268817,35, 7, 0, 2, -3, 3, 3, 16
1503614268841,11, -4, -2, 1, 1, -2, -3, 6
1503614268854,41, 4, 0, -3, -1, 1, 1, -6
1503614268877,-30, -5, -1, -2, -3, -2, -7, -42
1503614268899,-23, -5, 1, 0, -3, -1, 0, 6
1503614268921,27, 11, 1, 0, -1, 0, 0, 9
1503614268936,-14, -6, -8, -5, 4, 2, 0, -24
1503614268959,-11, -6, -6, -4, -3, -4, 2, 27
1503614268975,34, 5, 2, 2, -1, -1, -2, -8
1503614268996,0, -10, -3, -2, 2, 0, -2, 7
1503614269019,-15, -6, -1, 0, 6, 5, 0, 21
1503614269034,36, 3, 5, 2, -2, -4, -1, 6
1503614269056,29, 10, -3, -1, -1, 0, 0, 19
1503614269064,1, 5, 11, 0, -2, -3, -2, -10
1503614269087,-9, -5, -1, 0, 2, 2, -4, -17
1503614269110,50, 22, 13, 5, 0, 1, 0, -7
1503614269124,-43, -10, -7, -4, -3, -3, -8, -15
1503614269146,4, -3, -4, -1, 0, -2, 2, -14
1503614269168,5, -5, -7, -6, -4, -2, 9, 44
1503614269184,-18, -2, -2, 2, -2, -2, -4, -7
1503614269207,-7, -8, -8, -5, -4, -4, -4, -10
1503614269228,48, 11, 2, 1, -4, 1, -1, 3
1503614269244,-2, 13, 14, 5, 5, 1, 1, 12
1503614269266,-16, -17, -7, -2, -1, -1, -3, -8
1503614269288,9, -8, -6, 0, 2, 1, 0, -4
1503614269304,-47, -13, -8, -5, -1, -2, 1, 21
1503614269326,0, 2, 2, -1, 2, -2, -1, -3
1503614269348,11, 1, -1, 1, -5, -5, -2, -9
1503614269364,-7, -1, 2, 2, 6, -1, -2, -14
1503614269386,15, 3, 0, -3, -1, 1, 0, -9
1503614269408,24, 7, 0, 0, -1, 1, -1, 2
1503614269424,-4, -13, -13, -2, -2, 0, 2, 25
1503614269447,-9, 3, 8, 1, 7, 2, 3, 24
1503614269468,-1, 3, 1, 0, 0, 1, 0, -10
1503614269491,-25, -9, -2, -4, -1, -1, -4, -39
1503614269506,35, 11, 4, 2, 1, 1, 0, 15
1503614269528,21, 8, 4, 1, 1, 1, 2, 15
1503614269551,14, -13, -12, -3, -1, -5, -5, -4
1503614269566,7, 11, 1, 1, -3, 3, 3, -6
1503614269588,-61, -8, -5, -5, -7, -3, -2, -21
1503614269613,-26, 9, 4, -3, -1, 1, -2, -11
1503614269626,-37, 12, 10, -1, -9, -2, -1, -2
1503614269648,43, -8, -5, 0, 0, -4, 1, 12
1503614269671,16, -2, -6, -5, -2, -3, -4, 7
1503614269694,6, -4, -2, 1, 5, -1, 0, -12
1503614269716,-10, 0, 7, 4, 17, 8, 7, 22
1503614269731,-3, -4, -6, -3, -8, -2, -1, -1
1503614269747,10, -3, -3, 0, -2, -2, -1, 0
1503614269769,5, -6, 1, -2, -2, -2, 4, 5
1503614269791,-40, -6, -6, -1, -1, -1, -4, -26
1503614269806,2, 5, 5, 4, -1, 2, -3, 34
1503614269828,4, -5, -4, -2, -4, -2, -2, -14
1503614269851,2, -3, -6, -2, -8, -2, 2, -1
1503614269866,-17, -3, 4, 2, 2, -5, -14, -42
1503614269889,8, -1, -6, -4, -1, -2, -4, -8
1503614269911,-1, 1, 0, 0, 0, 0, 0, 4
1503614269920,-24, -6, -2, -1, 1, -2, 0, 35
1503614269941,-12, -13, -7, -1, -4, 0, 0, -19
1503614269957,7, -2, 0, 1, 3, -1, -1, 29
1503614269979,-21, -3, -8, -6, -2, -1, -5, -27
1503614270001,-11, -3, 1, 1, 0, 0, -1, 20
1503614270016,-19, 0, 0, -1, 1, -1, 2, -19
1503614270031,-18, 1, -2, -2, -2, -1, 0, 8
1503614270046,9, 1, -2, -3, 2, -3, -6, -2
1503614270068,17, -3, -3, -1, 3, 4, 5, 31
1503614270091,-58, -22, -11, -8, -6, -3, -6, -21
1503614270106,16, 7, 3, 3, 1, -1, 1, -3
1503614270128,3, 8, 9, 3, 2, 2, 0, 10
1503614270150,2, 1, 1, -4, -6, -3, 1, -14
1503614270166,11, 11, 6, 7, 13, 2, -2, 0
1503614270188,15, 11, 4, 2, -2, 0, 1, 11
1503614270210,-11, -5, -7, -4, -4, -1, -3, -10
1503614270227,13, -5, 3, 2, 1, 1, 5, 16
1503614270248,-22, -12, -5, 4, 1, -2, -9, -41
1503614270271,13, 7, 8, 1, 1, 0, -4, -4
1503614270286,13, 6, 1, 0, 0, -1, 1, 8
1503614270309,-1, -1, -3, -2, 1, 0, -1, 1
1503614270331,43, 4, -5, -2, -4, -3, 1, -7
1503614270346,0, 6, 6, -1, -3, -3, 1, 11
1503614270368,-35, -5, -3, -1, -4, 1, 0, 11
1503614270391,15, -19, -11, -8, -3, -2, -1, -13
1503614270413,-2, -5, -6, -6, -6, -3, 1, 4
1503614270428,-21, -1, -1, -5, -1, -1, 7, 83
1503614270453,-7, 2, 3, 3, 0, 0, 0, -19
1503614270473,5, 2, 3, 5, 2, 0, -1, -1
1503614270489,-1, 2, -4, -3, -5, 0, -1, -17
1503614270510,6, -3, -3, 0, 4, -1, -1, 9
1503614270533,-31, -11, -4, -2, -2, -3, -5, -42
1503614270549,-1, -1, -3, -2, 1, 1, 0, -31
1503614270570,7, 0, -3, -1, 0, -3, -3, 4
1503614270593,-2, -14, -6, -3, -2, -1, 1, -1
1503614270609,-10, -14, -8, -5, -3, -3, -4, -42
1503614270630,15, -1, -3, -4, 0, -2, -3, 14
1503614270639,7, 46, 40, 14, 4, 3, 0, -46
1503614270661,-3, 9, 0, 1, -4, -5, -1, -19
1503614270684,-28, -2, -5, -5, -2, -2, -3, -15
1503614270700,-30, -11, -8, -2, -2, -4, -3, -10
1503614270722,17, 4, -2, 0, 1, 0, -3, -7
1503614270744,1, -6, -4, -1, 0, 0, 3, 7
1503614270759,13, 6, 6, 4, 1, 1, 0, 31
1503614270781,4, 3, -6, -3, -3, 0, 2, -10
1503614270805,-2, -11, -15, -4, 0, 2, -3, -4
1503614270821,0, 0, -2, -2, -1, -3, 0, -5
1503614270841,-8, -5, 0, 1, 1, 0, 0, -9
1503614270864,5, 0, 1, -2, 0, 1, 1, 2
1503614270879,0, -1, 0, -4, -2, -1, -1, -2
1503614270901,1, 3, -1, 0, 0, 0, 1, -5
1503614270924,0, 1, 0, -3, -5, -2, 1, 1
1503614270939,-4, -2, -3, -2, 2, 0, 0, -6
1503614270961,11, 3, 4, 4, -1, -1, 0, 28
1503614270984,5, 8, 7, 3, 0, -1, -1, -2
1503614271000,10, 15, 18, 4, 1, 0, 2, 19
1503614271022,-8, -4, -2, 1, 0, -2, -6, -18
1503614271044,-5, -12, -12, -5, 1, -1, 0, -5
1503614271059,-4, -11, -12, -6, -4, -1, -2, 2
1503614271081,1, 10, 11, 2, -1, -1, 0, -9
1503614271104,-8, -12, -11, -4, -3, -3, -4, -12
1503614271119,-2, -2, -7, -2, -3, 0, -3, -1
1503614271141,5, -5, 0, -1, 0, -1, -1, -1
1503614271164,-4, -4, 0, 0, -1, 0, 0, -8
1503614271179,-2, -2, -1, 1, 1, 0, -1, -5
1503614271201,-4, -1, -3, -3, 0, -1, -2, -2
1503614271224,0, -3, -3, -1, 2, -2, 3, 4
1503614271239,1, 6, 1, 1, -2, 1, -1, -12
1503614271262,-5, -3, -5, -3, -3, -2, -1, -5
1503614271284,2, 3, 4, 3, 2, -1, 0, 14
1503614271299,-1, 3, 3, -2, 0, -1, 1, 3
1503614271321,0, -1, -3, -3, -3, -2, -2, -3
1503614271344,-2, -3, 2, 1, 0, -1, 0, -4
1503614271367,-1, -7, 0, 0, 0, 0, -2, -1
1503614271381,4, 1, 4, 3, 2, 0, 0, 11
1503614271404,4, 2, 3, 2, -1, 1, -1, -11
1503614271427,2, 10, -4, -1, -1, -1, -2, -2
1503614271441,-3, -8, 0, 1, 1, 1, 1, -1
1503614271464,-5, -10, -6, -4, -3, -5, -4, -6
1503614271487,-9, -9, -7, -6, -2, -3, -4, -11
1503614271501,2, 0, 3, 0, -1, 0, 1, 9
1503614271527,12, 47, 40, 15, 4, 4, 2, 3
1503614271546,-3, -5, -11, -2, -2, -1, 4, -20
1503614271562,-12, -25, -20, -9, -4, -3, -6, -20
1503614271584,0, 2, -7, -4, -1, 0, -2, -1
1503614271606,6, -1, -1, -2, -4, -4, 1, 27
1503614271621,-6, -13, -21, -5, -3, -2, -2, 0
1503614271644,-7, -13, -10, -6, -2, 1, -4, -12
1503614271666,-1, -2, 2, 1, -1, -1, 0, 6
1503614271681,-1, 4, 6, 1, 0, -1, -3, 1
1503614271704,4, 8, 7, 4, 1, -2, 0, 6
1503614271727,1, -6, -8, 2, 1, 1, 2, 29
1503614271734,-3, -1, -2, 1, -2, -1, -5, -19
1503614271757,0, 2, 1, 0, -2, -1, 0, 4
1503614271772,-2, 1, 7, 2, 1, -1, 0, 3
1503614271795,-1, -1, -6, -3, -2, -1, 1, 7
1503614271803,-3, -5, 1, 2, -3, 0, -1, 1
1503614271824,-2, -7, -1, -3, 1, -3, 0, 2
1503614271846,4, 12, 15, 4, -1, 0, 2, 7
1503614271862,-9, -12, -12, -4, -2, -3, -4, -9
1503614271884,-1, 4, 13, 5, 1, 1, 2, 0
1503614271906,0, 3, -3, -4, -1, -2, 0, 5
1503614271921,-3, -2, -4, -5, -3, -2, -3, -9
1503614271950,-1, -3, 0, 3, 2, 1, 0, 0
1503614271967,0, -3, 0, -1, 0, 1, -1, 0
1503614271981,12, 15, -2, 6, -3, 2, 0, 23
1503614272004,-2, 4, 2, -2, -2, -3, -3, -13
1503614272027,-7, -12, -11, -5, -4, -2, -4, -12
1503614272041,-2, -8, -7, -3, 1, -1, 0, 6
1503614272064,-3, -4, 4, -2, 1, -2, 0, -10
1503614272086,10, 38, 42, 11, 3, 4, 5, 26
1503614272101,-14, -16, -15, -6, 1, -2, -4, -16
1503614272124,2, -6, -12, -4, -1, 1, 4, 9
1503614272146,1, -24, -18, -7, -5, -1, 1, 2
1503614272161,0, -12, -8, 3, 1, -1, -2, -4
1503614272184,-2, -2, -2, -2, -2, -1, -2, -1
1503614272207,-10, -5, -9, -3, -3, -4, -9, -32
1503614272221,3, 5, 6, -1, 0, -1, 1, 4
1503614272243,-3, -9, -11, -3, -4, -2, -5, -15
1503614272267,2, 0, 5, 2, 1, 2, 3, 21
1503614272288,-2, 20, 27, 3, 2, 0, -1, -3
1503614272304,3, -26, -1, 2, -3, -2, 1, 14
1503614272326,-1, 3, -11, -2, 2, -4, -1, -7
1503614272349,-1, 8, 4, 2, -3, 1, -1, 9
1503614272365,17, 36, 15, 7, 1, 4, 4, 5
1503614272379,-4, -8, -5, -3, -1, -1, -3, -5
1503614272394,3, 2, -3, 3, -1, 0, 3, -6
1503614272417,-1, 0, 5, 6, 1, -1, 0, 0
1503614272439,1, -4, -6, -2, 0, -1, -3, 0
1503614272454,7, 10, 6, 2, 0, 0, 3, 26
1503614272477,4, -5, -1, -4, -1, -1, -4, -1
1503614272499,28, -2, -2, 0, 0, 4, 13, 47
1503614272507,-7, -12, -5, -4, -6, -4, -5, -2
1503614272529,-3, -7, -12, -3, -2, -3, -3, 14
1503614272544,4, -1, -14, -2, -1, 1, 3, 9
1503614272567,6, -9, -11, -2, -3, 0, 3, 10
1503614272589,6, -2, 3, -1, -3, 0, 5, 15
1503614272604,-6, -2, -2, -3, -2, -3, -1, 1
1503614272626,-17, -3, 0, 1, 0, -2, -2, 0
1503614272649,13, 3, 2, 2, -1, -1, -3, 0
1503614272664,3, -6, 2, 6, 0, -3, -7, -17
1503614272686,5, 0, -2, -1, 0, -1, 0, 8
1503614272709,0, 15, 16, 5, 3, 3, 5, -5
1503614272724,-2, -3, -9, -4, -3, -1, -1, -2
1503614272746,3, -4, 2, -4, -2, 2, 6, 31
1503614272769,1, 2, -2, -2, -1, -3, -4, -10
1503614272784,4, 1, 4, -2, -2, -1, -1, -2
1503614272808,-8, -6, -6, -2, -3, -3, -5, -16
1503614272829,8, 4, -1, -2, -2, -2, 3, 8
1503614272844,10, 7, -3, 1, 2, 2, 0, 1
1503614272867,2, 5, -5, 0, -2, -1, -1, -23
1503614272889,-15, -12, -1, -4, -4, -2, -1, 4
1503614272906,-1, 0, -6, -3, 1, -1, -2, -14
1503614272927,-5, -12, -2, -1, -2, -1, -2, 5
1503614272949,4, -9, -9, -3, -2, -1, -1, 17
1503614272964,16, 2, -1, -2, 0, 1, -2, -7
1503614272986,-1, 3, 8, 4, 1, 0, -2, -4
1503614273009,-14, -8, 0, 3, 3, -1, 0, -16
1503614273024,-3, -6, -7, -2, -2, -3, -5, 20
1503614273046,-3, 8, 5, -2, 1, -1, -1, 8
1503614273070,-27, -16, -6, -7, -5, -1, -2, -7
1503614273085,-19, -4, -6, 1, 8, 3, 4, -12
1503614273107,11, 4, -2, 3, -1, 0, -6, -3
1503614273129,8, -1, 4, 2, 0, 1, 5, 14
1503614273144,-22, 8, 3, -2, -6, -3, -3, -8
1503614273166,24, 3, -1, -4, -4, -2, 2, -2
1503614273189,13, 2, 10, 2, 2, 1, 0, 8
1503614273211,0, -4, -4, 0, 1, 2, -10, -4
1503614273226,-18, 3, -2, -1, -4, -2, 1, 7
1503614273249,-3, 4, 2, 0, -2, -3, 0, 1
1503614273258,22, 8, 2, -1, 0, 2, 4, 13
1503614273279,-6, 8, 1, -2, 1, 1, 4, -4
1503614273301,12, 25, 23, 6, 3, -2, -3, -4
1503614273317,27, 6, 1, 1, 1, 1, -1, -2
1503614273339,-39, -18, -13, -3, -3, -3, -5, -46
1503614273361,-10, -7, 1, -1, 0, -2, -8, -16
1503614273377,-6, -4, -3, -2, -1, 1, 2, 17
1503614273398,8, -2, 0, 1, 0, -1, -1, 16
1503614273421,-6, 0, -4, -1, -2, -4, 0, 3
1503614273437,7, -4, -5, 0, -2, 2, 6, 13
1503614273459,0, 16, 13, 2, 0, -1, -3, -19
1503614273481,0, -8, -2, 1, 1, 0, -3, -18
1503614273497,-11, -6, -10, -5, -3, -3, -2, 3
1503614273519,-5, 10, 6, 0, 0, -2, 0, 10
1503614273542,-9, -5, -7, -2, 0, -1, -6, -12
1503614273557,4, -7, -5, -8, -3, 0, 4, 15
1503614273579,-9, -8, -7, -2, -2, -2, -3, -17
1503614273601,2, -2, -6, 2, -1, -1, 0, 8
1503614273617,1, -5, -1, 0, -3, 2, -3, -13
1503614273641,-1, 24, 13, 5, 2, -1, 2, 21
1503614273661,2, -5, -2, -2, -3, -1, -3, -13
1503614273677,1, -10, -7, -2, 1, -3, 3, 9
1503614273698,5, 0, 3, 2, 0, -1, 0, -1
1503614273722,-2, 17, 11, 0, 2, 3, 8, 55
1503614273737,5, -6, 1, -3, 0, -1, -3, -16
1503614273759,0, -9, -2, 1, 3, 0, -1, -15
1503614273784,13, -5, -10, -2, -1, -1, -3, -7
1503614273797,5, 15, 16, 3, -1, 0, 3, 14
1503614273819,17, 4, 0, -1, -2, -3, -4, -13
1503614273843,-14, -11, -6, 1, 0, -2, -3, -11
1503614273857,-6, -5, -5, -2, -1, 0, 0, 1
1503614273879,-14, -11, -7, -3, -5, -2, -4, -5
1503614273901,-12, -14, -12, -7, -1, 2, 0, -18
1503614273923,-22, -5, -2, 2, -1, -2, -1, 5
1503614273930,-6, 2, 0, -2, -1, -3, 0, -2
1503614273947,2, -7, -9, -4, 0, 0, -1, 3
1503614273968,-9, 2, 2, 2, -1, 0, 1, -6
1503614273990,-9, -10, -9, -1, -1, 0, 0, 2
1503614274007,1, 10, 11, 3, 1, 2, -1, 6
1503614274029,25, -2, -3, 0, -5, -2, -2, -5
1503614274050,25, 24, -2, 0, 4, -1, -3, -7
1503614274059,-12, 2, -1, -2, -5, -3, -3, -1
1503614274081,4, 13, 14, 7, 2, 3, 2, 3
1503614274097,14, 2, 4, -2, -2, -3, -1, 7
1503614274119,12, 24, 12, 1, 0, 0, 1, -4
1503614274141,-11, -12, -12, -3, -1, -1, -2, -4
1503614274163,11, -5, -4, 0, -4, -3, 0, 1
1503614274179,-49, -9, -10, -2, -2, 0, -1, -33
1503614274201,25, -3, -1, 0, -1, -1, 0, 1
1503614274223,12, 14, 10, 3, -1, 3, 2, 11
1503614274239,2, -5, -1, 0, 1, 2, 2, -12
1503614274261,12, -1, 1, 2, 2, 0, -1, 5
1503614274284,5, 10, 2, -1, 0, -2, 4, 9
1503614274299,-17, -10, -8, -5, -6, -4, 1, 4
1503614274321,-34, -18, -8, -6, -4, -6, -5, -7
1503614274346,12, -2, -7, -3, -2, -2, -3, 3
1503614274359,16, 8, 3, -1, 0, 1, 4, 9
1503614274381,-29, -10, -4, 0, -4, -3, -6, 3
1503614274404,8, 24, 8, 4, 2, 1, -3, -24
1503614274419,-4, 16, 10, 1, -1, 2, -2, -23
1503614274441,4, 1, 2, 1, 2, -2, -3, -3
1503614274464,9, -7, -3, -1, -1, 0, -1, 14
1503614274480,4, -7, -7, -2, -1, -2, -1, 5
1503614274501,-18, -4, -2, -1, 0, -1, -3, -8
1503614274524,6, -17, -10, -1, -1, 0, -1, -8
1503614274539,-12, 10, 7, 0, -1, -1, -1, -9
1503614274561,-6, 0, 1, 1, 2, 1, -5, 2
1503614274584,-4, 12, 8, 6, -1, -1, -2, 11
1503614274599,7, 1, 1, -5, -3, 0, 7, 45
1503614274621,22, -7, -7, -4, -1, -3, 1, 6
1503614274644,-4, -8, -1, -3, -2, 0, -3, -14
1503614274666,-2, -7, -3, -1, 1, 0, 3, 6
1503614274682,4, 14, 5, -1, 0, -1, -2, -6
1503614274703,-16, -13, -8, -5, -3, -2, -2, -41
1503614274719,23, 2, -1, -3, -1, 0, 5, 48
1503614274741,1, -15, -11, -2, -1, 1, -2, -9
1503614274763,9, 2, -1, 1, -5, -2, 3, 5
1503614274779,3, -6, 2, 4, 1, -4, -1, 0
1503614274801,7, 5, -2, -1, -1, 0, -4, -9
1503614274816,-7, 5, 9, 4, 3, 0, 0, -8
1503614274838,-8, 7, 7, 2, 0, 1, -1, 4
1503614274853,34, 0, -6, -3, -2, 0, -1, -5
1503614274869,-17, -11, 1, 2, -2, -3, -5, -3
1503614274885,-19, -15, -7, 0, -1, 0, 1, 34
1503614274899,-10, -11, -8, -4, 1, -2, -2, -26
1503614274921,17, 5, -1, 0, -1, -1, 0, -3
1503614274944,-60, -23, -8, -8, -6, 0, -5, -17
1503614274959,16, 6, 0, -3, 0, -5, -2, -20
1503614274984,12, 4, 4, 0, 3, 3, 0, -6
1503614275003,3, 15, 11, 3, 0, 2, 0, -4
1503614275019,-1, 0, 1, -2, -2, -1, 1, 7
1503614275041,11, -2, -4, 0, 1, -2, 0, 4
1503614275063,-3, -1, 1, 3, -1, -1, 0, -14
1503614275087,-23, -12, -6, -4, -1, 0, -2, -9
1503614275101,8, -2, -4, -2, -4, -1, 0, 12
1503614275124,26, 33, 30, 10, 5, 0, 0, -3
1503614275146,3, -35, -22, -7, -4, -2, 0, -3
1503614275161,29, -8, -11, 0, 1, 0, -1, 16
1503614275185,-31, 8, 7, 2, -1, -2, -3, -23
1503614275206,8, -17, -14, -6, -4, -2, 1, 14
1503614275221,4, 11, 2, 4, 2, 2, 4, -4
1503614275244,-18, -10, -3, -2, -3, -3, -1, 6
1503614275269,-16, -3, 1, -6, -5, -2, -1, -2
1503614275281,-14, -8, -3, -4, -2, -4, -3, 1
1503614275304,9, -2, -7, -1, 0, 2, -1, 11
1503614275328,-6, 2, 2, 2, -1, -4, -5, -18
1503614275341,-6, 2, -1, 0, 0, 1, 0, -4
1503614275364,9, -2, -4, -3, 1, 0, -1, 0
1503614275388,14, 5, -1, 2, 0, -1, 2, 20
1503614275401,-3, -3, -5, 1, 2, -1, -2, -9
1503614275424,-9, 3, 4, -1, 0, -1, -2, -20
1503614275446,-4, -1, -3, 0, -1, -3, -1, 6
1503614275462,4, -6, -7, -2, -1, -2, -4, 20
1503614275483,1, -1, 5, -1, -2, -1, -2, -6
1503614275506,-8, 2, 2, -1, -2, 0, -2, -10
1503614275521,-1, 5, 2, -1, -1, -2, 1, 0
1503614275544,3, -7, -2, -1, -3, 1, 2, 2
1503614275566,-4, -7, -5, -2, 0, 1, 1, 13
1503614275581,3, 12, 11, 2, -2, 0, 4, 21
1503614275603,-4, 6, -3, -3, 1, -1, 0, -23
1503614275626,-3, -4, -3, -2, -1, -2, -2, 0
1503614275641,-2, 0, 1, 2, 2, 0, -3, -6
1503614275656,3, 5, 4, 3, 1, 0, -4, 2
1503614275671,2, 1, 1, 0, -1, -1, 1, 9
1503614275693,1, 1, -3, -3, -2, -1, -1, -3
1503614275715,2, 6, 1, 0, 1, 1, 0, 5
1503614275731,-4, -3, -2, -1, 0, 0, 0, -2
1503614275755,0, -4, -3, 0, -2, -2, -3, -1
1503614275776,-6, -1, 14, 1, 1, 0, 1, -8
1503614275799,-3, -4, -4, -5, -5, -3, -2, 2
1503614275814,-1, -5, -1, 0, 1, -1, -1, 3
1503614275824,-5, -2, 6, 0, -2, -1, 0, -12
1503614275843,0, -6, -3, 1, -1, 1, 0, -16
1503614275866,-3, -10, -6, -2, 0, -1, -2, 4
1503614275881,-3, 1, 1, 1, -6, -4, -6, -10
1503614275903,3, 13, 13, 5, 4, 3, 3, 7
1503614275926,2, -16, -18, -6, -1, 1, 4, 25
1503614275941,-3, 0, 0, -1, -1, -2, -2, -6
1503614275963,-5, -3, -4, -6, -1, 0, -5, -5
1503614275986,0, 5, 4, 1, 1, -3, -1, -6
1503614276009,10, 4, 1, 5, -1, 1, -1, -3
1503614276025,-3, 4, 2, 0, 0, 0, -1, -5
1503614276046,-2, -3, -5, 0, -3, -3, 0, 7
1503614276068,1, 3, 1, -2, 1, -3, 1, -5
1503614276083,-1, -3, 1, 0, -4, -1, -2, 5
1503614276100,-2, -3, -6, -2, -2, -4, -4, 2
1503614276114,-3, 7, 4, 1, 2, 1, 1, -6
1503614276136,-1, 2, 1, -2, -1, -1, 2, 5
1503614276159,1, 10, -2, -4, -2, -1, 1, -1
1503614276174,15, 16, 11, 8, 5, 2, 6, 42
1503614276197,-10, -10, -8, -5, -1, -4, -5, -29
1503614276219,-7, -19, -1, -4, -4, 0, -2, -3
1503614276235,5, 24, 14, 3, 4, 3, -2, -12
1503614276264,7, -7, -11, 0, -1, 0, 1, 13
1503614276279,-1, -16, -12, -6, -2, -1, -1, 15
1503614276295,-7, 0, -3, -7, -3, -3, -2, -8
1503614276317,-2, -10, -9, -1, -1, -2, -2, -16
1503614276339,1, 9, 10, 5, 1, 1, -1, -6
1503614276354,-9, -10, -5, -1, -2, -2, -5, -19
1503614276377,5, 5, 4, 4, 1, -1, 1, 12
1503614276399,-7, -6, -7, -3, -1, 1, 2, 12
1503614276414,0, 12, 14, 4, 1, 1, 1, -7
1503614276437,3, 1, 6, 4, 0, -1, 1, 15
1503614276461,-1, -3, -8, -2, -3, 3, 1, -3
1503614276474,-3, -6, -6, -2, 0, -1, -1, -8
1503614276497,-6, -4, -5, -6, -4, -1, -3, -6
1503614276519,1, -1, -6, -3, -2, -2, -2, -4
1503614276534,-3, -3, 1, 0, 1, -3, 0, -4
1503614276549,-2, -7, -3, -1, -6, -1, 0, -3
1503614276565,0, 10, 10, 2, 0, -1, 2, -9
1503614276586,0, -16, -15, -1, 2, 0, -2, 0
1503614276609,-6, -1, -11, -5, -2, -3, -2, 1
1503614276623,0, 0, 1, 2, 1, 1, 3, 10
1503614276646,2, 3, 5, 0, 3, -2, -4, -7
1503614276669,-26, -23, -8, -8, -2, -4, -12, -64
1503614276683,-6, -3, 1, -3, -2, -2, -2, -1
1503614276706,6, -2, -6, -3, -1, -1, 2, 17
1503614276729,14, 34, 30, 13, 6, 3, 3, 12
1503614276743,-7, -9, -10, -4, -6, -3, -7, -37
1503614276766,-2, 2, -3, 3, -1, 2, 1, 3
1503614276788,0, -2, -8, -2, 0, -2, 0, 2
1503614276804,7, 4, 0, -2, -5, -1, -1, 20
1503614276826,3, -8, -5, -6, -4, -3, -1, 19
1503614276848,-4, -2, -1, -1, -1, 1, 3, 4
1503614276863,4, -3, -4, -1, 0, -1, 4, 7
1503614276879,-4, 0, 10, 2, -4, -3, -6, -5
1503614276894,-31, -16, -9, -3, 1, -2, -2, -7
1503614276916,2, -3, 2, -2, -3, 1, 1, -13
1503614276939,-3, -8, -3, -1, -1, -2, -4, -10
1503614276961,8, 7, 5, 1, 0, -4, -1, 11
1503614276977,6, 1, -3, -1, 2, 0, 1, 3
1503614276999,5, 7, 7, 3, 1, 1, -4, 8
1503614277021,4, 2, 6, 1, 0, 1, 3, 17
1503614277036,2, -2, -5, -4, -1, -1, -3, -7
1503614277059,1, -3, -5, -3, 0, 0, 2, 15
1503614277081,-24, 5, 8, 2, -3, 1, -2, -16
1503614277098,5, -12, -10, -5, -4, -5, -4, 5
1503614277119,1, -2, 3, 1, 1, 0, -5, -16
1503614277141,6, -6, -14, -5, 0, -2, 3, 13
1503614277157,-4, -4, -4, -2, -2, -1, -2, -12
1503614277179,7, 7, 7, 6, 2, 0, 3, 2
1503614277201,6, 23, 29, 9, 3, 4, 0, -19
1503614277216,-7, 0, -3, -1, -3, 1, -4, -14
1503614277239,7, 0, -6, -3, -1, -2, 2, 13
1503614277261,-6, -8, -1, 0, -1, -1, -2, 16
1503614277276,-8, -10, -7, -5, -4, -1, -2, 4
1503614277300,-2, 6, -6, -2, -2, -3, -1, -9
1503614277321,6, 1, -3, 0, -2, -2, -6, -15
1503614277337,13, -9, -10, -5, -3, 3, 14, 89
1503614277367,-6, -6, -1, 2, 2, -1, -2, -23
1503614277382,-4, 4, 5, 4, 4, 2, 1, -12
1503614277396,-2, -2, -4, -2, -4, -1, -2, -14
1503614277419,-2, 25, 10, 3, 1, -4, -10, -40
1503614277441,6, -11, -8, -2, -1, 1, 0, 31
1503614277448,-10, -9, 0, 0, 1, -2, 2, -11
1503614277471,7, 1, -5, -2, 0, 1, 2, 13
1503614277486,3, -4, -7, -3, -5, 1, 4, 9
1503614277509,-1, 7, 0, 1, 1, -1, 0, -9
1503614277531,0, -3, -1, -3, -2, -2, -2, 1
1503614277546,-9, -1, 2, -1, 0, 0, -1, -29
1503614277569,0, -10, -5, 1, -1, 1, -3, 1
1503614277591,1, -4, 3, 0, -1, 3, 1, 13
1503614277606,4, -3, -8, -5, -4, -1, 2, 21
1503614277629,-2, -18, -14, -4, -3, -3, -3, 12
1503614277651,-1, 0, 1, 3, -1, -2, -2, -10
1503614277666,2, 6, 9, 1, 0, 2, 4, 4
1503614277689,3, -2, -10, -2, -3, -2, -4, 5
1503614277697,13, -1, -2, -3, 0, -1, -3, 0
1503614277719,3, 6, 3, 0, -2, -1, -6, -8
1503614277741,-5, 2, 5, -3, -1, -4, -3, 6
1503614277756,6, -8, -11, -3, -4, 0, 3, 17
1503614277779,-4, 7, 9, 2, 0, 2, 1, -13
1503614277803,9, 0, -4, -1, 1, -1, -1, 5
1503614277816,-3, -5, -9, -2, -1, 0, -2, -16
1503614277839,6, 1, -1, -2, 1, 1, 2, 31
1503614277861,0, 18, 16, 6, 0, 3, 0, -8
1503614277883,-23, -12, -11, -3, -4, -3, -2, -25
1503614277906,2, 6, 1, 0, 0, 0, -2, -2
1503614277921,0, -6, 3, 0, -2, -1, -2, -19
1503614277943,-3, -11, -7, -2, 1, -2, 1, 9
1503614277959,-2, 0, 2, -2, -2, -2, 1, 11
1503614277981,2, 2, 6, 1, 2, -2, -2, -8
1503614278004,0, 5, 1, -5, -5, -3, 0, 5
1503614278019,9, -8, -11, -2, 0, -1, -4, -6
1503614278042,-5, -1, -1, 0, -2, -2, -5, -8
1503614278063,0, 10, 8, 1, -1, 0, -6, -16
1503614278079,3, -6, -6, 1, -2, -2, -1, 8
1503614278101,6, 1, -7, -3, 0, 1, 3, 24
1503614278124,-5, -19, -10, -2, 1, -1, 2, 14
1503614278140,-10, 3, 4, 1, -2, -1, -1, 12
1503614278161,-4, -4, -2, 0, 1, 1, -3, -17
1503614278183,0, 1, 0, 0, -2, -3, -4, -16
1503614278199,3, 3, -2, -2, -1, -1, 2, 6
1503614278221,0, -5, -2, -3, 0, -2, -2, -20
1503614278244,-20, -8, -8, -1, -3, 0, 1, -14
1503614278261,7, 6, 12, 1, 0, 0, -2, -2
1503614278282,0, 1, 0, -3, 0, 0, 2, 24
1503614278303,-1, 29, 14, 4, -1, -1, -3, -11
1503614278319,-13, -9, 1, 4, 1, 1, 3, 3
1503614278341,2, -11, -11, -3, -6, -3, -2, 3
1503614278363,3, 0, -1, -2, 0, -4, -3, 0
1503614278379,-25, -6, -6, -4, -4, 1, 3, 14
1503614278401,9, 11, 2, 2, 4, 2, 3, -13
1503614278423,23, -6, -15, -5, -4, -4, -4, -7
1503614278442,-5, -11, -6, -2, 2, 1, 2, 8
1503614278461,5, 8, 7, 2, 1, 0, -3, -8
1503614278483,-5, 4, 1, -2, -1, -1, -2, -12
1503614278499,0, -4, 2, -2, -3, -2, -3, -10
1503614278521,-32, -7, -1, -1, -2, -1, -1, 2
1503614278543,12, -5, -3, 1, -2, -2, -1, 5
1503614278559,16, 0, -4, -2, 2, 1, 4, 15
1503614278581,-1, -6, 8, 0, 0, 0, 0, 8
1503614278603,-3, -10, -13, -4, -4, -2, -1, 10
1503614278619,-1, -1, 1, 0, 0, -1, 3, -12
1503614278633,-40, -15, -10, -5, -2, -1, -5, -11
1503614278648,17, 13, 7, 4, 2, 0, 0, -6
1503614278671,12, 24, 19, 5, -1, 0, 4, 33
1503614278693,-19, 1, 1, 1, -1, -2, 2, -1
1503614278710,-13, -4, -6, -3, -2, 1, 1, 6
1503614278731,9, -14, -9, -4, -3, -4, -5, -21
1503614278753,4, -10, -7, -2, 1, 0, 0, 0
1503614278777,7, -8, -2, -2, -2, 1, -3, 9
1503614278791,34, 6, -2, 0, -2, -2, -1, -1
1503614278813,-2, 0, 4, -1, 1, -1, 0, 4
1503614278835,-14, -4, -9, -2, -2, 0, 2, 28
1503614278851,4, 4, -5, -2, 0, 0, 0, 2
1503614278873,-12, -6, 2, -4, -1, -1, -6, -31
1503614278895,-6, -1, -1, 0, 0, 0, -1, -14
1503614278911,-7, -5, 0, 1, -3, -2, 2, 25
1503614278933,10, 9, 5, 1, 0, -1, -1, -5
1503614278955,6, 5, -2, -2, 0, 1, 2, -5
1503614278971,10, -4, 0, 1, -1, -2, 3, 47
1503614278995,-1, 0, -1, 0, 0, -1, 0, -6
1503614279017,-4, -1, -5, 0, 1, 2, 0, -15
1503614279031,-4, -6, -1, 0, -2, 0, -2, -19
1503614279054,-5, -3, -2, -3, -2, -3, -5, -24
1503614279076,0, -4, 0, -1, -3, -4, -3, -6
1503614279091,11, -1, -3, -3, -3, 0, 1, 8
1503614279114,3, 9, 1, -1, -1, -2, -9, -11
1503614279135,-7, -8, -11, -2, -1, -1, 2, 16
1503614279152,-11, -4, 0, -1, -2, -4, -4, -23
1503614279174,7, 5, 9, 2, 0, 0, -2, -4
1503614279195,4, -2, -6, 0, 1, 3, 4, 1
1503614279212,-4, 14, 13, 3, 1, -1, -1, 4
1503614279234,-5, -2, -1, -1, -4, -4, -3, 12
1503614279255,-2, -4, -8, -2, 0, 2, 2, 1
1503614279271,-2, -7, -7, -3, 0, -2, -1, -6
1503614279293,3, 3, 2, 0, 1, -3, 2, -2
1503614279315,-29, -6, 0, -2, -3, 1, 3, -7
1503614279331,1, -6, -4, -3, 0, 0, 2, 11
1503614279354,-3, 5, 4, 2, -2, -4, -4, -7
1503614279375,28, 2, 4, 1, 1, -2, -2, -2
1503614279391,13, 4, -4, -2, -2, 0, 0, -1
1503614279414,2, -5, -2, 1, 2, -1, -4, -7
1503614279423,-5, 19, 9, 3, -1, -1, -4, -31
1503614279443,15, -2, -5, 1, 0, 2, 3, 23
1503614279466,-7, -3, -1, 1, 0, 0, 3, 41
1503614279485,7, 5, -4, -1, 0, -1, -3, -7
1503614279503,13, -11, -7, -3, -2, 1, 4, 21
1503614279526,-30, -21, -7, -2, -2, -1, -7, -43
1503614279541,14, 7, 1, -1, -1, -1, -2, -1
1503614279563,-11, -8, -6, -4, -2, -4, -3, -49
1503614279587,1, 1, -1, 1, 2, 0, 1, -1
1503614279601,1, 8, 6, 4, 1, -1, 2, 22
1503614279625,-12, -3, 0, -3, -1, -1, -3, -7
1503614279646,-3, 2, 0, -1, -1, 0, 2, 2
1503614279661,-8, 5, 1, 0, -1, 2, 0, 21
1503614279683,-8, 17, 0, 0, -2, -3, -6, -44
1503614279692,4, 7, 9, 2, -1, 1, 1, 23
1503614279716,-9, -6, -5, -1, 1, -1, 0, 9
1503614279735,-11, -3, -4, -5, -3, 0, 0, -13
1503614279759,1, 2, -4, -1, -1, -1, -1, 9
1503614279773,14, 2, 1, 1, 0, 0, 4, -11
1503614279795,13, -2, -3, 4, 2, 0, 2, 9
1503614279818,12, 7, -3, -3, -3, -1, 2, 11
1503614279833,0, -4, -2, 2, 1, -1, -3, -7
1503614279855,-6, -2, 2, -2, -3, -3, -5, -11
1503614279878,19, 11, 11, 4, 2, 1, -2, 12
1503614279893,15, 9, -3, 1, -1, -1, -2, -8
1503614279923,-9, 4, 6, -1, 1, 0, 2, 21
1503614279938,-18, -3, 0, -1, -1, -4, -5, 0
1503614279953,-8, -2, -4, -3, -1, -2, -4, -10
1503614279975,12, -3, 1, 1, 0, 1, 6, 41
1503614279997,5, 0, 2, 0, -2, -5, -2, 7
1503614280006,-6, 4, -2, -3, -1, -1, -4, -30
1503614280029,5, -4, -2, 2, 2, 1, 1, 2
1503614280043,15, 3, 0, 0, -2, -3, 4, 4
1503614280058,0, 2, -4, 0, -2, -1, 1, 4
1503614280073,12, 23, 9, 1, 2, 0, 2, -12
1503614280095,-12, -15, -8, -5, -3, -1, -7, 28
1503614280120,12, -12, -4, -2, 0, 0, -1, -35
1503614280133,-7, 0, -1, -1, -2, -1, -5, -21
1503614280155,-3, -6, -2, 0, -1, 0, 1, 10
1503614280178,0, -2, -2, 0, -1, -3, -1, -4
1503614280194,16, 4, -8, -5, -3, -2, 10, 47
1503614280215,-14, -5, 0, -3, -1, 3, -1, -9
1503614280238,3, 3, 4, -1, 1, -1, -1, 1
1503614280254,-9, -9, -3, 1, -2, -1, -3, 1
1503614280275,3, 0, 1, -1, 1, -4, -4, -5
1503614280298,1, 2, 3, 3, -1, 0, -3, -3
1503614280313,1, -4, -3, 0, -1, -2, -2, 0
1503614280335,-3, -12, -6, -2, -1, 0, 6, -15
1503614280358,0, 8, -1, 1, 0, -1, -1, 18
1503614280373,-8, -5, -1, -2, -1, -1, -3, -6
1503614280396,3, 0, -1, 0, -1, 1, 5, 4
1503614280418,4, 10, 0, -3, -2, -1, -6, -10
1503614280433,12, 1, 2, 0, 0, 2, 5, 17
1503614280456,-4, 2, 0, 1, -1, -2, -1, 0
1503614280478,11, -3, 4, 3, 2, 0, -4, -3
1503614280495,-11, 0, -5, -6, -3, -1, -2, -4
1503614280519,-12, 2, 4, 2, 0, 0, -2, -26
1503614280538,-11, -9, -4, -2, -1, -1, -2, -11
1503614280557,13, 6, 3, 2, -2, 1, -1, 9
1503614280576,-9, -4, -5, -4, -1, -5, -4, -9
1503614280599,0, 2, -7, -3, 0, 2, 10, -34
1503614280614,5, 1, 1, 4, 1, 0, -4, 5
1503614280636,-22, -5, -4, -5, -4, -5, -5, -5
1503614280658,-22, -9, -2, -2, 2, 1, -1, -9
1503614280666,-7, 2, -4, -1, -2, 0, -2, -29
1503614280690,-9, 15, 10, 5, 2, -1, 1, -13
1503614280711,0, -3, -2, -4, -2, -3, -2, 10
1503614280727,3, 10, 7, 4, 0, 0, -4, -6
1503614280741,-3, -7, -8, -2, -2, -2, -5, -14
1503614280763,-34, -13, -1, -1, -1, 0, -1, 15
1503614280779,3, -7, -7, -1, -1, -3, -3, -1
1503614280801,-9, 2, 3, -1, -1, -1, -5, -17
1503614280831,10, 31, 16, 4, -1, -1, -5, -7
1503614280839,0, -8, -8, -5, -2, -3, -1, -1
1503614280862,5, 5, 7, -1, 1, 1, 3, 9
1503614280884,3, -1, -4, -2, 0, -1, -3, 0
1503614280899,-13, -16, -5, 0, -3, -2, 1, 16
1503614280907,-16, -24, -15, -6, -1, 0, -4, 17
1503614280929,5, -19, -7, -2, -2, -4, 1, 14
1503614280951,-3, 10, -3, -1, -3, 0, -2, -11
1503614280966,3, -9, 1, -1, 0, 1, -1, -5
1503614280988,13, 4, 1, 0, 0, -3, -4, -7
1503614281011,-17, -5, -2, 0, -2, -1, 0, -8
1503614281026,0, 14, -1, 1, -1, -1, 0, -2
1503614281048,-10, -7, -6, 1, 2, 2, 2, 16
1503614281071,4, -16, -10, -4, -1, 0, -2, -11
1503614281086,-21, -14, -15, -3, -1, -4, -4, -27
1503614281108,9, -7, -3, -2, -2, -4, 1, 16
1503614281131,-8, 12, 19, 2, -2, -1, -1, -13
1503614281146,5, 6, -1, -1, 0, 1, 0, 1
1503614281168,-9, -18, -8, -2, 0, -3, 0, 1
1503614281191,-7, 3, -2, -3, -3, 0, 0, -5
1503614281207,7, -3, 3, 0, 0, -1, -1, -1
1503614281229,8, -2, -2, 0, -3, -2, 0, 9
1503614281251,-11, 6, 5, 0, -2, -1, -4, -4
1503614281266,2, 3, -1, -2, 0, 2, -1, 3
1503614281288,1, 0, -4, 0, -1, 0, -1, 5
1503614281311,6, -1, 0, -1, -1, -1, 1, 2
1503614281328,-5, -5, -2, 1, 0, 1, 1, 15
1503614281348,0, 0, 2, 0, 0, 0, 0, -14
1503614281371,7, 7, 1, -2, -1, 0, -2, -5
1503614281386,5, 1, 9, 1, -1, 0, 1, 24
1503614281408,1, -1, -3, -2, 0, -1, 0, -2
1503614281431,0, -4, -6, 0, -1, -1, -1, -4
1503614281446,15, 7, 3, 3, 0, -1, -3, -2
1503614281468,3, -5, -10, -2, -1, 0, -4, -2
1503614281491,-11, -3, -4, -4, -1, -3, -4, -19
1503614281506,-16, -2, 6, -2, -2, 0, -1, -8
1503614281529,-5, -2, -3, -1, 0, 0, 2, 12
1503614281551,0, 6, 4, -3, -2, -1, 0, 11
1503614281573,2, 8, 6, 2, 0, 0, -1, -14
1503614281588,8, 7, 2, 1, 2, 1, -1, 1
1503614281611,3, -5, 3, -1, -1, -1, 3, 25
1503614281633,-7, -15, -8, -4, -4, -5, -5, -11
1503614281648,3, -2, -5, 0, 0, -1, 8, 6
1503614281671,-11, 1, 2, 2, -1, 0, -3, -23
1503614281694,-2, -3, -6, -3, -1, -4, -3, -18
1503614281708,2, 1, 0, -1, 0, 0, 0, -3
1503614281731,-6, -1, 1, -1, -1, -1, -3, -7
1503614281753,-3, 4, 1, 0, 0, 0, -1, 3
1503614281768,3, -11, -4, 0, 1, -1, 1, 13
1503614281791,-3, -2, -1, -2, -2, 2, -2, -7
1503614281813,-5, -2, -3, 0, -1, -4, 1, 0
1503614281828,-11, 0, -1, -2, -2, 1, -2, -16
1503614281851,-2, -2, 2, 0, 0, -1, -2, 1
1503614281873,-1, -2, -6, -3, 1, -1, -2, -13
1503614281888,7, 7, 1, -1, 1, 2, 1, -7
1503614281911,-7, 0, 5, -1, -4, -5, -6, -14
1503614281933,-2, -1, -7, -3, -1, -1, -7, -14
1503614281948,3, -3, 5, 2, 0, -2, -1, 9
1503614281978,1, 9, 7, 1, 1, -1, 1, 8
1503614281993,3, -6, -9, -2, -2, -2, -2, -8
1503614282009,4, 1, -1, -4, -2, -1, 1, 6
1503614282032,-6, -11, -12, -4, -2, 1, 3, 6
1503614282053,3, 3, -3, -1, -1, -1, -1, 15
1503614282068,7, -11, -12, -1, -1, -1, 5, 31
1503614282091,4, 1, -7, 3, 0, 0, 0, 1
1503614282113,-21, -5, 1, -5, -1, 1, -3, -17
1503614282128,1, 2, 4, 2, -1, 1, 2, -1
1503614282150,1, -1, 1, 0, -1, -1, -3, -1
1503614282174,2, 12, 10, 0, -3, -2, 1, 1
1503614282188,-3, -5, -3, 2, 1, 0, -2, -1
1503614282211,-2, -3, -2, -2, 0, -1, -1, -1
1503614282234,-6, -7, -5, -5, -2, -3, -6, -17
1503614282248,4, -1, -5, 3, -2, -1, 0, 8
1503614282271,1, 6, 5, 0, 1, 1, 1, -1
1503614282293,-1, 4, 2, -7, -4, -2, -3, 3
1503614282308,1, 1, 0, 4, -2, 0, -3, -8
1503614282331,-4, 1, -3, 0, 3, -1, 1, -11
1503614282353,-4, -6, -2, 0, 2, -1, 1, 5
1503614282368,-4, 5, 2, -3, -2, 1, 0, -5
1503614282391,2, -11, -4, -2, -1, -2, 5, 20
1503614282413,2, -2, -1, -1, -6, -2, 0, 3
1503614282421,2, 8, -2, 4, 4, -1, 2, 1
1503614282444,4, -3, -10, -3, -2, -2, 1, 24
1503614282459,-12, -7, -2, -1, 2, -1, 3, -2
1503614282488,1, 3, 4, 0, 0, 0, -4, -12
1503614282504,3, 4, 3, 1, 1, 1, 5, 18
1503614282526,5, 1, 4, 4, 8, 0, -3, -11
1503614282541,7, 8, -1, -2, -4, 0, 1, -1
1503614282564,3, -10, 1, -4, -3, 0, 1, 32
1503614282586,2, 8, 2, 1, -2, -2, -2, -17
1503614282602,-24, 1, 1, 1, 0, -1, -4, -19
1503614282624,1, -8, -5, -3, -5, -2, -4, -7
1503614282646,-3, 0, -1, -3, -3, 1, -2, -15
1503614282661,1, 4, 0, 1, -1, -3, 1, -2
1503614282684,-2, -8, -12, -3, 6, 4, 0, 8
1503614282706,5, -3, -4, -1, -3, 1, 1, -17
1503614282721,-2, 5, 3, -2, -2, -3, -4, -3
1503614282744,-13, -11, -1, -3, -2, 1, 0, -26
1503614282766,-9, -5, 0, -5, -3, -3, -4, -21
1503614282781,8, 3, 15, 5, 0, 1, 5, 24
1503614282804,9, 7, 0, 0, -1, -2, -1, 13
1503614282826,-19, 1, -4, -1, -1, -2, -4, -6
1503614282841,6, -14, -13, -1, -1, -1, -2, 4
1503614282864,-4, -7, -6, -3, -2, 0, 0, 8
1503614282886,41, 0, -7, -2, -1, -2, 3, 14
1503614282903,-1, 2, 1, 2, 0, 1, 0, 3
1503614282924,1, 5, 3, 1, 0, -1, -3, -5
1503614282946,-16, 4, 5, 0, 0, 2, -5, -10
1503614282961,-6, -4, -2, -3, -1, -1, 2, 3
1503614282984,-5, 8, 1, 0, -1, -2, -4, -6
1503614282991,14, 1, 1, 2, 1, 1, 1, 10
1503614283007,-4, -2, -2, -1, -1, -1, 6, 17
1503614283029,34, 6, -2, -2, -3, -3, -3, -4
1503614283045,-21, -10, -3, 1, -2, -2, -7, -7
1503614283066,11, 16, 6, -1, 1, 3, 2, 0
1503614283074,-8, -18, -15, -3, -3, -3, -3, -9
1503614283096,-7, -12, -7, 1, -1, 0, -3, -9
1503614283111,27, -4, -4, -2, -2, -1, -3, -2
1503614283133,2, -1, -5, -2, 0, 0, -3, -6
1503614283156,8, 7, 11, 3, 3, -1, 0, 15
1503614283171,-6, 9, 8, -3, 0, -3, -6, -14
1503614283193,19, 8, 8, 3, 2, 4, 5, -3
1503614283216,8, -5, -2, -2, -2, -2, -1, -5
1503614283231,-18, 3, -1, -2, -3, -3, -1, -7
1503614283253,-9, -7, -4, -3, -2, -3, -1, -1
1503614283276,13, 0, -4, -3, 0, 3, 0, 7
1503614283290,0, 2, 1, 2, -2, -5, -3, 11
1503614283314,-5, -4, -5, -3, -3, -1, 0, 10
1503614283336,-13, -5, -3, 0, -1, -2, -4, -8
1503614283351,-6, -3, -2, -1, 0, 1, -1, -8
1503614283375,43, 8, 0, -2, 1, 2, 4, 6
1503614283395,9, -5, -4, -2, 2, 2, -1, -10
1503614283407,5, -4, -3, -2, 1, -1, -2, -4
1503614283425,9, 0, -2, 0, 1, 3, 1, -4
1503614283448,16, 2, -3, -4, -2, -1, -2, -11
1503614283463,20, 3, -4, 0, -3, 1, 3, 10
1503614283478,2, -9, -12, -4, -3, -2, -1, 1
1503614283486,-4, 0, 3, -1, 0, -1, -2, -12
1503614283508,-42, -8, -8, -3, -2, -4, -1, -12
1503614283523,13, 5, 1, 1, 6, 6, 6, 12
1503614283546,-21, -3, -2, 0, -2, -4, -2, 8
1503614283568,14, 5, 1, 2, -2, 0, -3, 2
1503614283583,15, 9, -1, -4, -2, 1, 1, 1
1503614283607,0, -5, 3, 2, 1, 2, 2, -4
1503614283628,-25, -10, 1, 2, -2, -2, -3, -7
1503614283644,9, 2, 2, 3, -2, -1, -3, -15
1503614283665,9, 5, 6, 0, -1, -1, 1, 0
1503614283674,4, 2, 0, -3, -8, -1, -3, -4
1503614283695,11, -3, -2, 0, 1, 0, -3, 16
1503614283717,-27, -4, 1, -2, 1, -1, 4, 6
1503614283733,-34, 2, 8, 2, 2, 1, -5, -14
1503614283762,-2, -10, -7, 0, 0, -1, -7, -33
1503614283778,19, 1, -1, -2, -2, -4, -1, 3
1503614283793,-6, -2, -2, -1, 0, -2, 3, -6
1503614283816,27, 0, 2, 0, 0, 0, 2, 17
1503614283837,-20, 6, -1, -2, -3, -3, -6, -22
1503614283853,-28, 0, 1, 3, 1, 3, 2, -12
1503614283876,28, 1, -1, -1, 1, 0, -4, 4
1503614283897,54, 10, -6, -4, 3, 0, 3, 25
1503614283913,-34, -12, -1, 3, 0, 4, 5, 11
1503614283936,-10, -3, 1, 0, -1, 1, 2, -3
1503614283958,-6, -1, -2, 2, -2, 0, -6, -49
1503614283976,34, 13, 7, 0, 2, 0, -2, -16
1503614283996,-12, -9, -5, -3, -2, -1, 3, 37
1503614284018,-24, -4, -4, -4, -5, -6, 9, 37
1503614284033,37, 21, 18, 8, 4, 0, -13, -21
1503614284056,14, -13, -7, 0, 2, 2, 2, 28
1503614284078,-14, -6, -5, -6, -3, -3, -10, -51
1503614284093,-12, -4, -6, -3, -4, -3, 1, 12
1503614284116,18, 4, 1, -1, -4, -3, -6, 0
1503614284138,-10, -1, -2, 1, -1, 2, -1, -7
1503614284153,-44, -8, -3, -7, -3, 1, 3, 6
1503614284176,27, -1, -2, -2, 0, -3, 1, 10
1503614284197,-5, 3, 0, 1, 1, 0, -1, 7
1503614284213,13, -4, -1, -5, -3, -4, -3, -48
1503614284236,10, 2, 1, 3, 3, 6, 5, 3
1503614284258,-1, 1, 3, 1, 0, -3, -2, 10
1503614284273,-10, 6, 3, 2, -1, -1, -2, -24
1503614284295,21, 5, -5, -5, -4, -3, -2, 15
1503614284319,-15, -13, 2, 0, -1, -5, -6, 9
1503614284333,6, -8, -6, -2, 0, 0, -2, -6
1503614284356,11, 7, 0, -1, -1, -1, -1, 4
1503614284379,-22, -3, -3, -1, -1, 1, 6, -29
1503614284400,-10, 0, -4, -4, -2, 1, -1, 12
1503614284416,-10, -9, -7, -2, -1, -1, 6, 12
1503614284437,-12, -2, 0, -1, 8, 1, -6, -15
1503614284447,-9, -1, -3, -2, -2, 0, -3, 1
1503614284468,3, 4, 0, -2, 0, -1, -2, -2
1503614284491,-10, -2, -5, -1, -2, -2, 1, 3
1503614284506,13, 2, -4, 0, 1, -1, -1, -1
1503614284528,-7, -9, -4, -3, -6, -3, -1, -5
1503614284551,-35, -6, -2, -1, -1, -2, -3, -54
1503614284565,11, 1, -4, -1, 0, 1, -3, 23
1503614284581,-9, -5, -4, -1, 0, -1, -2, 9
1503614284595,-4, -1, 0, 0, -2, -1, 5, 27
1503614284617,-7, -9, -4, -2, -2, -2, -2, 6
1503614284640,2, 2, 1, 0, -2, -5, -4, -30
1503614284649,-19, -8, -6, -1, 8, 3, -1, 14
1503614284671,3, -2, -2, 0, -5, -3, -3, 6
1503614284686,15, -3, -1, 0, -2, 1, 2, 16
1503614284708,-5, -6, -6, -2, -1, -1, -4, -15
1503614284730,28, -8, -7, -4, -1, -2, -4, -3
1503614284747,-21, -4, -5, -5, -7, -4, -4, -7
1503614284768,5, 12, 6, 2, 1, 0, 1, 7
1503614284791,31, -3, 2, 1, 1, -1, -1, -2
1503614284806,-8, -3, 1, 1, -2, -1, -1, -10
1503614284828,-13, -3, -7, -6, -4, -3, -4, -2
1503614284851,-3, -1, -1, -1, -2, -1, 1, 7
1503614284866,20, 8, 5, 1, 1, 1, 0, -6
1503614284889,-10, -3, -2, -2, -3, 0, -1, 4
1503614284913,7, -3, -3, -1, -1, 0, 2, 8
1503614284926,20, 6, 5, 3, 1, -1, 0, 1
1503614284949,-4, 5, 2, 1, 1, -1, -3, -10
1503614284971,-15, -11, -10, -3, -5, -2, -3, -10
1503614284987,-7, -2, 5, 1, 4, -1, -1, -2
1503614285009,18, 2, -2, -2, -2, -1, -2, -3
1503614285037,-14, -8, 1, 1, 1, 0, -1, -23
1503614285053,-9, 0, 4, -2, -1, 1, 1, -2
1503614285068,-6, -4, -2, -2, 0, -3, -4, -5
1503614285090,17, -15, -6, 0, -6, -1, -7, 4
1503614285097,-8, -1, 0, 1, -1, 0, -1, -27
1503614285120,-11, -14, -7, -3, -1, -2, -2, -10
1503614285135,8, 3, 1, 0, -1, -2, 1, 10
1503614285157,16, -4, -8, -1, -1, 2, -4, -13
1503614285181,-1, 8, 0, -3, -3, -3, -4, -24
1503614285195,-25, -21, -5, 0, 1, -2, -1, -4
1503614285217,-2, 0, -1, 0, 0, 0, 1, 19
1503614285240,13, 0, -4, -5, 3, -1, -7, -6
1503614285256,-10, -4, -1, 3, -3, -3, 0, 5
1503614285278,1, -3, 0, 0, -1, 0, 0, 1
1503614285300,2, -4, -1, 1, 0, 2, 2, -20
1503614285323,12, 6, 2, -1, -1, 0, 3, 0
1503614285338,-21, 2, 0, -3, -3, -1, -7, -32
1503614285360,33, 4, -3, -1, -2, -1, 1, 3
1503614285383,-22, -5, -1, 0, 1, 0, 4, 24
1503614285398,-2, -5, 2, 5, 1, -1, 1, 12
1503614285420,3, 10, 8, 1, -1, -1, 1, 18
1503614285442,-15, -8, -3, -4, 4, 4, -5, -12
1503614285458,-18, -7, -1, -3, -4, -3, -1, -37
1503614285480,15, 2, 4, 2, -1, -4, -7, 0
1503614285502,-9, -5, -3, -2, 0, 0, 3, 16
1503614285518,-14, 10, -2, -3, -3, -1, 1, -3
1503614285540,28, 3, 0, 2, -1, 2, 6, 33
1503614285562,-6, -7, -3, -4, -3, -3, -5, -10
1503614285578,-10, -10, -9, -3, -1, 1, 3, 2
1503614285600,24, -4, 1, 1, 1, 0, -5, 1
1503614285623,4, -3, 1, -1, -1, -1, 2, 5
1503614285637,-6, 10, 2, 2, -6, -5, -2, 6
1503614285661,-9, -8, -7, -9, -5, -4, 2, 9
1503614285684,5, 7, 3, 1, 0, -1, -3, -6
1503614285707,-19, -8, 1, 2, 1, 0, -6, -25
1503614285721,14, 1, -2, -4, -2, 1, -1, 4
1503614285744,-9, -7, -8, -2, -1, -2, -4, -15
1503614285766,0, -4, 0, 1, 1, 2, -1, 6
1503614285781,-7, -3, -4, 1, 1, 0, 1, -5
1503614285804,7, -7, -15, -8, -5, -2, -2, 6
1503614285826,3, -1, 2, 0, 1, 1, 0, 2
1503614285847,-1, 5, 3, 2, 3, 0, 1, 38
1503614285849,-9, 3, 3, -1, 3, 0, 1, -2
1503614285864,5, 7, 4, 0, 0, -3, -2, -24
1503614285886,1, 4, 5, 0, 2, 0, 1, -5
1503614285901,-5, -4, -2, -1, 0, -2, 2, 1
1503614285925,-4, 8, 1, 0, -2, 0, 1, 0
1503614285953,4, 5, 3, 1, 0, -1, -2, -5
1503614285961,22, 14, 3, 2, -1, -3, 4, 4
1503614285985,-6, -15, -7, -4, -3, 1, 4, -1
1503614286006,-22, -1, 1, -1, -1, 0, -5, -29
1503614286022,-4, -4, 1, 2, 0, -1, -3, 2
1503614286044,-7, -8, -6, -2, -1, 1, 0, 1
1503614286066,6, 0, 1, 0, 0, -1, 2, -10
1503614286081,10, 3, -1, -2, 0, -1, -2, 5
1503614286104,1, 9, 7, 5, 2, 0, -1, -7
1503614286127,-7, 1, 2, -2, -3, -3, -2, 19
1503614286141,9, -8, -10, -3, 1, -1, 3, 11
1503614286164,-2, 0, -1, -1, 0, 1, 0, 0
1503614286187,-13, -13, -8, -8, -6, -3, -3, -8
1503614286201,-18, 4, 5, 2, 1, -1, -4, -10
1503614286224,-4, -3, -4, -1, 0, -1, 2, 18
1503614286247,-2, -5, -2, -2, -2, 0, -3, -10
1503614286262,8, -4, -1, -1, -1, -1, -1, 1
1503614286284,-7, 0, -3, -2, -2, 0, -1, -1
1503614286306,6, 11, 4, 0, -1, -1, -3, -7
1503614286329,1, -6, -5, -2, 0, 0, 0, -3
1503614286350,-8, -8, -2, 0, -2, -1, -1, -4
1503614286366,24, 19, 12, 4, 3, 2, 1, 13
1503614286381,-1, -3, 1, 0, -1, 0, -3, -5
1503614286404,-1, 9, 5, 0, 1, -4, 1, -5
1503614286427,10, -4, -11, -1, -2, -1, 8, 52
1503614286441,-2, -3, 3, 1, -1, 0, -4, 2
1503614286464,-8, -9, -10, -2, -3, -1, 0, -6
1503614286487,0, 3, 3, -3, -2, -3, -4, -12
1503614286501,3, 12, 12, 5, 3, 2, 0, -7
1503614286523,-9, -5, -3, -5, -1, -2, 0, -9
1503614286546,0, -2, -1, -1, 0, -2, -1, -3
1503614286561,14, -2, -6, -3, 0, 1, -2, 11
1503614286583,-4, -2, -6, -1, -2, -2, -1, -14
1503614286606,-13, -5, -1, 0, -1, 0, 1, -4
1503614286624,-3, 0, -7, -1, 1, -1, 1, -1
1503614286644,-7, 0, 1, -2, 0, -2, -6, -20
1503614286666,8, 5, 2, 0, -1, -3, -1, 15
1503614286681,3, 0, 1, 1, -1, -1, 4, 12
1503614286704,-15, -8, -3, -1, -3, 0, -7, -37
1503614286730,-5, 0, 0, -2, -3, 0, -4, -11
1503614286741,13, 0, 0, -1, -2, -1, -2, 43
1503614286764,8, -1, -2, -1, 1, 2, 7, 29
1503614286786,-12, -9, -7, -1, -3, -2, -11, -49
1503614286801,8, -2, -4, 3, 1, 0, -2, 7
1503614286824,-5, -2, 2, 1, -3, -6, -2, -5
1503614286846,4, 0, -1, -2, -1, -2, -2, 14
1503614286853,17, 6, 2, -1, 2, 3, 5, 15
1503614286875,-11, -8, -5, 0, -1, -2, -3, -9
1503614286891,9, 4, 6, 0, -2, -1, -2, -4
1503614286913,4, 5, -2, 0, 0, 1, 4, 7
1503614286935,-6, -9, -7, -4, -2, -4, 0, 10
1503614286950,-3, 7, 4, -1, -1, -2, -4, -10
1503614286973,9, 5, -1, 0, 3, 2, 4, 49
1503614286996,-3, -4, -1, 0, -3, -4, -3, -12
1503614287011,-26, -7, -3, 1, 1, 0, -2, -18
1503614287033,13, 17, 7, 3, -1, 1, 0, -3
1503614287058,-1, -9, -4, -2, -2, -3, 0, 18
1503614287070,-6, -5, -3, -1, 0, -1, 1, 21
1503614287086,1, 3, 2, -3, -2, 0, 2, 10
1503614287101,-4, -3, 2, -2, 2, 0, -3, -1
1503614287125,7, -4, -7, 0, -2, -4, -1, 2
1503614287146,-5, 2, 2, -1, -1, -2, -4, -3
1503614287168,-1, -7, -1, 1, 0, -2, 2, 5
1503614287183,13, 8, -2, 0, 1, 0, 2, 30
1503614287206,-8, 1, 5, 0, 0, 0, 1, -9
1503614287228,-1, -5, 2, -2, -2, -2, -4, -2
1503614287243,-7, 8, 1, -2, -3, -1, -4, -19
1503614287261,2, -1, -5, -1, 1, -1, 3, 31
1503614287273,-13, -7, -4, -3, -2, 0, -4, -20
1503614287296,3, -5, -3, -1, -3, -1, 1, -6
1503614287318,-2, 5, 4, 0, -2, -1, -3, -9
1503614287333,3, 13, 8, 2, -2, 1, -2, -3
1503614287355,11, 23, 12, 1, 1, 0, -1, -7
1503614287378,-7, -8, -1, 0, 0, -3, 0, -2
1503614287393,-3, -7, -7, -2, -1, 0, -1, 9
1503614287416,-1, -6, -3, -2, -3, -3, -1, 3
1503614287438,2, -4, -2, 0, 0, 0, 0, -8
1503614287453,0, -14, -8, -4, -1, -2, -4, -6
1503614287475,-6, -18, -9, -2, -1, -2, 0, -4
1503614287498,-4, 3, 3, 2, 0, -3, -2, 0
1503614287513,0, 0, 4, 0, 0, -1, -1, 0
1503614287536,-5, 6, 0, -2, -1, 0, -2, -4
1503614287560,-3, -5, -6, -1, -2, 0, -2, -1
1503614287573,6, 8, 2, 0, 0, 0, 2, 2
1503614287603,2, 4, -1, 0, 0, 0, 1, -1
1503614287618,-1, -3, -2, -3, -2, -1, -2, -3
1503614287633,-5, -9, -6, -5, -4, -1, -5, -7
1503614287655,3, -2, -1, -1, -1, -1, 3, 19
1503614287678,-1, 4, 1, 2, 0, -2, -2, -4
1503614287695,3, -2, 0, 0, -2, -2, 0, -4
1503614287715,2, 12, 3, -2, -1, 0, -2, -6
1503614287738,-1, -3, -6, 0, 0, 1, 1, 5
1503614287753,-3, -2, -2, -2, -1, 0, -1, -3
1503614287775,0, -11, -6, -4, -3, -3, 0, -9
1503614287798,-1, -2, -2, 1, 1, 1, 0, 13
1503614287813,-4, 6, 9, 0, -1, 0, -1, -7
1503614287836,-2, -5, -4, -2, -1, -2, -2, 0
1503614287858,5, 6, 1, 1, 0, 0, 0, 8
1503614287873,1, 8, 6, 1, 1, 1, 1, -2
1503614287897,-2, 0, 1, 1, -3, 0, -1, -8
1503614287918,0, -4, -1, 0, -2, -2, -1, -4
1503614287933,-11, -4, 2, -2, 0, 0, -2, -3
1503614287955,1, -2, -3, 0, -1, 0, -4, -4
1503614287978,-6, -5, -3, -2, 0, -2, -1, -5
1503614287993,8, -3, -8, -2, -2, -1, 1, 9
1503614288015,-7, -9, -7, -1, -2, -2, -3, -6
1503614288024,-7, 4, 6, 1, -1, 1, -2, 3
1503614288046,-1, -5, -3, -1, 1, -1, -3, 1
1503614288069,0, -7, -2, 2, -1, -2, -2, -5
1503614288084,7, 3, -5, -4, -3, -1, 0, 3
1503614288106,2, 0, -3, -1, 2, 2, 0, 6
1503614288129,3, -6, -4, -3, -3, -2, -2, -2
1503614288150,-3, 3, 2, 0, -2, -3, -1, -4
1503614288167,3, 20, 17, 5, 0, 2, 2, -1
1503614288188,-6, -9, -8, -1, -3, -2, -1, -3
1503614288210,1, 0, 2, -3, 1, -1, -3, -7
1503614288226,-1, -5, -2, -1, -1, -1, 1, 1
1503614288248,-1, 8, 6, 2, -2, 1, -1, 1
1503614288271,-1, -10, -4, -3, 0, 1, -3, 2
1503614288286,-2, -3, -9, 0, -2, 0, -2, 0
1503614288308,3, -2, -7, -2, -1, -2, 0, -2
1503614288333,-10, -18, -9, -7, -2, -3, 1, 3
1503614288347,-2, 4, 0, -3, 0, 0, 1, -4
1503614288368,-1, -6, 0, 0, 0, 1, -2, 2
1503614288376,-2, -1, -3, -3, 0, 0, -1, -1
1503614288401,-5, -3, -1, -1, -2, 0, -4, -4
1503614288420,-2, 0, -1, 0, 0, -2, 1, -10
1503614288435,4, -6, -3, -2, -1, -1, -2, -1
1503614288451,-4, -4, -1, 1, -2, -3, -1, 6
1503614288467,1, -3, -6, -1, 1, -1, -3, -3
1503614288488,2, 8, 9, 2, -1, 0, 1, -5
1503614288510,-4, 0, 2, 0, 0, -3, -6, -14
1503614288526,-4, 1, 0, -3, -1, 1, -1, -6
1503614288548,0, 1, -2, -1, -2, -2, 0, 0
1503614288570,-1, -4, -2, 0, -1, 1, -2, -3
1503614288578,-1, 6, 5, 3, 0, -3, -2, -3
1503614288632,-8, 1, 3, 0, 0, -3, 1, -8
1503614288647,-4, -5, -4, -4, 0, 0, -2, -3
1503614288668,2, 7, 3, 3, 2, -1, -1, 5
1503614288690,0, -6, -2, -4, -3, 0, -2, -2
1503614288708,-9, -5, -5, 1, -1, -1, -4, -7
1503614288728,-11, -6, -9, -3, -2, -1, 1, -6
1503614288750,-2, 0, -1, 1, 0, -1, 0, -1
1503614288758,0, -1, 0, -1, -2, -3, -1, 4
1503614288780,-5, -10, -9, -5, -4, -4, 1, -1
1503614288796,-10, -13, -4, 1, 1, 1, -3, -8
1503614288818,3, 9, 7, 0, 0, 0, 0, 5
1503614288840,-5, 1, -5, -1, 1, 0, -2, -7
1503614288855,11, -1, -4, -2, -3, -4, 2, 12
1503614288877,-3, -1, -5, 0, 0, -1, -1, -7
1503614288886,4, 6, 3, -1, -2, -1, -1, 1
1503614288908,12, 3, -4, -3, 1, -1, 0, -1
1503614288930,-6, -1, 1, 1, -1, 2, -1, -3
1503614288946,-2, -2, -2, 0, 0, -2, -2, -10
1503614288968,1, 1, 1, -1, 0, 0, 0, 12
1503614288990,1, -3, 0, -1, -2, -2, -4, 3
1503614289006,7, 0, -3, -1, 1, 2, 2, 3
1503614289028,-5, -1, -4, -2, -3, -1, -2, -11
1503614289050,18, 8, 6, 0, 1, -3, 0, 8
1503614289073,-16, -8, -6, -3, -1, -3, -2, -10
1503614289088,9, 0, 0, -2, -3, -3, -2, -6
1503614289110,-5, -6, -2, 0, 0, -1, 3, 8
1503614289134,12, 2, -1, -2, -3, -2, -1, -6
1503614289148,-13, -5, -1, 0, -4, -1, -2, -20
1503614289171,-17, 2, 9, 1, 2, 4, -2, -3
1503614289193,2, 12, 6, 3, -1, 0, -1, -2
1503614289208,-17, -1, -6, -4, -3, -4, -4, -16
1503614289231,5, -6, -4, -1, 0, 1, 1, 9
1503614289253,19, 3, 1, 0, -1, -1, -2, 6
1503614289270,11, 0, -1, 1, 1, -2, -1, 5
1503614289290,-12, -3, -1, 3, 2, 2, 3, 5
1503614289313,-10, -8, -3, -2, -2, -1, -10, -8
1503614289328,4, -4, -4, -7, 6, 2, 7, 27
1503614289350,1, -1, 0, 2, -6, -5, -3, -44
1503614289373,-42, -7, 3, 3, -2, 1, -1, -8
1503614289397,28, 16, 8, 5, 4, -1, 0, 20
1503614289411,-6, -5, -7, -4, -5, 1, 1, -13
1503614289436,-11, -2, 2, 1, 1, 1, 2, 7
1503614289449,2, -6, -7, -3, -1, 0, 1, 25
1503614289471,33, 2, -5, -6, -2, -2, -3, -6
1503614289493,-4, -4, -5, -4, -3, 1, 9, 7
1503614289509,4, -7, -7, -3, 0, -1, -4, -18
1503614289530,-7, 4, 0, 1, -1, -3, -3, -7
1503614289553,33, 8, 1, -1, -2, -1, -4, 9
1503614289570,-9, 2, 5, 2, 0, 0, 1, 21
1503614289590,-20, -11, -6, -3, -1, 0, 0, -5
1503614289613,-7, -3, 0, -2, -1, -1, -7, -1
1503614289628,-30, -6, -4, -2, -8, -5, -4, -7
1503614289650,-12, -10, -9, -3, 0, 0, 0, 28
1503614289673,10, -3, -1, 0, 0, 0, -1, -12
1503614289688,-20, -4, -4, -1, 0, 0, -2, -9
1503614289710,8, -1, 1, 1, 1, -2, 2, 1
1503614289733,23, 1, 0, 2, 1, 0, -2, -5
1503614289741,-2, -1, 3, 0, 0, 1, -3, -7
1503614289762,8, -5, 0, -3, -2, -1, 0, 40
1503614289779,-1, 3, 3, -2, 0, 2, -4, -18
1503614289800,1, -6, -6, -2, -2, -3, -3, -9
1503614289822,-30, -3, -1, -1, -1, 0, 0, -3
1503614289838,24, 11, 0, 2, 0, 1, 2, 3
1503614289860,-4, -3, 2, -2, -3, -1, 0, -3
1503614289882,5, 3, 0, -1, 1, 0, -1, -7
1503614289898,3, -2, 1, 2, -1, 0, -2, -1
1503614289920,1, 7, 3, 0, -1, -1, -2, 0
1503614289942,-5, -18, -4, -2, -3, -2, -2, 0
1503614289965,-19, -11, -3, -5, -2, -1, -1, 5
1503614289980,-6, -4, -3, -2, 0, 0, 0, -6
1503614290002,7, 5, 2, 1, 1, -1, -5, -6
1503614290011,-1, -3, 2, -4, -3, -2, 0, 18
1503614290033,15, -5, -3, -3, 0, 1, -1, -8
1503614290055,-5, 1, 3, 0, 0, -4, -2, -11
1503614290072,5, 1, -1, -2, -2, 2, 3, 2
1503614290093,-2, 5, -1, 0, -1, -1, 3, 22
1503614290115,-4, 0, 0, 3, 3, 3, -5, -55
1503614290130,2, -2, -4, -3, -2, -3, -1, -8
1503614290153,11, 1, 0, 1, -2, -1, -2, 11
1503614290175,-5, 5, 4, -1, 2, 0, 0, 1
1503614290191,-19, -9, -4, -1, -3, -1, -4, -9
1503614290213,8, -4, -4, -2, -1, -1, -1, 5
1503614290236,10, 4, 0, -4, -2, -3, -3, -11
1503614290250,12, -2, -4, -1, -2, 0, 5, 36
1503614290273,25, 10, 3, 0, 0, -1, -2, 16
1503614290296,-13, -9, -3, -1, -1, 1, 3, 1
1503614290310,-4, -2, 1, -2, -1, -1, -3, -8
1503614290333,3, 0, -1, -2, -3, -5, 1, 10
1503614290355,1, -1, 0, 3, 0, 4, 3, 24
1503614290370,-30, 11, 7, 1, 0, 1, -3, -16
1503614290393,9, 0, 1, 3, 0, 0, -1, -14
1503614290416,-13, 2, 3, 0, 2, 0, 0, 5
1503614290431,-24, -9, -1, -1, -2, -1, 0, -12
1503614290453,-9, -7, -1, 1, -2, 0, 1, -17
1503614290461,3, -1, -1, -2, -2, -2, -2, 10
1503614290483,-7, -4, -1, 2, 2, -1, -2, -2
1503614290505,10, 2, 5, 1, 0, 1, 0, -6
1503614290520,1, -2, -1, 0, -2, -3, -8, -5
1503614290542,-8, -7, -2, -1, 0, 0, -1, -9
1503614290564,11, 27, 13, 3, 0, -1, 0, 11
1503614290574,-13, -10, -9, -5, -2, 0, 1, -2
1503614290595,10, -4, 3, 1, 0, -1, 1, 17
1503614290611,2, 10, 7, 7, 0, 0, -4, -12
1503614290633,-24, -6, -3, -5, -1, 2, 3, 22
1503614290655,-4, -8, -7, -6, -3, -3, -3, -5
1503614290670,-8, 17, 7, 6, 2, 1, 5, 24
1503614290693,15, -8, -8, -5, -2, -2, -6, -8
1503614290715,-7, -11, -4, -4, 0, -3, -3, -12
1503614290731,-2, 7, -2, 2, -2, -1, 0, -8
1503614290753,31, 16, 9, 3, 0, -2, -7, -20
1503614290776,-22, -2, 0, -1, 0, -1, -2, -18
1503614290790,11, -2, -2, -2, -2, 2, 2, 3
1503614290813,1, -14, -5, -3, -1, 0, 0, 5
1503614290835,17, -12, -14, -4, -4, -2, 3, 1
1503614290851,-10, -9, -4, -1, -2, 0, 3, 2
1503614290873,-10, -11, -7, -3, -2, -1, -4, -3
1503614290895,26, 31, 7, 2, 0, -2, 0, 7
1503614290918,-4, -4, -2, -2, -1, 0, -1, -2
1503614290933,-3, 4, 2, 1, 1, 0, -3, -9
1503614290956,-3, 11, 11, 3, 2, 1, 0, 2
1503614290978,-5, 2, 4, 0, 0, -4, -2, -4
1503614290993,11, -12, -4, 0, -2, 0, 6, 50
1503614291015,-1, 2, 1, 0, 0, 0, 0, -15
1503614291038,-5, -6, -2, 0, 0, -1, -3, -19
1503614291053,-9, -8, -3, -2, 0, -1, -5, 7
1503614291078,-2, -7, -6, -1, 0, -1, 0, -17
1503614291098,-11, -3, -1, 0, -1, -2, -4, -9
1503614291113,-2, 0, 1, 0, -1, -2, -2, 2
1503614291135,3, 0, -1, -1, -2, 1, 3, 16
1503614291158,1, 5, 3, 1, -1, 0, 0, 2
1503614291173,0, 1, -4, -2, -3, -1, -3, 3
1503614291195,8, 1, -5, -2, -1, -1, 2, 7
1503614291218,-8, -4, 0, -2, -2, -4, -3, -11
1503614291233,-7, -4, -3, -3, -2, 2, 0, -10
1503614291255,5, 2, -3, 0, 1, -2, 0, 10
1503614291279,-7, -1, 2, -1, -2, 0, -1, -10
1503614291293,-2, -4, 2, 2, -1, -2, -2, 2
1503614291315,0, -5, -7, -1, 0, -2, -3, -5
1503614291323,-1, -6, -4, -3, -3, -2, -2, -10
1503614291346,1, 0, -1, 0, -1, -2, 0, 6
1503614291368,-3, -9, -5, 0, 1, 0, -1, -5
1503614291383,-1, -1, -1, 1, 0, 1, -2, -4
1503614291406,-5, -5, 1, -2, -1, 0, 0, -8
1503614291428,2, -2, -6, -5, -2, -2, 1, 15
1503614291451,-3, -8, -10, -2, -2, -1, -2, -4
1503614291473,-1, 1, -1, -1, -1, -2, -3, -4
1503614291488,0, -3, 0, -3, -1, 1, 1, 3
1503614291503,2, 3, 6, -2, -3, -2, -1, -2
1503614291526,-6, 3, 1, 3, 5, 0, -2, -12
1503614291548,-6, -1, 10, 0, -2, -1, 0, -19
1503614291563,7, 18, 12, 3, 1, 2, -1, 11
1503614291586,15, 9, 9, 4, 1, -1, 6, 24
1503614291608,-8, -6, -5, -2, 0, -1, -2, -1
1503614291624,1, 0, -5, -1, -2, -1, -1, -2
1503614291648,-2, -6, -10, -6, -2, 0, -2, -2
1503614291668,-1, 6, 3, 0, -1, -1, 1, 5
1503614291684,0, -3, -2, -1, 0, -1, -1, 3
1503614291706,-8, -13, -4, -1, -3, 0, -1, -9
1503614291728,-4, -7, -7, -4, -2, -2, -2, -4
1503614291743,2, 0, -3, 0, 2, 1, -2, 1
1503614291766,-4, -5, -8, -4, -1, -3, -3, -2
1503614291789,0, -1, -5, -1, -1, 0, 1, -5
1503614291803,-5, 4, 4, 1, -1, -1, -1, -1
1503614291826,-4, -1, -2, -7, -2, 0, -2, -5
1503614291849,1, -3, 0, 5, -1, -1, 0, 0
1503614291870,7, 9, 1, 2, 1, 1, 0, -31
1503614291886,-6, -10, -4, -3, 0, -1, -2, -6
1503614291908,3, 4, 3, 0, 0, -1, -1, 6
1503614291930,0, -6, -1, 1, -2, -1, -1, 3
1503614291947,0, 7, 2, 1, 1, 1, 0, 8
1503614291969,3, 13, 27, 7, 1, 2, 3, 9
1503614291990,3, 4, -9, -2, -2, -3, -3, 10
1503614292007,-5, -10, -8, -4, -2, -3, -2, 2
1503614292021,4, 21, 8, 2, -1, 0, -2, -2
1503614292035,-4, -10, -2, 0, -2, 0, -1, -8
1503614292058,5, -1, 5, 4, 0, 0, -2, 11
1503614292082,4, -1, 0, 1, 2, 0, 3, 34
1503614292095,-6, -11, -6, -5, -3, -1, -1, -13
1503614292118,-2, -5, -2, 0, -1, 0, 0, -8
1503614292140,6, 3, 0, -1, 0, 0, 4, 9
1503614292155,-5, -9, -7, -3, -1, -4, -4, -9
1503614292178,-4, 3, -2, -4, -2, 0, -2, -10
1503614292200,-4, -6, -4, -3, 1, -2, 0, -5
1503614292217,2, -3, -2, 2, -1, 2, -1, -3
1503614292238,0, 9, 10, 2, 0, -1, -1, -3
1503614292261,-3, -3, -2, -1, -1, -3, -2, -1
1503614292275,-4, -7, -7, -1, 0, 1, -1, -9
1503614292298,3, 9, 9, 4, 2, 0, -3, -7
1503614292320,6, -5, -8, -3, -2, -3, 4, 31
1503614292335,-7, -2, -5, -1, -2, 0, -1, -13
1503614292359,6, 11, 3, 0, -2, 0, 1, -1
1503614292380,-1, -11, -3, -2, 0, -3, -2, 8
1503614292395,4, 28, 20, 5, 0, 0, -3, -4
1503614292419,-13, -15, -9, -6, -2, 0, -2, -24
1503614292440,-5, 2, 1, -1, -1, -1, -3, -5
1503614292455,3, -2, -9, -1, -2, -2, -2, 6
1503614292478,0, -1, 4, 1, -2, -1, -1, 0
1503614292500,-1, -6, -7, -4, -4, -1, 0, 3
1503614292515,-2, -4, -2, -2, -2, -1, -3, -17
1503614292538,-7, -8, -1, 0, 0, -2, -5, -13
1503614292560,0, 2, -4, -3, -1, 0, 0, 10
1503614292575,2, -6, -6, -3, -1, -2, 0, 25
1503614292598,-2, 2, 9, 3, 1, -2, -1, -5
1503614292620,0, -2, -2, 0, 0, 1, 0, -8
1503614292635,5, 11, 6, 3, 1, 0, 1, -2
1503614292658,-5, -9, -5, -3, 0, -1, 0, 3
1503614292682,0, -6, -4, -1, -1, 0, -3, -1
1503614292695,-3, -7, -14, -3, -2, -2, 0, -1
1503614292726,-4, -1, -4, -3, -1, 0, -2, 0
1503614292749,0, 4, 1, 0, 0, 0, 1, 11
1503614292770,0, 2, 6, 1, 0, -2, 0, 2
1503614292793,-3, -1, 1, -1, -1, -3, -2, -3
1503614292808,1, -3, -8, -2, -1, 2, 2, 3
1503614292830,-5, -9, -4, -1, -3, 1, -2, -5
1503614292854,-1, -4, -6, -2, 0, -5, -1, 1
1503614292869,1, 1, 3, -1, -4, -2, -2, 1
1503614292891,1, -4, 1, 1, 0, -1, 0, 0
1503614292913,4, 6, 15, 6, 3, 2, 4, -7
1503614292929,-2, -4, -6, -4, -3, 1, -4, -9
1503614292951,-5, -1, 1, 0, -1, -1, 0, -16
1503614292973,-3, -4, -10, -5, -1, -2, -2, 3
1503614292989,2, -1, -3, -3, -1, -2, -2, 3
1503614293010,-8, 1, 8, 1, 0, 1, -5, -10
1503614293033,3, 16, 2, 1, 0, -2, 0, 2
1503614293056,-27, -11, -7, -6, -4, 0, 0, 11
1503614293078,1, 1, -1, -2, -5, -3, -4, -15
1503614293100,4, 0, 0, 0, 2, 0, -1, -1
1503614293122,7, 6, 1, 2, 1, 2, 5, 15
1503614293138,-11, -8, -4, 1, -2, -1, 1, -30
1503614293161,-11, -7, -3, -6, -1, -3, -5, -1
1503614293182,2, 1, -1, 0, 2, -1, -2, 2
1503614293198,-1, 9, 9, 1, -1, 3, -2, 3
1503614293221,6, 6, 2, 1, -2, -1, 0, 18
1503614293242,-2, -6, -6, -4, 0, -1, -3, -8
1503614293258,-7, -3, 2, 2, 1, 0, -1, -9
1503614293280,-3, 10, 6, 4, 1, -1, 0, -7
1503614293302,-5, -5, -6, -4, -3, -1, -2, 1
1503614293318,0, 3, 10, 2, -2, -2, -1, -10
1503614293340,0, 1, -8, -7, -2, 0, 0, 4
1503614293362,-6, -9, -7, -1, -1, -4, -3, -11
1503614293378,6, 17, 5, -1, -1, -2, -2, 6
1503614293400,-6, -8, -4, 0, -1, 1, -2, -7
1503614293424,0, -2, -6, -1, 0, -1, 0, -7
1503614293438,-3, -2, 3, 2, -2, -1, -1, -1
1503614293460,-2, -2, 2, -1, -2, -2, -3, 3
1503614293482,-3, -8, -6, 0, -1, 1, -1, 3
1503614293498,2, -3, -2, -1, -1, 2, 5, 9
1503614293521,-2, -9, -4, 1, -1, -3, -3, -1
1503614293542,2, -2, -5, 0, -1, -1, -2, -1
1503614293558,1, 7, 0, -1, 0, -2, -2, -12
1503614293580,2, 17, 11, 3, 1, 0, -1, -8
1503614293603,-8, -15, -13, -7, -2, -3, -1, -1
1503614293618,3, 0, -1, 1, 1, -1, -2, -3
1503614293640,-3, -7, 2, -1, 0, -1, 2, 4
1503614293663,2, -3, -3, 0, -2, 0, 1, 7
1503614293678,-3, 0, 2, 3, 1, 0, 0, -1
1503614293700,0, -3, -9, -3, -3, 0, 1, 3
1503614293725,-4, -21, -15, -6, 0, 0, 5, -19
1503614293745,-7, -1, -4, -2, -1, -1, 0, 3
1503614293763,-2, 5, 6, 1, 0, -2, -5, -3
1503614293783,5, -1, -2, -2, -2, -4, -1, 2
1503614293805,11, 5, 2, 0, -1, 2, 0, 25
1503614293820,-8, 2, 2, -3, -1, -2, -5, -17
1503614293843,-1, 4, -2, 2, 2, 0, -3, -13
1503614293865,-1, -4, -1, -1, -1, -2, -6, -12
1503614293880,9, -2, 2, 2, 1, 2, 7, 22
1503614293903,-13, 8, 13, 4, 0, 3, -5, -24
1503614293926,-13, -9, 0, -1, -1, 0, -2, 1
1503614293940,0, 0, -3, -2, -2, -3, -2, 3
1503614293963,4, -4, -1, 0, 0, -2, -1, -2
1503614293985,6, 6, 3, -2, -1, 0, 3, 12
1503614294007,15, 18, 11, 3, 3, 1, -2, -14
1503614294030,-2, -11, -15, -4, -3, 2, 4, 15
1503614294044,15, -2, -2, -4, -3, 0, 1, 23
1503614294053,-28, -9, 3, 0, 0, -4, -7, -12
1503614294061,29, 21, -1, 4, 3, 0, 2, 7
1503614294083,-3, -17, -10, -1, -2, -4, -2, 0
1503614294104,-10, -1, 5, -2, -1, -1, -5, -17
1503614294120,-1, 7, 8, 0, -1, -2, -2, -5
1503614294142,-3, 1, 0, -6, -3, 1, -1, 3
1503614294165,7, 14, 3, 5, 4, 1, -2, 2
1503614294180,-22, -30, -16, -12, -9, -5, -6, -6
1503614294202,-3, -5, -5, 2, -1, -1, 5, 24
1503614294226,-7, -5, -3, 3, 3, -1, 0, -17
1503614294240,-25, -18, -9, -6, -2, -2, -3, -11
1503614294263,43, 3, -1, 0, 0, 0, 6, 47
1503614294271,-31, -13, -13, -2, -3, -4, -2, -10
1503614294294,-4, -11, -12, 1, 3, 0, -2, 15
1503614294315,-6, -10, -14, -6, -3, -2, -3, -3
1503614294330,5, -5, -3, 1, -2, 0, 0, 4
1503614294352,19, 14, 11, 4, 7, 5, 1, 9
1503614294375,-21, 4, 0, -4, -2, -1, -2, -18
1503614294391,28, 2, -3, -4, -1, -1, 3, -6
1503614294413,-13, -9, -7, -3, -4, -5, -3, -21
1503614294436,2, -1, -4, -3, -3, -2, 2, -1
1503614294458,1, -5, -6, -2, -3, 2, -3, -18
1503614294473,-13, -8, -7, -4, -2, -1, -3, -17
1503614294495,7, 3, -3, -6, -1, -2, 0, 10
1503614294521,-11, -2, -1, -4, -5, -3, -4, 13
1503614294534,19, 2, 2, 4, 0, -1, 0, 1
1503614294555,-13, -10, -5, -5, -1, -1, -1, -38
1503614294573,-4, 1, 1, 3, -2, 0, -4, -9
1503614294597,-2, -1, -2, 3, 1, -2, -4, 8
1503614294615,19, 8, 4, 2, 3, 1, 5, 16
1503614294638,30, 5, -2, -6, -3, 0, 6, 57
1503614294653,-20, -8, 1, 1, -1, -2, -4, -2
1503614294675,3, 2, 3, -1, 0, -3, -2, -4
1503614294698,-38, 2, 7, -4, -1, 1, -1, -27
1503614294712,8, -1, -3, -1, 1, 5, 8, 1
1503614294735,-2, 3, 0, 2, 0, -1, 0, -6
1503614294757,-8, 1, -4, 2, -2, -2, -5, -7
1503614294764,-4, 15, 9, 0, 0, -1, -1, -7
1503614294787,8, -1, -3, 3, 3, 3, 4, 7
1503614294803,22, 12, 9, 1, 0, 0, -2, 13
1503614294824,-23, -10, -9, -4, -7, -4, -5, -41
1503614294847,6, 7, 0, -3, -3, 1, 0, -1
1503614294864,20, -14, -11, -5, -4, -2, -1, 28
1503614294884,-7, -7, -6, -5, -3, 1, 0, 3
1503614294907,1, -10, -5, 2, 0, -2, 1, 9
1503614294923,25, 5, 1, 0, 0, 0, -1, -10
1503614294944,-7, 3, 3, 3, 1, -2, 0, -11
1503614294967,-22, -1, 4, -1, -1, -2, -2, 5
1503614294983,1, 23, 14, 1, 0, 0, 2, -8
1503614295005,-2, 12, 3, 4, 4, 0, -4, 1
1503614295027,30, -3, -4, -2, -3, -2, 2, 13
1503614295038,-7, -10, -4, 0, -2, -2, 1, 8
1503614295058,7, -6, -7, -1, 0, -1, 1, 13
1503614295073,12, -11, -1, 1, -3, 1, -2, -3
1503614295088,-15, -9, -5, -1, 0, -1, -1, -9
1503614295103,6, -2, 3, 0, -1, -3, -1, 2
1503614295124,3, 29, 2, -1, -3, -2, -2, -20
1503614295147,-14, -17, -7, -3, -3, -1, -1, 0
1503614295164,-8, -8, -2, -2, -2, -1, 1, 26
1503614295184,7, -4, 3, -1, 0, 0, -1, -12
1503614295207,-5, -2, -3, 0, -1, 0, -2, -6
1503614295223,-8, 3, 0, 1, -2, -1, -6, -8
1503614295244,-8, -8, -1, 1, -1, -1, 0, 2
1503614295267,7, 12, 6, 3, 4, 4, 9, 37
1503614295289,1, 16, 19, 4, 2, 1, -2, -11
1503614295312,14, -14, -9, -5, -1, -2, 1, 19
1503614295327,-4, -5, -1, -2, -2, -3, -5, -16
1503614295342,-10, -6, -8, -2, -1, 0, 0, -9
1503614295366,-5, -4, 2, -3, -2, -3, -3, -7
1503614295387,17, 3, -2, 1, 0, -1, 2, 41
1503614295403,-21, -6, -2, -2, 0, 2, 0, -24
1503614295424,-12, -12, -9, -4, -3, -2, -3, -22
1503614295447,-9, 0, -6, -4, -5, -3, 0, 0
1503614295463,-14, -2, -2, 3, 1, 4, 5, 29
1503614295484,-10, -10, -3, 2, 0, -2, -2, -4
1503614295509,1, -3, -4, -4, -2, 0, 1, -8
1503614295523,15, -2, -5, -3, -1, 0, 1, 43
1503614295545,20, -4, -5, -5, -3, -2, -1, -30
1503614295567,12, 6, 8, 5, 2, 0, 1, -36
1503614295590,-12, 1, 4, 2, -1, -6, -9, -35
1503614295605,-7, -11, -6, -1, -1, 0, -4, -6
1503614295627,1, -3, -5, -2, 0, 2, 1, 7
1503614295650,19, 1, -3, -3, -2, -1, -3, 1
1503614295673,-11, -13, -1, -1, -3, -6, -2, 1
1503614295688,5, 28, 21, 5, 2, -1, 1, 10
1503614295711,-15, -11, -10, -1, 0, -1, -3, -12
1503614295736,4, 1, 4, 4, 2, -1, 0, 0
1503614295748,7, 4, -3, -3, -2, -1, -1, 4
1503614295771,-10, -8, -5, -2, -2, 1, 1, -3
1503614295793,-11, -6, -4, -3, 0, 0, 2, 12
1503614295808,-9, -5, -5, -8, -4, -2, -2, -3
1503614295831,-30, -7, -4, -1, 0, -1, 0, 23
1503614295853,13, -1, -3, -2, -2, -1, 0, 8
1503614295869,24, 17, 10, 3, 3, 0, 2, -3
1503614295891,-4, -5, -1, 4, -1, 0, -3, -6
1503614295913,-18, -8, -7, -3, 0, -3, -3, -8
1503614295928,47, 10, -5, -1, -1, 1, 9, 4
1503614295951,-6, 39, 31, 13, 3, 3, 3, -13
1503614295973,7, -12, -7, 0, -1, -3, -5, -2
1503614295988,4, 20, 6, 3, 0, -4, -2, 2
1503614296011,-8, -11, -5, -2, -2, -1, -2, 1
1503614296035,-2, -14, -11, -5, -2, 2, -1, 5
1503614296048,5, -19, -6, -1, -2, -1, -4, 36
1503614296071,-6, -6, 0, -1, -2, -2, 0, 11
1503614296093,-17, -9, -3, -2, -3, 0, -4, -24
1503614296108,-15, -6, -3, -5, -3, -4, -2, -7
1503614296130,1, 9, -2, -5, -3, -3, 0, 12
1503614296138,-3, -21, -4, 1, -1, -1, -2, -13
1503614296160,2, -25, -10, -2, -4, -1, -4, 7
1503614296175,2, -7, -7, 0, -2, -3, -2, -1
1503614296197,-1, -4, -2, -3, -2, -1, 1, 10
1503614296220,10, 2, 5, 1, 1, -1, -1, 8
1503614296236,-6, -15, -15, -5, -3, -1, -3, -13
1503614296251,6, 1, -3, 5, 3, 0, 0, -10
1503614296273,-20, -13, -8, -3, -3, -1, -5, -24
1503614296289,-5, -2, 0, -1, -1, -2, -5, 5
1503614296312,16, -14, -9, -2, -1, -2, 0, -7
1503614296333,5, 6, 2, 3, 0, 0, -2, -8
1503614296348,-2, -3, -3, -4, -2, 0, 0, -3
1503614296373,9, 12, 1, 3, 1, 0, 3, 10
1503614296378,4, 4, 3, 1, -1, -1, -2, 3
1503614296400,0, -9, -4, 0, 0, -1, 0, -7
1503614296415,4, 3, -1, -1, -4, 0, -4, 0
1503614296438,-12, -23, -16, -7, -4, -3, -3, 1
1503614296460,-8, 1, 5, -1, 2, -2, -2, -7
1503614296475,3, 11, -2, 0, -2, 0, 3, 17
1503614296498,4, 19, 9, -1, -1, 0, 1, 7
1503614296520,-7, -12, -1, -2, -4, -3, 0, -2
1503614296542,0, -3, -4, -1, -2, 0, -3, 0
1503614296558,4, -10, -1, 2, 0, 0, 0, -5
1503614296580,-4, -4, -4, -4, 0, -3, -2, -7
1503614296603,-5, 6, -2, -1, 1, -2, 2, -1
1503614296617,-6, 1, 5, 2, 0, 3, 0, -1
1503614296641,3, 2, 2, 0, -1, 1, -2, -1
1503614296662,2, 0, 3, 1, 0, -1, 2, 16
1503614296677,0, -2, -3, 1, 0, -1, 0, -8
1503614296700,8, 1, -4, -1, 1, 0, 0, -3
1503614296723,1, -2, 0, -1, 0, 1, 0, -1
1503614296739,2, 0, -2, -1, -2, -2, -3, -3
1503614296760,-2, -3, -2, -2, 0, -3, -4, -2
1503614296782,-2, -3, 0, 1, 0, 1, -1, 6
1503614296797,-5, -1, -1, -1, -1, -2, -3, -3
1503614296820,-1, 1, -1, -2, 0, -5, -1, -7
1503614296843,0, 0, 0, 0, -1, 1, 2, 1
1503614296857,-1, 1, -1, -2, -1, 0, -2, -2
1503614296880,3, -4, -6, 2, 0, 0, 1, 6
1503614296888,-2, -1, 0, -1, -1, -1, -1, 0
1503614296910,-3, -2, -2, -2, -2, 0, -2, -3
1503614296917,-2, -6, -5, -1, -1, -2, 1, -3
1503614296941,-4, 0, -1, -1, -1, -1, 0, 4
1503614296962,-3, -5, 5, 0, 0, -1, 0, 2
1503614296977,-6, -8, -12, -6, -2, 0, -3, -7
1503614297000,3, 1, 2, 0, 1, -1, 1, 2
1503614297022,0, -2, 0, 0, 0, -1, -7, -7
1503614297030,-2, -1, -5, -6, -4, -1, 3, 5
1503614297053,-5, -1, 3, 5, 1, 2, -3, -12
1503614297068,1, -2, 6, 4, 1, -3, -2, -15
1503614297090,-4, -13, -13, -7, -1, -2, 1, 2
1503614297113,5, -4, -6, -3, -1, -1, -2, 11
1503614297128,-3, 0, -1, -1, -1, -2, -2, -7
1503614297150,-2, -5, -6, -2, -2, -3, -3, -3
1503614297174,-4, 5, -3, -1, 0, 2, -1, -10
1503614297188,2, -5, -2, -2, -1, 0, -2, 16
1503614297211,0, -3, -1, -1, -3, -2, 0, 2
1503614297232,2, 2, 1, 1, 0, 4, 2, 3
1503614297249,-3, 1, 0, 0, 0, -3, -1, -5
1503614297270,-5, 2, 1, -2, -1, -1, 0, -16
1503614297292,6, 11, 0, 0, -2, 1, 0, 6
1503614297309,-4, -4, -8, -1, 0, -3, -2, -3
1503614297323,-1, 5, 5, -1, -1, 0, 0, -5
1503614297338,7, 2, 9, 1, 0, -2, 2, 30
1503614297360,0, -7, -9, -2, -1, 1, 1, 19
1503614297383,2, 1, -2, 0, -1, 3, 2, 1
1503614297397,0, -2, -3, -1, -1, 0, 0, 0
1503614297420,-5, -6, -4, -1, -1, -2, -1, -9
1503614297443,-8, -5, -5, -2, 1, -1, -5, -18
1503614297465,2, 5, 2, -2, 0, -1, -2, -15
1503614297480,6, 3, -5, -2, -4, -4, 0, 8
1503614297503,-8, -8, -4, -3, -1, 1, -4, -14
1503614297525,5, 12, 1, 0, 0, 0, -1, 15
1503614297543,3, 5, 13, 6, 0, -1, -1, -4
1503614297562,2, 6, -1, -2, 0, 0, -1, -2
1503614297571,-3, -17, -8, -5, -2, -2, -4, -7
1503614297593,0, 0, -4, -1, -1, 1, 1, 4
1503614297615,5, 2, 3, 1, 0, -1, 3, 20
1503614297631,-4, 0, 2, -1, -2, -3, -3, -25
1503614297653,-4, 3, 3, -1, -3, -1, 1, -10
1503614297677,1, 7, 7, 2, 0, 1, 1, -12
1503614297691,2, 11, 2, 0, 0, -3, -2, -4
1503614297713,2, -9, -6, -1, 0, -3, -3, 5
1503614297735,-5, -7, -7, -3, -1, 3, 1, 11
1503614297752,2, 7, 7, 5, 0, 0, -1, 3
1503614297773,-3, -10, -7, -5, -2, -2, -4, -4
1503614297795,8, 7, 7, 3, 1, -1, -1, 13
1503614297811,8, -5, -2, -2, -1, 1, 5, 32
1503614297825,-1, 1, 5, -2, 1, -1, 0, 2
1503614297841,-1, -6, -6, 0, -1, 0, 1, 10
1503614297862,1, 0, -2, 1, -1, 1, 1, 8
1503614297885,5, 11, 13, 2, 0, -2, 1, 10
1503614297900,-3, -6, -7, -4, -1, -1, -4, 1
1503614297923,5, -1, 2, 0, -1, -4, 2, 8
1503614297945,0, -3, 1, -1, -1, 1, 1, 3
1503614297953,-3, -5, -2, -3, -2, -2, 0, 2
1503614297975,-1, 1, -2, 0, -1, -1, -2, -11
1503614297990,-3, 2, 0, -2, -1, -2, -1, -13
1503614298013,1, -5, 0, 1, 2, 2, 0, -6
1503614298035,-3, 2, 3, 0, 1, 0, -1, -11
1503614298052,3, 1, 3, 3, -1, -1, 3, 4
1503614298073,1, 5, 0, -2, -2, -2, -2, -6
1503614298095,0, -4, -3, 0, 2, 1, 0, 6
1503614298112,-2, 9, 13, 3, -1, -1, 0, 6
1503614298133,-5, -7, -12, -4, -1, -4, 0, 24
1503614298155,1, 5, 11, 0, 3, 1, 1, -9
1503614298170,3, 0, -4, -1, 0, 1, 1, 6
1503614298193,2, 4, 3, 1, -2, 0, -1, -4
1503614298216,-4, -8, -14, -2, -1, 1, -2, -6
1503614298230,2, -1, 0, -4, -1, -3, 1, 1
1503614298253,-4, 0, 1, 3, -1, 2, -3, -11
1503614298275,1, -2, -4, 0, 1, 0, -1, 1
1503614298291,2, 3, 15, 5, 1, 0, 0, 2
1503614298313,0, -7, -9, -4, -3, 0, -1, 12
1503614298335,-3, 4, 0, -1, -1, -2, 0, -1
1503614298357,-1, -2, 0, -1, -1, -4, 0, -9
1503614298373,-1, -9, -9, -3, -2, 0, 0, 3
1503614298395,4, -9, -12, -8, -4, -4, -2, 3
1503614298418,-1, 0, 3, 4, 1, -1, -1, -6
1503614298433,-1, 12, 11, 2, 0, 1, 1, -4
1503614298456,2, 3, -2, -2, -3, -1, -1, 0
1503614298477,13, 7, -4, -4, -1, -2, -1, 13
1503614298493,-3, -4, -2, 1, 0, 1, -3, -10
1503614298515,-4, -7, -4, 0, 1, -2, 0, 7
1503614298538,-4, -3, -1, -1, -1, -1, -1, -6
1503614298555,-5, -6, -6, -3, 2, 2, 1, -11
1503614298575,2, 8, 3, 2, -2, -3, -4, -6
1503614298597,-2, -3, -4, 0, 0, -2, -3, -18
1503614298605,1, 7, 3, -1, 0, -1, -1, -20
1503614298627,-1, 1, 4, 0, 2, 0, 2, -6
1503614298643,-5, -9, -8, -2, -2, -1, -4, -12
1503614298665,4, 8, 5, 0, 1, 3, 8, 17
1503614298687,0, -3, -3, 1, -2, -3, -3, 2
1503614298703,3, 2, -1, 2, 0, 0, -3, 2
1503614298725,2, -1, 2, -1, -1, -2, -1, -7
1503614298753,-1, -10, -10, -4, -1, 1, -4, -3
1503614298763,-4, 6, 7, 2, -2, -2, -1, 1
1503614298791,9, 6, 12, 4, 2, 3, 6, 29
1503614298807,-3, -9, -7, -4, 1, 0, 0, 6
1503614298822,7, 23, 5, 0, -1, 1, 2, 11
1503614298845,-12, -5, -3, -1, -1, -2, 1, 6
1503614298867,10, -6, -8, -2, -2, -2, -3, -4
1503614298883,1, 1, 5, 0, 0, -1, -4, -11
1503614298911,-7, -2, -4, -3, -1, -2, -2, -14
1503614298914,-7, 7, -6, -4, -2, 0, -1, -9
1503614298935,17, 3, 4, 1, 0, -1, -3, 2
1503614298958,-1, -9, -5, -3, -1, 0, 1, 4
1503614298973,-5, -7, -6, -6, -3, -6, -3, -16
1503614298995,5, 0, 1, 3, 2, 1, 0, 40
1503614299018,6, -4, -1, -1, 0, 0, 3, 9
1503614299033,-17, -4, -1, -4, -1, 2, -1, -3
1503614299055,0, 5, 8, 3, -1, -1, -1, -20
1503614299077,-3, -6, -8, -5, -3, -1, -3, -10
1503614299093,-7, 6, -1, 1, 1, 1, -6, -34
1503614299115,-4, -4, -1, -1, -1, -1, 4, 5
1503614299152,8, 10, 1, 1, 2, 3, 1, 9
1503614299167,-4, 12, 10, 0, -2, 0, -7, -11
1503614299184,6, -15, -9, 0, -1, 0, 3, 2
1503614299205,7, 1, -4, -6, -5, -1, -1, 8
1503614299227,25, 3, -1, -1, 1, 1, 8, 53
1503614299242,-3, -2, -9, 0, -1, -2, 0, -22
1503614299265,-6, -11, 0, 0, -1, 0, -2, -15
1503614299288,-8, 3, 1, 2, -1, -1, -4, -11
1503614299309,-5, -1, 3, 1, 0, -1, 1, -21
1503614299325,-12, -6, -4, -2, 0, -2, -7, -30
1503614299347,-1, 6, 8, 1, -5, -2, -3, 4
1503614299369,1, 9, 3, -1, 1, 2, -1, -4
1503614299386,-7, -22, -12, -8, -6, -4, -1, -1
1503614299407,5, 2, -1, -1, -1, -3, -3, 3
1503614299429,-5, 3, 2, 0, 0, -4, -1, 1
1503614299445,2, 1, -2, 1, 0, -1, -1, 0
1503614299467,7, -17, -12, -2, -1, 0, -1, 7
1503614299489,9, 12, 0, -3, -4, -2, -1, -4
1503614299505,0, -2, 6, 1, 0, 0, 2, -7
1503614299528,-4, -7, -3, -2, -1, 1, -2, -6
1503614299549,-19, 2, 3, 4, -1, -3, -1, 7
1503614299565,18, 6, 5, 1, 0, 1, 1, 20
1503614299587,-7, -6, -1, -1, 1, -1, -1, -8
1503614299609,-3, 0, 1, -2, 1, -1, -2, -3
1503614299625,13, 10, 3, -2, -1, -1, 1, -1
1503614299647,-19, -6, 3, 1, -1, -3, -3, -18
1503614299669,-48, -6, -7, -3, 1, 0, -2, -26
1503614299687,4, -13, -6, 0, 2, 1, 0, -16
1503614299707,17, 5, 1, -1, -10, -5, -2, 5
1503614299729,1, 10, 2, -4, 1, 0, -1, 10
1503614299745,-13, -11, -9, -3, -5, -2, -1, 4
1503614299767,10, -2, -2, 3, 5, 3, 0, 4
1503614299789,33, 33, 15, 4, 2, 0, -4, 5
1503614299805,-2, -14, -6, 2, 2, -1, 0, 2
1503614299822,-18, 6, 12, 3, -1, -3, -1, -9
1503614299835,-27, 0, 9, 2, -3, -2, -4, 3
1503614299858,-13, -18, -10, -3, -1, -2, 0, -10
1503614299880,36, 17, 5, 3, 2, 1, 1, -1
1503614299889,-4, -9, -10, -8, -4, 0, -2, -8
1503614299909,6, 5, 2, 2, 2, 1, 3, 12
1503614299925,36, 1, 0, 1, -1, 2, 4, 28
1503614299947,10, 0, -3, 3, 4, 1, 2, 12
1503614299956,-5, -11, -5, 0, 1, -1, -4, -8
1503614299977,-16, 0, 3, 0, 0, -2, -7, -47
1503614300000,22, -9, -3, -2, 1, 1, -3, 8
1503614300015,2, 1, -1, 2, 2, -3, 3, 14
1503614300037,-19, -5, -9, -2, -3, -1, -3, 12
1503614300060,31, 2, -5, -5, -5, -1, 3, 37
1503614300075,-17, -15, -3, -3, -1, -1, -4, -3
1503614300098,-1, -5, -1, -1, -2, -3, -2, -6
1503614300120,-3, 35, 26, 7, 1, 1, 2, -5
1503614300135,9, 0, 0, 1, 1, 2, -1, 2
1503614300158,-3, 3, 9, 2, 1, -2, -2, -9
1503614300180,4, -2, -3, 1, -1, -3, 0, 2
1503614300195,4, -4, 5, 2, 1, 0, 0, -6
1503614300218,0, -5, -8, -3, -2, 0, -1, -3
1503614300240,-8, 12, 10, 3, 0, 1, -2, -17
1503614300263,-3, -15, -9, -3, 0, -2, -3, 1
1503614300277,-17, -7, -9, -5, -3, -4, -2, 1
1503614300300,15, 6, 0, 2, 0, -1, 1, 27
1503614300324,-4, -8, -4, -3, -4, 1, 2, 7
1503614300337,-15, -12, -6, -3, -2, 1, 5, 4
1503614300360,-2, -3, -7, -3, -3, 0, -3, -10
1503614300382,15, 3, -1, 0, -2, -2, -1, -3
1503614300399,-7, -7, -1, -4, -2, -1, -1, -4
1503614300420,-2, -4, -4, -3, 1, -1, -2, -4
1503614300442,7, 2, -4, -3, -5, -1, -2, -3
1503614300458,10, 15, 11, 1, 1, -1, 6, 21
1503614300480,5, -10, -5, 0, 0, -1, 0, 1
1503614300503,-23, -1, -3, 0, 0, -5, -6, -21
1503614300517,3, -3, -3, -2, 1, 0, -3, 0
1503614300540,14, 10, 5, 3, 1, 2, 0, -3
1503614300563,-7, -22, -10, -2, -2, -3, -4, -9
1503614300577,25, 8, 5, 1, 0, 0, 0, 2
1503614300600,-12, -2, -7, -7, -3, -3, -2, 0
1503614300623,4, 18, 6, 2, 0, 0, -3, -1
1503614300638,-9, -14, -6, -1, -2, 0, 2, 9
1503614300660,27, 3, -3, -3, -1, 0, 0, 1
1503614300682,-9, -6, 2, 0, 0, -2, 2, 3
1503614300698,1, 24, 18, 10, 2, 3, 4, 17
1503614300720,-4, 9, 1, -2, -2, -3, -3, -6
1503614300743,-26, -10, -8, -5, -3, 0, -4, -10
1503614300760,-13, -10, -4, 0, -1, -2, -3, -4
1503614300780,25, 4, 1, 2, 1, -1, -2, -9
1503614300796,10, 6, 3, 2, 1, -5, -4, -8
1503614300810,-5, -4, -3, -5, -2, -2, -1, -7
1503614300818,-3, -8, -1, 2, -2, 0, -1, -3
1503614300834,8, -6, -1, 2, 1, -4, -3, -3
1503614300855,-8, 0, 2, -3, -2, -4, 0, -6
1503614300870,-1, 5, -1, -1, -1, 0, 1, 9
1503614300894,-52, 0, -2, -2, -2, -1, -3, -11
1503614300915,-2, -5, 2, 3, -1, 0, -1, 0
1503614300931,26, 19, 9, 3, 0, 1, 10, 46
1503614300953,21, -14, -12, -4, -2, -3, -5, 8
1503614300975,-6, -10, -6, -2, 0, 0, -2, -8
1503614300990,-3, -4, -5, -2, 0, 2, 1, -2
1503614301013,3, -4, -4, -2, -2, -4, -2, -13
1503614301035,-4, 10, -6, -1, -1, -1, -4, 10
1503614301050,5, -14, -3, -3, 1, -1, -3, 2
1503614301073,-4, 16, 16, 2, -1, -2, 4, 11
1503614301096,0, -2, -1, 0, -2, -1, 5, 19
1503614301110,5, 16, 14, 1, 0, 3, -2, -13
1503614301133,-16, -9, -7, -5, -2, -1, -9, -33
1503614301155,-6, 1, 0, 1, 0, -2, -8, -41
1503614301170,-2, 1, -1, 0, -2, -2, 3, 10
1503614301194,16, 18, 6, 2, 4, 4, 2, -25
1503614301215,-11, -14, -4, 2, -3, 0, -1, -3
1503614301231,-13, -10, -3, -1, 0, -1, -2, -17
1503614301253,18, 1, -4, -3, -1, 0, 1, 19
1503614301275,-1, -4, -4, -2, 0, -4, -3, -4
1503614301290,27, 35, 14, 1, 0, -1, -1, 19
1503614301313,-12, -11, -6, -3, -2, 0, 5, -2
1503614301336,-5, -15, -6, 1, 0, -3, -6, -11
1503614301350,-15, -7, -5, -4, -2, 0, 2, -1
1503614301373,3, -5, -2, 1, 1, 1, 0, -2
1503614301396,6, -4, 1, 0, -3, -1, 1, 5
1503614301410,-7, -4, -1, -2, 1, -2, -6, 2
1503614301433,10, -2, -3, 0, -1, 2, 7, 17
1503614301455,-4, 11, 6, -2, -1, -4, 1, -2
1503614301471,-12, -4, -1, -3, -5, -4, -1, -4
1503614301493,-23, -8, -7, -3, -3, -2, -5, -18
1503614301515,9, 3, 5, 2, 3, 2, 10, 59
1503614301530,8, -4, -6, 2, 1, 3, -1, -5
1503614301553,-4, -5, -6, -1, -1, -3, -3, 9
1503614301575,-7, -5, -1, 0, -1, 0, -7, -49
1503614301590,-1, 10, 5, 4, -1, -1, 0, -24
1503614301613,18, -2, 0, -2, -4, 1, -2, 9
1503614301636,1, 7, -3, -1, 0, 1, 0, -5
1503614301650,-5, 1, -1, 0, 0, -2, 0, 5
1503614301680,4, 13, 6, 0, -1, 0, 2, 11
1503614301697,-8, -12, -7, -5, -2, 0, 9, -14
1503614301710,-23, -14, -6, -1, -2, -3, -5, -7
1503614301734,49, 29, 11, 2, 0, 2, -1, 7
1503614301755,-7, -8, -4, -4, -3, -4, -3, -7
1503614301770,-3, 5, 5, 2, 1, 1, -4, 21
1503614301793,-1, -7, -4, 3, 0, 0, -2, -34
1503614301815,-20, -32, -7, 0, -3, -3, -5, -22
1503614301831,-7, 15, 19, 5, 3, 1, 0, 9
1503614301853,-4, -9, -16, -6, -4, -2, 0, 27
1503614301876,-2, -10, -7, -4, -1, -3, 1, 30
1503614301891,7, -3, -10, -5, -2, -2, 2, 28
1503614301913,-5, 4, 6, 0, -2, -1, -5, -13
1503614301936,26, -4, -12, 0, -1, 1, 4, 1
1503614301950,-10, -8, -8, -4, -1, -1, 1, 21
1503614301974,2, 4, -9, 0, 1, -2, 0, -9
1503614301980,4, -25, -17, -6, -3, 0, -3, 7
1503614302003,-11, 1, -2, -1, -1, -1, -1, -2
1503614302033,13, 18, 11, 5, 2, 3, 2, 20
1503614302041,-1, -1, 0, -3, -3, -3, -1, 8
1503614302062,0, -2, -4, 1, 0, 1, 2, 1
1503614302085,1, 1, 1, -1, -1, -1, 0, 1
1503614302108,4, 1, -4, 1, 0, -2, 2, 6
1503614302122,-1, -4, 3, -1, 1, 0, -1, 0
1503614302145,-3, -2, -3, -2, -3, -1, 0, 4
1503614302168,1, -3, -1, -2, -2, 1, 0, 6
1503614302182,-1, -2, 0, -1, -2, 0, -1, -9
1503614302205,-4, -6, -3, 0, 0, -1, -2, -6
1503614302227,1, 7, -6, -1, 0, -1, -2, 5
1503614302242,-6, -17, -13, -4, -2, -1, -2, -9
1503614302266,-2, -1, 2, 0, -1, -1, 1, 3
1503614302287,-2, 6, 3, -1, -1, -1, -3, -10
1503614302303,-1, 4, 5, 4, 2, 2, 0, 2
1503614302325,8, 19, 15, 3, 0, -1, 1, -1
1503614302347,10, -5, -2, -2, 0, -3, -1, 0
1503614302362,-2, -2, -3, -1, -1, 0, -1, 3
1503614302385,-1, 10, 5, 0, 0, -1, -1, -2
1503614302407,-4, 0, 2, 0, -2, -1, -1, -2
1503614302422,0, -6, -1, -1, 1, 0, -1, -1
1503614302445,-5, -4, -10, -4, 0, -2, -1, -2
1503614302468,1, 1, 2, 0, -2, 0, -1, 0
1503614302482,-4, -2, 2, 0, 0, 0, -3, -5
1503614302505,-5, -4, 1, 2, -1, -1, 1, 0
1503614302527,-4, -4, 0, -3, -2, -1, 1, 6
1503614302543,0, 1, 0, -1, -3, -1, -4, -5
1503614302565,3, 3, 7, 0, 1, -2, 1, 7
1503614302587,3, -2, -9, -3, -1, -1, -3, -1
1503614302602,-3, -4, -6, -3, -2, -1, 0, 2
1503614302625,-2, 8, -2, -1, -1, 0, -2, -5
1503614302647,4, -8, -7, -2, -1, -3, 0, -2
1503614302662,-1, -8, -5, 0, -1, 2, -2, -5
1503614302685,-2, 7, 9, 1, -1, 2, 2, -5
1503614302707,4, -9, -7, -2, 1, -1, 0, 11
1503614302722,-3, 1, -1, 1, 0, -2, -5, -5
1503614302745,1, 8, 6, 5, 2, 1, 0, -6
1503614302769,-3, -7, -9, -6, -2, -2, -2, 3
1503614302782,-4, -4, -5, -3, -2, 2, -3, 0
1503614302806,4, 8, 13, 2, 0, -1, 1, 8
1503614302827,-13, -3, -2, -3, -3, -4, -3, -8
1503614302843,-7, 8, 8, 2, -1, 2, 0, -4
1503614302865,4, -12, -10, -3, 0, -2, 0, 2
1503614302888,-1, -3, -5, -4, -1, 0, -1, -2
1503614302903,0, 0, -3, -2, 0, -2, 1, -2
1503614302925,-3, -3, -2, -1, -1, 0, -1, 10
1503614302947,-3, 8, 2, -2, -1, -2, -1, -6
1503614302963,7, 0, -3, -1, -2, -1, -1, 20
1503614302985,-3, -6, -3, 1, 0, -2, 1, -8
1503614303008,-3, -2, 0, 0, -2, -1, -2, -8
1503614303029,5, 4, 8, 1, 0, 1, 1, 3
1503614303046,2, 7, -1, 0, 0, 1, 0, -7
1503614303068,-9, -6, -3, -1, -1, -4, -5, -10
1503614303089,6, 2, 7, 3, 1, -1, 3, 1
1503614303105,4, -1, -5, -2, 0, 0, -2, -5
1503614303127,0, -8, -6, -1, 1, -2, -2, 5
1503614303149,-3, -2, 0, -1, -1, -1, -1, -5
1503614303165,0, -2, -4, -2, -2, 1, -1, 2
1503614303187,-1, -5, -6, -1, 1, 0, 0, -8
1503614303209,0, 0, 10, 2, 0, 1, -3, -2
1503614303225,7, -2, -4, -4, 0, -2, -4, 2
1503614303247,0, 1, -4, -1, -1, -3, 1, 2
1503614303270,-2, 2, 3, 0, 0, 0, -1, -3
1503614303285,4, -2, 1, -1, 0, -1, 1, 5
1503614303308,-4, -2, -5, -1, -2, 1, -1, -4
1503614303329,0, 0, -1, 2, -2, -2, 2, 4
1503614303345,-2, -2, -4, -3, 0, -3, -1, -1
1503614303368,-6, 0, 1, 0, -1, 1, -1, -3
1503614303389,3, -1, -1, -4, -2, 1, 0, 6
1503614303406,-4, -1, 0, -1, -1, 0, -2, -1
1503614303427,-10, -10, -7, -3, -1, -2, -2, -5
1503614303449,-3, 0, 2, -1, -2, -2, -2, 0
1503614303465,2, -1, -3, 1, -1, 2, 2, 10
1503614303487,1, 2, 1, 0, 0, -2, -3, -3
1503614303509,-3, -5, -7, -1, 0, -1, 0, -3
1503614303525,0, 6, -3, 0, 0, 0, 0, -2
1503614303548,0, -4, -4, -1, 0, -1, 0, 1
1503614303569,-3, 2, 4, -1, -1, -2, -3, -5
1503614303585,-2, 3, 3, 2, 0, -2, -1, -6
1503614303607,-2, 0, -4, -3, -1, -2, 0, -1
1503614303615,1, 5, 1, 1, 0, 2, 0, 2
1503614303637,3, -1, -3, -2, 0, -4, -2, -4
1503614303660,-3, 0, 0, -3, -2, -1, -1, -2
1503614303675,-6, -4, 2, 1, 0, 1, 1, 0
1503614303698,-1, 1, -3, -1, -1, 2, 0, 1
1503614303720,-3, 0, -1, -1, -1, -4, 0, -2
1503614303735,-1, 0, 2, 1, -2, -1, -1, 1
1503614303757,-1, -1, -1, 0, 0, 2, 0, -2
1503614303780,-2, -4, 0, -1, -1, -2, -2, 0
1503614303795,0, -2, -4, -1, -1, -3, -2, -5
1503614303818,3, -2, -1, -3, -1, 0, 1, 1
1503614303841,1, -5, -3, 1, -1, 0, -2, 1
1503614303855,6, 5, -6, -2, -2, -1, 0, 1
1503614303878,-3, -3, 2, 1, 1, 0, 0, 1
1503614303900,-2, -3, -2, -2, -3, -1, -1, 3
1503614303915,2, 2, -4, -1, -1, -1, 1, -2
1503614303938,-7, -1, -1, -3, -1, 2, -3, -5
1503614303952,-7, -4, 3, 0, 0, -1, 0, -1
1503614303968,-1, -4, -3, -2, 0, 1, 2, 5
1503614303989,2, -2, -1, 0, 1, -3, 0, -4
1503614303998,-1, -3, 3, -2, -1, -1, 0, -1
1503614304020,-6, -3, -3, -1, -1, 0, -1, 8
1503614304042,-7, 2, -6, -1, 2, 1, 1, -23
1503614304058,-1, -8, -8, -1, -2, -1, -4, 0
1503614304080,-6, -8, -4, -3, -4, -5, -2, 0
1503614304102,15, 3, -3, -2, -2, -2, 3, 21
1503614304118,-3, -2, -1, -1, 0, -3, -3, -5
1503614304140,-1, -2, 1, -1, -3, -1, -2, 1
1503614304162,1, -4, -4, -1, 0, -3, 0, -9
1503614304178,-2, -10, -10, -1, 1, 2, -1, -7
1503614304199,0, -1, 0, 1, 0, -1, -2, 2
1503614304222,-5, 0, -1, -1, -1, -1, -3, -15
1503614304238,-3, -1, 2, 1, 1, 1, 1, -1
1503614304260,4, 17, 7, 2, 1, 3, 2, 4
1503614304282,3, -4, -4, -2, -2, -1, 0, 5
1503614304297,-1, -1, 0, 0, -1, -3, -2, 3
1503614304320,-4, -7, -6, -4, -3, -1, -2, -4
1503614304344,-1, -2, -6, -4, -4, 0, -3, -6
1503614304357,7, 7, 6, 1, 0, -1, 2, 13
1503614304387,-5, 3, 2, 0, 0, -2, -3, -7
1503614304402,1, 2, 1, 0, 0, 1, -1, -1
1503614304418,-5, -7, -3, 1, 0, 0, -2, -1
1503614304440,0, -5, 0, -2, -1, 0, 1, 8
1503614304462,-3, -5, -4, -2, -1, -1, -3, -5
1503614304478,4, -1, -3, -2, -2, -2, 0, 5
1503614304500,3, 0, 1, 1, -3, 0, 0, 8
1503614304522,-3, -3, -2, 0, 0, -1, -1, 4
1503614304545,-6, 1, 4, 1, -2, 0, 0, -6
1503614304559,-3, -4, -3, 1, -1, -1, -1, -6
1503614304582,-3, -1, -4, -3, -2, -2, -2, -6
1503614304597,1, 9, 8, 0, 3, -3, 2, -4
