1503510449719,-1, -2, -1, -3, -2, -1, 2, 0, 0
1503510449741,-3, 0, 0, -1, -2, -1, -1, -1, 0
1503510449756,0, -3, -3, 0, 0, 0, -4, -2, 0
1503510449781,1, 0, -1, -1, -1, -4, -6, -1, 0
1503510449803,-1, 0, 0, -1, -1, 2, 0, 1, 0
1503510449830,1, 0, -1, 1, 0, 0, 3, -1, 0
1503510449838,0, 1, 0, -1, -2, 1, 1, -1, 0
1503510449861,0, 1, -2, -1, 0, -4, 2, -2, 0
1503510449883,-1, -2, -2, -1, 0, -4, -8, 0, 0
1503510449898,-2, -1, 0, -2, 1, 2, 3, 1, 0
1503510449921,3, -1, -1, -1, -1, 2, -1, -1, 0
1503510449944,-2, 1, 0, -3, -1, 1, 0, 0, 0
1503510449958,-1, -1, 0, 1, -2, -3, 0, -2, 0
1503510449981,1, -3, -3, -1, 1, 3, 1, -2, 0
1503510450002,-2, -1, -1, 0, -2, -1, 1, 0, 0
1503510450018,0, 0, -2, 0, -2, -1, -1, 0, 0
1503510450043,-2, -2, -1, 1, -1, -1, -3, -1, 0
1503510450063,-2, 1, -2, -1, 1, -4, 2, 0, 0
1503510450078,1, -1, 0, -1, -3, -7, -8, -1, 0
1503510450100,0, -1, -1, -2, 1, 2, 2, -1, 0
1503510450123,-1, -1, 1, -1, -2, 1, -1, 1, 0
1503510450138,0, -1, 0, 0, 0, -3, 0, -1, 0
1503510450161,-1, -1, -1, -2, -3, 4, 0, -2, 0
1503510450183,-1, 0, -2, 1, 0, 4, 4, -1, 0
1503510450198,-3, -2, -1, -1, -1, 0, 0, -1, 0
1503510450221,0, -2, -1, -3, 1, -2, 1, -2, 0
1503510450245,0, -1, 1, -2, -1, -2, -5, 0, 0
1503510450258,0, -1, -1, -1, 1, 2, 1, 0, 0
1503510450281,1, -1, -1, 0, -1, -4, -1, -2, 0
1503510450303,0, 0, 0, -1, -2, -2, -2, -1, 0
1503510450319,1, -1, -1, -1, 0, -1, 2, 0, 0
1503510450341,-2, 0, -2, -1, -1, 0, -2, 0, 0
1503510450363,-3, -3, 0, -1, -2, -1, -1, -2, 0
1503510450379,0, -1, -2, 0, 0, 3, 3, -2, 0
1503510450400,1, 0, 1, -1, 0, -6, -4, 0, 0
1503510450423,-1, -2, -2, 0, -1, 3, 0, 0, 0
1503510450438,-1, -1, -2, 0, 1, 2, -1, 0, 0
1503510450460,0, 1, 1, -1, -1, -5, -3, -2, 0
1503510450483,-2, -1, -1, 0, -2, 1, -2, -1, 0
1503510450498,-2, 0, -1, -3, -1, 1, -1, -1, 0
1503510450521,0, -1, -1, -2, 2, -3, 0, 1, 0
1503510450529,0, 0, -2, 0, 0, 2, 0, 0, 0
1503510450551,-1, 0, 1, 0, -2, 2, -2, 1, 0
1503510450573,-1, -1, -1, 0, 2, 2, -2, 0, 0
1503510450589,-2, -3, -2, -1, -1, -1, 1, -1, 0
1503510450611,0, -1, 0, 2, -2, -3, 1, 0, 0
1503510450633,-2, -4, -2, -3, -1, -2, -2, -1, 0
1503510450651,3, 0, -1, 0, -1, -6, -2, -1, 0
1503510450671,1, 0, 0, -1, 1, 5, 0, 0, 0
1503510450693,1, 1, -1, -2, -1, -2, -1, -1, 0
1503510450709,-1, -1, -3, -1, -3, -1, -1, -2, 0
1503510450731,0, 0, 0, -1, 1, -2, -2, -1, 0
1503510450755,-1, -2, 1, 1, 0, -3, -1, 1, 0
1503510450776,-3, 0, 1, -1, -2, -1, 1, -1, 0
1503510450791,-1, -1, 0, 0, 1, 0, -1, -1, 0
1503510450814,-1, 0, -3, -2, 0, -1, -1, -2, 0
1503510450836,-3, -3, -1, -1, 0, 4, 1, -2, 0
1503510450852,-2, 0, -3, -2, -1, -4, -5, -1, 0
1503510450873,1, -2, -1, 0, 0, -1, -2, -1, 0
1503510450896,-1, 0, 0, -1, -2, -10, -2, 2, 0
1503510450911,-2, -2, 1, -2, -1, -2, 0, -2, 0
1503510450933,1, -2, 1, 0, 0, 1, -1, -1, 0
1503510450956,-3, 0, 0, 0, -3, -14, -14, -5, 0
1503510450971,2, -1, -2, 1, -1, 2, 6, 0, 0
1503510450993,0, 1, -2, -2, 0, 7, 2, 2, 0
1503510451017,-1, -2, 0, -2, 0, 2, 2, 0, 0
1503510451024,-1, -1, -1, -1, 0, -1, -1, -1, 0
1503510451045,0, 0, -1, 0, -3, -5, 0, -3, 0
1503510451060,-1, -1, 0, -1, 0, 3, -2, -2, 0
1503510451084,1, 0, 0, -1, -2, -5, -1, -1, 0
1503510451105,-1, 0, -1, 1, -2, -2, 0, 1, 0
1503510451121,-1, -1, -2, 1, -2, -4, -1, -1, 0
1503510451144,0, -1, 1, -1, 0, -3, -2, -2, 0
1503510451165,-1, -1, -2, 0, -2, -1, -1, 0, 0
1503510451181,0, -3, -1, -3, 0, 3, 1, -1, 0
1503510451196,-2, -1, -2, 0, -2, -1, -2, -3, 0
1503510451211,-2, 0, -2, -2, -1, -2, 0, 0, 0
1503510451233,1, 0, -2, -1, -3, 0, 1, -1, 0
1503510451256,0, -2, -2, 0, 0, -7, -3, 0, 0
1503510451271,0, 0, 0, -1, 0, 4, 0, 1, 0
1503510451294,-1, -2, -2, 0, 0, -1, -3, -1, 0
1503510451316,1, 2, 0, 0, -2, -5, -4, 0, 0
1503510451331,0, -3, 0, -1, 0, -2, -1, -1, 0
1503510451353,-2, -2, -1, -1, 0, 4, 4, -1, 0
1503510451376,-3, 0, -1, -1, -2, -1, 0, -2, 0
1503510451391,-1, 1, -2, -1, 0, 0, -2, -2, 0
1503510451413,-1, -2, 0, 0, 2, 5, 1, 0, 0
1503510451436,-3, 0, 0, -2, -3, -5, -3, 0, 0
1503510451454,1, -1, -2, -1, -2, 0, -2, -1, 0
1503510451473,-2, -2, -1, -2, 0, -5, 1, 0, 0
1503510451497,-1, 0, -1, 1, -2, 3, 3, -1, 0
1503510451511,-1, 1, -1, 0, -2, -1, -3, 0, 0
1503510451533,1, -2, -1, 0, 0, 1, 1, -3, 0
1503510451556,0, -1, -1, -2, -1, 1, 0, 0, 0
1503510451571,-2, -1, 1, -1, -2, -13, -11, -2, 0
1503510451593,0, -3, 1, -2, -1, 0, 2, 0, 0
1503510451615,-1, 0, 0, 0, -1, -2, 3, -2, 0
1503510451631,2, -2, -2, -1, 1, 5, -2, 0, 0
1503510451654,-2, 0, 1, -1, -1, 2, -1, 0, 0
1503510451675,0, -2, -2, 1, 0, 2, 0, 0, 0
1503510451698,-2, -2, -2, 0, 1, -2, 0, -2, 0
1503510451713,2, 1, 0, 1, -1, 3, 1, -1, 0
1503510451735,1, 0, -1, -2, -1, -2, -2, -1, 0
1503510451758,-1, 0, -1, -2, 0, -1, -2, 0, 0
1503510451773,-2, -2, 0, 1, -2, 0, -1, -1, 0
1503510451796,-1, -2, -1, 0, -1, -8, -10, -2, 0
1503510451818,-1, -1, -2, -2, -2, -1, 3, 0, 0
1503510451833,-1, -3, 0, -2, 3, 3, 2, 0, 0
1503510451856,-2, -2, 0, 0, -4, 0, 0, -1, 0
1503510451878,-1, 1, 0, 0, 1, 3, 2, 0, 0
1503510451893,-1, 0, -1, -2, -1, -2, -2, -1, 0
1503510451915,1, -1, 0, 1, 1, 1, 2, 1, 0
1503510451938,1, 0, -2, -4, -1, -4, 0, -1, 0
1503510451953,-3, -1, -1, 0, -2, -1, -2, -1, 0
1503510451975,-1, -1, -1, -2, -1, -1, -1, -1, 0
1503510451998,0, 0, -1, 1, 0, -2, 0, -1, 0
1503510452005,0, -2, -2, -1, 0, 6, 3, 0, 0
1503510452027,-3, -1, 0, 0, -1, -1, -2, 0, 0
1503510452043,-1, -1, 0, -2, -1, 2, -1, 1, 0
1503510452065,1, 0, 0, 1, 0, -3, -3, -2, 0
1503510452087,0, -1, -3, -1, -2, -2, -3, -2, 0
1503510452103,-1, -1, 0, -2, 0, -3, 0, 0, 0
1503510452125,0, -1, -1, -1, -1, 2, 0, -1, 0
1503510452148,-1, 0, -2, -1, 0, 0, 0, -1, 0
1503510452163,-1, -1, -1, -2, -3, -5, -5, 1, 0
1503510452185,1, -1, 0, 0, -2, 0, 1, -1, 0
1503510452207,-2, -1, 1, 1, -1, -2, 0, -1, 0
1503510452224,-3, -1, -2, -1, 1, 0, -1, -1, 0
1503510452245,-2, 0, 0, 1, -2, 1, 0, -1, 0
1503510452268,0, -1, -2, -1, -1, -7, -3, -2, 0
1503510452283,-1, 0, -2, -3, -2, 7, 3, 0, 0
1503510452305,-3, -1, -2, 0, 0, 2, -2, 0, 0
1503510452328,1, 0, 0, 2, -1, -4, -4, -2, 0
1503510452343,0, -1, -1, -1, -1, -2, -1, 1, 0
1503510452365,-1, 0, -3, 1, 0, 0, 5, 0, 0
1503510452387,-1, -1, -1, -1, -1, 1, 0, 0, 0
1503510452403,0, -1, 2, 1, 0, 0, -4, 0, 0
1503510452428,0, -1, -3, -2, 0, -1, -1, -2, 0
1503510452447,-2, 0, 0, 0, -2, -2, 0, 0, 0
1503510452463,-3, 1, 0, 0, -2, -2, 0, -1, 0
1503510452485,0, -2, -1, -1, 1, -1, -1, 1, 0
1503510452507,-1, -1, -2, -3, -1, 1, -1, 0, 0
1503510452523,3, -1, -2, 0, 0, -3, -1, -1, 0
1503510452545,-1, 15, 10, 1, 0, 0, -1, -1, 0
1503510452567,-5, -26, -13, -4, -3, 1, -1, -2, 0
1503510452583,-12, -17, -5, 0, -1, -2, -1, -4, 0
1503510452605,25, 4, 13, 1, -1, 0, 3, 25, 0
1503510452629,-24, -34, -18, -3, -1, 0, 0, 0, 0
1503510452650,15, 17, 1, -1, -2, -2, 0, -1, 0
1503510452665,-9, 14, 15, 2, 0, 0, 1, 3, 0
1503510452680,-27, 28, 4, 0, -2, -1, 0, -1, 0
1503510452696,29, 40, 6, -5, -3, -2, -2, 5, 0
1503510452718,-27, -33, -4, 0, 1, -1, 1, 17, 0
1503510452741,2, -20, -1, -2, 1, -3, -3, -20, 0
1503510452756,-5, 21, 10, 2, -2, -1, 0, 5, 0
1503510452778,-11, -14, -5, 2, 0, 1, 0, -5, 0
1503510452802,13, -4, 2, 1, -1, 0, -2, -4, 0
1503510452816,8, -2, -1, 0, -1, -1, 0, -5, 0
1503510452838,13, -17, -6, -2, -3, -2, 2, 9, 0
1503510452863,16, 12, 9, 1, 2, -1, -2, -3, 0
1503510452875,9, 8, 1, -2, 2, 2, 1, 2, 0
1503510452898,-18, -12, -5, -2, -4, -2, 0, -1, 0
1503510452920,-14, -77, -18, 0, 7, 2, -2, -2, 0
1503510452935,-7, -9, -6, -3, -26, -4, -2, 0, 0
1503510452958,2, 15, 3, 4, 21, 5, -2, -4, 0
1503510452980,4, 29, 5, 3, 0, -2, 0, 0, 0
1503510452997,-12, 8, -2, -1, -3, 4, 1, -3, 0
1503510453018,-21, -34, 8, -5, -15, -6, -5, -2, 0
1503510453040,-3, -22, -3, -10, -87, -14, -2, 1, 0
1503510453055,1, -16, -6, -2, -21, -32, -6, -5, 0
1503510453078,-3, 19, 8, 2, 29, 13, 1, -5, 0
1503510453101,0, -5, 4, -2, 10, -2, -1, -2, 0
1503510453116,8, 18, -1, -4, -20, 0, -1, -1, 0
1503510453138,19, 31, -10, 3, 58, 24, 6, 6, 0
1503510453160,1, 37, 0, 0, 15, 4, 2, 2, 0
1503510453170,5, -7, -5, 2, 50, 23, -1, -4, 0
1503510453191,-1, -17, -2, 4, 16, 7, 3, 2, 0
1503510453213,1, 11, -10, -3, 7, 1, 0, -1, 0
1503510453221,-2, -17, -6, -5, -9, -6, -2, -3, 0
1503510453236,-2, -12, 1, 5, 29, 10, 1, -2, 0
1503510453258,-11, -10, 5, 1, 9, 6, 0, -2, 0
1503510453280,-7, -2, -2, 1, -1, 3, 1, 0, 0
1503510453295,-8, -7, 7, -2, -10, -5, 1, 4, 0
1503510453311,2, -4, 2, 0, -1, 1, -2, -4, 0
1503510453334,5, -2, 1, 0, 15, -4, -1, -2, 0
1503510453348,7, 10, 5, -3, -19, -18, 2, 3, 0
1503510453373,1, 15, -1, 1, 2, -1, -7, -4, 0
1503510453393,1, 30, 7, -1, -8, -11, -2, 3, 0
1503510453409,0, -42, -19, -3, -7, 5, 4, 6, 0
1503510453435,-6, -10, -4, 2, 14, 5, 3, 1, 0
1503510453453,6, 63, -6, -1, -7, -8, 1, 10, 0
1503510453470,1, -64, 6, 9, 33, 15, 10, 13, 0
1503510453491,-12, 2, 5, 12, 29, 41, 9, -23, 0
1503510453515,20, -16, 0, -11, -19, -13, 7, 12, 0
1503510453529,-16, 18, 1, -42, -85, -82, -19, -53, 0
1503510453552,-6, -18, -7, -9, -26, 23, -17, -8, 0
1503510453574,8, 9, 6, 52, 127, 82, 13, 14, 0
1503510453588,18, 37, 8, -7, 45, 21, 10, -18, 0
1503510453603,3, 2, 6, 3, -53, -9, -2, -3, 0
1503510453618,2, 32, 9, 33, 23, 25, -1, 0, 0
1503510453641,8, 10, 2, -16, -28, 1, 1, 0, 0
1503510453663,-21, 34, 1, -6, -38, -27, -8, -8, 0
1503510453678,14, 21, 13, -4, 16, 48, 8, -8, 0
1503510453703,11, 0, -2, 8, 55, 20, -3, 0, 0
1503510453723,-13, 13, 2, -4, 1, 7, 3, -3, 0
1503510453738,0, -16, -5, -5, -14, -10, -2, -4, 0
1503510453760,9, 2, 4, 2, 16, 2, 1, 11, 0
1503510453783,-7, 4, -1, 0, 34, -8, -2, -6, 0
1503510453791,-9, -8, 0, -2, -20, -12, -3, -2, 0
1503510453814,-4, -16, -8, -5, -18, -16, -4, 1, 0
1503510453829,-5, 4, 3, 0, 7, -1, 1, 0, 0
1503510453851,-3, 0, 1, -1, -28, -5, -3, -2, 0
1503510453874,1, 7, -1, 3, 34, 12, -2, -1, 0
1503510453888,-1, -29, -7, 0, -4, -6, 1, 0, 0
1503510453904,-1, 3, -6, 2, 19, 10, 0, 0, 0
1503510453912,3, -14, -2, -1, 0, -4, -1, -6, 0
1503510453934,-7, -3, -9, -3, -5, -3, -1, -1, 0
1503510453948,5, -1, 3, 1, 0, -5, -1, 1, 0
1503510453972,0, -11, -1, -1, 0, 1, 2, -2, 0
1503510453994,-1, -4, 0, -6, -4, -2, -1, -1, 0
1503510454008,0, 0, 0, 1, 2, -7, -4, 0, 0
1503510454031,1, 4, 1, 0, -2, 1, -2, -2, 0
1503510454053,0, 2, -2, -1, 1, 1, 0, -2, 0
1503510454068,-5, -11, 5, -2, -23, -3, -1, -3, 0
1503510454091,3, 8, -2, 2, 6, 3, 0, 3, 0
1503510454113,-1, -7, -7, -2, 7, 1, 0, 0, 0
1503510454129,0, 0, -1, 3, 7, 1, -1, 0, 0
1503510454151,-2, 1, 6, 0, -2, -1, 3, -1, 0
1503510454173,1, 1, -3, -2, 2, -1, -1, 1, 0
1503510454181,-2, -3, -2, -1, -1, -2, -1, -3, 0
1503510454203,6, 52, 12, 2, -2, -1, -1, -2, 0
1503510454218,2, -15, -7, -4, 2, 2, 0, -3, 0
1503510454240,2, 4, -4, -4, -20, -22, -5, -6, 0
1503510454256,-2, -14, -8, 1, 20, 7, 3, 3, 0
1503510454274,-2, 0, -6, -2, -1, -6, -1, 0, 0
1503510454293,-1, 1, -3, 1, -2, -4, -2, -2, 0
1503510454308,1, 7, -3, -3, -4, -4, -3, -1, 0
1503510454331,4, 2, -1, -2, -1, -2, -3, -1, 0
1503510454353,-24, -9, -3, -1, -12, -1, -3, -2, 0
1503510454368,42, 4, -1, -3, -5, -4, 0, 2, 0
1503510454391,13, 8, 1, 2, -1, 1, 2, 2, 0
1503510454413,-18, 1, -1, -3, -2, -1, -3, -4, 0
1503510454428,-4, -2, -3, -3, -3, 0, 0, -5, 0
1503510454451,1, -3, 0, -2, 3, 1, 0, -1, 0
1503510454482,-5, 1, 3, -1, -9, 0, 0, 0, 0
1503510454503,-1, 0, 0, -1, -6, 0, 2, -1, 0
1503510454525,11, 5, -1, -1, -1, 0, 0, 4, 0
1503510454541,9, -3, -2, 1, -1, -2, -3, -1, 0
1503510454563,3, 3, 1, -1, 0, 0, 0, 2, 0
1503510454585,-5, -8, -1, 0, -2, -1, -2, 5, 0
1503510454600,-8, 6, 4, 1, 1, 1, 1, -2, 0
1503510454623,-1, 5, 3, 2, -3, 0, 1, 1, 0
1503510454646,-6, -7, -5, -3, 0, 1, -1, -1, 0
1503510454660,-5, -4, -7, -1, -3, -3, -2, -4, 0
1503510454683,-1, 7, 1, 1, -1, 0, -2, -1, 0
1503510454705,7, -1, 2, -2, -4, -2, -5, -4, 0
1503510454720,4, 4, 0, 2, 0, 3, 7, 7, 0
1503510454735,4, 0, -3, 0, -2, -1, 0, -5, 0
1503510454751,-13, -2, -1, -2, 0, 3, 2, 13, 0
1503510454774,29, 23, 4, 2, 0, 3, 6, 10, 0
1503510454795,1, -2, 2, 0, -1, -2, 1, -3, 0
1503510454812,-5, -8, -2, -1, 0, 0, -1, 8, 0
1503510454834,8, -5, -3, 0, -2, 1, -1, -5, 0
1503510454855,-10, -13, -5, -3, -3, -4, -11, 13, 0
1503510454871,-3, -5, 2, 0, 0, -1, 2, -7, 0
1503510454894,-19, -5, -5, -4, 0, 1, -1, -12, 0
1503510454916,8, -6, 0, 1, -1, -1, 1, 4, 0
1503510454931,-6, 5, 4, 3, 3, 1, -5, -25, 0
1503510454954,8, -2, -5, -3, -1, -1, 2, 2, 0
1503510454978,-6, -14, 5, 0, 0, -3, 0, 18, 0
1503510454991,-4, 10, 12, 0, -2, 0, -6, -9, 0
1503510455015,-1, -26, -18, -6, -2, -4, -6, -6, 0
1503510455035,-4, 11, 1, 0, 1, 1, -2, 6, 0
1503510455051,-11, -1, -3, -1, -1, 1, 1, -17, 0
1503510455073,0, -6, 1, -1, -2, -3, 4, 13, 0
1503510455095,15, -6, -9, -1, -1, -2, -2, -5, 0
1503510455115,2, 14, 3, -1, -3, 1, 3, 1, 0
1503510455134,6, -19, -4, -2, -1, 0, -1, -2, 0
1503510455155,11, 2, -6, -3, 0, -2, -3, 5, 0
1503510455171,-6, 0, -2, -2, -3, -3, -5, -17, 0
1503510455194,-4, -1, -4, -1, 1, -1, -3, 2, 0
1503510455216,9, 14, 10, 1, 0, -1, -1, -11, 0
1503510455231,-10, 9, 0, 2, -2, 1, 0, -2, 0
1503510455253,1, 4, 1, 1, -2, 0, -2, 0, 0
1503510455275,12, 11, 4, 2, -1, 2, 4, 9, 0
1503510455291,-8, 2, 8, 1, 1, -2, 2, 0, 0
1503510455315,-16, 5, -1, -2, 2, -3, 1, 28, 0
1503510455335,9, 0, 0, 0, -4, 6, 3, -3, 0
1503510455358,-29, -6, -1, -3, -1, 2, 2, -12, 0
1503510455382,6, -4, -3, -4, 0, -5, -2, 5, 0
1503510455397,1, -6, -6, 1, -2, -1, -3, 9, 0
1503510455418,1, -2, -1, -3, -1, -2, -5, -17, 0
1503510455434,14, -1, -2, 2, -1, -4, 0, 0, 0
1503510455457,4, 2, 0, -2, 2, 0, -3, -26, 0
1503510455478,-5, -2, 10, 5, -1, 1, 1, -5, 0
1503510455494,-21, -8, -1, -2, -2, -1, 2, 1, 0
1503510455520,3, 11, -1, 0, 1, 0, 0, 14, 0
1503510455538,5, 4, -1, -1, -1, -1, -3, -22, 0
1503510455554,-35, -7, -6, -3, -3, -4, -8, 2, 0
1503510455576,-4, -4, -1, 1, -2, 3, 0, 0, 0
1503510455598,10, -2, -1, 4, 2, 1, 0, -2, 0
1503510455616,-6, -3, -1, -2, -2, -1, 4, 18, 0
1503510455636,4, -21, -6, -3, 1, 0, -3, -6, 0
1503510455658,-18, -5, -2, -1, 17, 0, -1, 17, 0
1503510455673,-3, -6, -4, -3, -5, -1, -3, 0, 0
1503510455696,32, -2, 1, -3, 1, -15, 0, -2, 0
1503510455718,-8, 4, 2, 1, -2, 7, 6, 23, 0
1503510455733,22, 33, 38, 6, -1, -1, -2, -10, 0
1503510455756,15, 1, -11, 4, -2, -1, -2, -7, 0
1503510455778,-21, -17, -7, -2, 1, 3, 3, 10, 0
1503510455794,-14, 6, -1, 34, -6, -6, -7, -22, 0
1503510455818,4, -1, -7, -22, -2, -1, 3, 0, 0
1503510455838,-3, -7, -14, -11, -3, 1, -5, -38, 0
1503510455853,-9, -25, -7, 4, -3, -3, -2, 5, 0
1503510455876,-7, 14, 5, 1, -1, -3, 0, -3, 0
1503510455898,3, 18, 2, -11, -2, 2, -1, 6, 0
1503510455913,0, 0, -1, 3, -1, -2, -1, 4, 0
1503510455928,-3, 6, -6, 5, 2, 2, 3, 3, 0
1503510455947,6, -8, 4, -1, 0, -3, -1, 1, 0
1503510455965,-1, -10, 1, -2, -2, -3, 3, 11, 0
1503510455988,6, -3, -3, -7, -3, 0, 2, -6, 0
1503510456003,2, 2, -1, 10, 3, -5, -5, -12, 0
1503510456026,5, 2, -7, -3, -1, 2, -2, -9, 0
1503510456033,20, -12, -6, 4, -1, -1, 3, 20, 0
1503510456056,3, -8, -2, 2, -2, -1, -3, -9, 0
1503510456078,-7, 8, -1, -1, -3, -1, -1, -3, 0
1503510456093,-5, -2, -2, -5, -8, -2, -1, 32, 0
1503510456116,3, 11, 2, 1, 6, 4, 0, -14, 0
1503510456138,-30, 15, 3, -2, -2, -5, -9, -37, 0
1503510456154,-5, -3, 11, 6, 3, -1, -6, -5, 0
1503510456176,-4, -3, 0, -2, 0, 1, 2, 0, 0
1503510456198,-48, -10, -5, -5, 0, -3, -4, -29, 0
1503510456214,-11, -2, 1, 2, 2, 1, 10, 48, 0
1503510456229,-19, -9, -2, -1, -2, 1, 6, 29, 0
1503510456243,16, -12, -9, -7, -4, -16, -10, -7, 0
1503510456266,15, 11, 4, -5, -2, 1, -3, -3, 0
1503510456288,7, 10, 5, 3, 1, -1, -2, -27, 0
1503510456303,-43, -17, -9, -1, 0, 1, 7, 3, 0
1503510456326,19, -5, 2, 49, 48, 37, 7, 2, 0
1503510456348,-14, 6, 0, -41, -30, -5, -6, -6, 0
1503510456370,-20, 2, 3, 1, -7, -6, -6, 13, 0
1503510456385,14, -1, 1, 2, 0, -7, -7, -13, 0
1503510456408,34, 1, -4, 0, -2, -7, 5, 12, 0
1503510456430,-20, -5, -4, -5, -8, 8, 1, 1, 0
1503510456445,14, 0, 0, -9, -6, 3, 4, -23, 0
1503510456468,8, 10, 4, 6, -3, -5, -9, -9, 0
1503510456490,-12, 8, 19, 8, 5, 2, 9, 4, 0
1503510456505,-3, -14, -12, -7, -1, -6, -2, 9, 0
1503510456528,34, -6, -10, -7, -6, -12, -15, -22, 0
1503510456550,-71, -13, -4, -4, -1, 1, -8, -6, 0
1503510456565,-38, 12, -2, 5, 2, 0, 6, 1, 0
1503510456589,54, -2, -1, 4, 2, 2, 4, -9, 0
1503510456610,64, 3, -4, -5, -6, -4, 5, 65, 0
1503510456626,-8, -2, 0, -2, -1, 3, 3, -10, 0
1503510456648,12, 11, 7, 13, -2, -11, -1, -5, 0
1503510456670,-52, -2, -1, -6, 0, 5, 2, 19, 0
1503510456685,16, -13, 3, 0, -1, -6, -4, -19, 0
1503510456708,12, -8, -5, -5, -2, 1, 0, -18, 0
1503510456730,80, 6, -4, -3, -3, -36, -12, 36, 0
1503510456745,-5, -2, -1, 2, -7, 13, 4, 0, 0
1503510456761,-20, -7, 0, -4, -1, -3, 6, 19, 0
1503510456776,0, -10, -6, 8, 12, 9, 4, -13, 0
1503510456798,15, 10, 0, -3, 0, 1, 9, 20, 0
1503510456821,8, 2, 0, 2, 2, 2, -1, 16, 0
1503510456836,-7, 1, -3, -3, -1, -4, -1, 21, 0
1503510456858,21, -10, 0, 0, -6, -17, -10, -18, 0
1503510456881,2, -10, -5, -1, -6, 3, -7, -11, 0
1503510456896,8, -6, -3, -2, -2, -1, 4, 31, 0
1503510456918,2, -4, -1, -2, -5, -4, 0, 12, 0
1503510456940,-3, -4, -6, -1, -4, 9, 6, -29, 0
1503510456956,-2, -4, 0, -33, -7, -3, 4, -23, 0
1503510456970,12, 7, 4, 41, 15, 9, 7, -14, 0
1503510456986,-43, 3, -4, -10, -4, 1, -1, 15, 0
1503510457008,1, 13, 7, -9, -1, -4, 3, 32, 0
1503510457030,-18, -11, -7, -19, -5, -4, -1, -23, 0
1503510457046,20, 6, 3, -1, 1, -6, 7, 3, 0
1503510457068,18, -8, -3, -28, -1, 14, 6, 0, 0
1503510457076,-17, 1, -2, -26, -5, -7, -2, -11, 0
1503510457098,17, 4, 2, 5, -1, 2, -13, -5, 0
1503510457121,8, 47, 25, 14, -2, 1, 7, 37, 0
1503510457136,6, -10, -8, -9, -7, -1, -10, -10, 0
1503510457160,2, -10, -6, -1, 4, 1, 5, 4, 0
1503510457180,16, -9, -12, 11, 5, -14, -11, -1, 0
1503510457197,2, -19, -12, 1, -5, -4, -7, 24, 0
1503510457218,-11, -11, -6, -5, -1, 4, 8, -3, 0
1503510457240,7, 7, 4, 55, -5, -1, 0, -20, 0
1503510457264,-16, 22, 16, -25, -2, -5, -3, -3, 0
1503510457278,8, -38, -10, -5, -1, 7, 7, -9, 0
1503510457300,14, 15, -1, -21, -6, 1, 4, -20, 0
1503510457323,-32, 12, -2, -1, 2, 1, 3, 6, 0
1503510457338,5, 38, 12, -2, 0, 0, 4, 10, 0
1503510457361,-3, -15, -7, 6, 2, -2, -5, -18, 0
1503510457383,-4, 2, 0, -11, -5, -2, -1, 7, 0
1503510457399,-10, 13, 3, -1, -1, -22, -4, -7, 0
1503510457420,-19, 0, 11, 2, 0, 2, -5, 12, 0
1503510457443,28, -5, -5, -7, -1, 3, -1, -4, 0
1503510457458,-5, -12, -8, 6, 1, -1, -5, 6, 0
1503510457480,-28, -3, 4, 1, 5, 27, 11, 6, 0
1503510457503,4, -6, -4, -7, 0, -1, -3, 7, 1
1503510457518,9, -27, -8, 0, -5, -7, -4, 3, 1
1503510457540,16, 2, 1, -1, 3, 2, 15, 42, 1
1503510457563,-19, -9, 0, 2, 0, -3, 1, -17, 1
1503510457578,-62, -8, -11, -6, -6, -3, -6, -53, 1
1503510457600,23, 10, 5, 1, 0, -4, -28, 1, 1
1503510457623,52, 4, 1, -1, 0, 0, 11, -40, 1
1503510457638,-9, 9, -2, -4, -2, -2, -4, 19, 1
1503510457660,-15, -5, -1, -1, -7, -3, 4, 16, 1
1503510457683,-27, -5, -2, 0, 2, 1, -2, -19, 1
1503510457698,3, 7, 2, 0, -2, 1, 7, 3, 1
1503510457723,30, -11, -3, -6, -5, -8, -12, 5, 1
1503510457743,6, 2, 2, 0, 0, 3, 9, 31, 1
1503510457758,34, 8, 0, -2, 2, -3, -4, 25, 1
1503510457774,10, 0, 1, 2, 3, 0, 7, 23, 1
1503510457788,58, 5, -1, -1, 0, 2, 2, -18, 1
1503510457810,3, -9, -9, -3, 4, -7, 8, 16, 1
1503510457834,-2, -32, 0, 0, -4, -4, 4, 0, 1
1503510457848,-7, -8, -8, -2, -5, -2, -11, -25, 1
1503510457869,5, 22, 4, 4, 1, 0, 9, -21, 1
1503510457878,42, 14, 1, 3, 2, -4, -4, -43, 1
1503510457900,-4, 12, 0, -3, -3, -2, -2, -10, 1
1503510457923,23, 3, 4, 3, -1, 4, 4, 13, 1
1503510457938,29, 4, 0, -2, -5, 1, 12, 2, 1
1503510457960,-14, -9, 0, 1, 0, -2, 2, 4, 1
1503510457983,-25, -6, -8, -5, 3, 4, 11, -1, 1
1503510457990,8, 5, 2, 10, -2, -21, -5, -3, 1
1503510458012,-4, -22, 0, -1, -1, -1, -29, 13, 1
1503510458028,-2, 1, -3, -4, -5, 4, 15, -2, 1
1503510458049,16, -2, -2, -1, 0, 3, 6, -10, 1
1503510458072,20, 15, 0, -3, 2, -1, -13, -6, 1
1503510458088,18, 9, 4, 19, 0, 3, 7, 2, 1
1503510458147,-17, 4, 6, -26, -1, 16, 12, -2, 1
1503510458149,25, -9, -6, -1, 1, -1, -3, 3, 1
1503510458155,4, 0, -4, 3, 0, 4, -5, -14, 1
1503510458163,-19, -7, 1, 3, 2, 2, 4, 16, 1
1503510458178,-7, -4, -2, -10, -2, -2, -6, -6, 1
1503510458201,-14, -20, -10, -1, 0, 3, 4, -6, 1
1503510458223,-4, 14, 2, 3, 0, -2, -5, -22, 1
1503510458245,23, 6, 3, -1, 0, -1, 1, 9, 1
1503510458260,-25, -21, -6, -1, 0, -1, -5, -9, 1
1503510458283,-3, 34, 8, -2, -2, -1, -5, -4, 1
1503510458313,-16, -34, -4, -2, -1, 1, 3, 17, 1
1503510458321,9, 4, 2, 1, 0, 2, 0, 3, 1
1503510458343,0, 18, 0, -2, 0, 3, 1, -1, 1
1503510458365,13, -2, 0, 0, -1, -3, -8, -12, 1
1503510458380,10, 11, 2, 2, 1, 18, 3, 3, 1
1503510458410,-4, 9, 3, 2, 4, -1, 3, 11, 1
1503510458426,10, -4, -4, -5, -1, -1, 2, 20, 1
1503510458441,9, -7, 0, -2, -2, -6, 1, -16, 1
1503510458463,-4, 17, -2, -2, -3, -4, 1, -3, 1
1503510458485,21, -44, -17, -4, 0, 0, 2, 8, 1
1503510458493,-5, -6, -2, 1, -2, -3, -2, 3, 1
1503510458517,12, 7, 4, 2, 1, 0, -2, -2, 1
1503510458538,17, 7, -7, -1, -1, 1, 3, 15, 1
1503510458553,0, -7, -1, -1, 2, -2, -4, -8, 1
1503510458576,-4, 8, 7, 47, 2, 8, 1, -6, 1
1503510458598,6, 1, -4, -33, -4, 0, -4, -9, 1
1503510458613,-40, -2, 1, 3, 18, 4, 4, -4, 1
1503510458638,7, -2, -5, -5, -10, -5, 0, 0, 1
1503510458658,14, 21, 3, -8, -3, -1, -1, 6, 1
1503510458673,-11, -1, -5, -6, -3, -5, -2, 3, 1
1503510458696,7, -13, 2, 2, -2, -4, -4, 16, 1
1503510458718,-8, -11, 1, 2, -4, 1, 2, -6, 1
1503510458733,3, -11, -3, -3, 0, 3, 2, 2, 1
1503510458756,-6, 13, 5, -2, -3, -1, -3, -15, 1
1503510458779,14, 19, 3, -1, -1, -1, -1, 5, 1
1503510458794,13, -8, -7, -3, -1, -1, 1, 3, 0
1503510458816,-5, -6, -3, -1, -3, -8, -2, 10, 0
1503510458839,1, 1, 3, 4, 2, 5, 2, -16, 0
1503510458847,-6, -11, -3, -6, -3, -1, -4, 2, 0
1503510458861,-2, -12, -7, -3, 0, 0, 3, 2, 0
1503510458883,2, 17, 2, 0, -2, -3, -6, -4, 0
1503510458906,20, -11, -2, -1, -3, -4, 2, -3, 0
1503510458920,-12, -13, -4, -1, 1, 1, 1, -6, 0
1503510458943,-8, -11, -6, -4, -2, -1, -2, -6, 0
1503510458966,12, 12, 4, 4, 1, 0, -1, 2, 0
1503510458981,8, -12, -5, -1, -1, 0, 1, 6, 0
1503510459003,-3, -3, -6, -3, -2, 0, -1, 3, 0
1503510459025,-30, -2, 3, 1, 0, -4, -3, -5, 0
1503510459041,14, 18, 4, 4, 2, -1, -5, -13, 0
1503510459063,16, -6, 2, -3, 0, 0, 1, 9, 0
1503510459085,-22, -11, 4, 8, 1, -1, -2, -2, 0
1503510459100,-8, -10, -6, -3, -3, -1, 2, 4, 0
1503510459123,7, 6, -6, -5, 1, 1, -1, 0, 0
1503510459146,8, 9, 7, 0, 1, 1, -3, -1, 0
1503510459168,-16, 8, -3, -1, -3, -4, -3, -5, 0
1503510459183,2, -1, -7, -7, -4, -2, -5, -8, 0
1503510459207,10, -5, -2, 2, -2, -2, -1, 0, 0
1503510459228,-9, 0, 7, 7, 4, 0, 2, -2, 0
1503510459244,-29, -11, -9, -7, -4, -1, 0, 1, 0
1503510459265,3, 6, -5, -4, -2, -2, 1, 4, 0
1503510459275,-26, -1, -3, -2, -3, -6, -3, -14, 0
1503510459296,-2, 14, 2, 3, 0, -3, -2, 5, 0
1503510459319,18, 35, 4, -2, -2, -1, 1, 2, 0
1503510459333,25, 18, -3, -1, -3, -2, -1, 3, 0
1503510459356,3, -18, -2, 0, 2, 2, -3, -1, 0
1503510459379,-7, -12, -6, -3, -1, -6, -4, -3, 0
1503510459393,-36, -11, 0, 0, 0, 1, 0, -6, 0
1503510459417,18, -6, -3, -3, 1, 2, 5, 15, 0
1503510459438,-9, 2, 15, 13, 7, 4, -2, -5, 0
1503510459453,6, -12, -3, 1, 1, 1, 2, 7, 0
1503510459476,0, 0, -6, -4, -6, -6, -3, -8, 0
1503510459499,18, 1, 3, -2, -4, -3, 0, 8, 0
1503510459516,17, -21, -6, 1, 0, -3, -9, -18, 0
1503510459536,-15, 30, 0, -3, -2, 2, 2, 4, 0
1503510459558,-1, -7, -4, -5, -3, 0, 0, 0, 0
1503510459573,5, 1, 4, 2, 2, 1, -1, -4, 0
1503510459596,17, -2, 0, 1, 0, 0, 4, 9, 0
1503510459619,-9, -6, -4, -3, -1, -5, -11, -15, 0
1503510459633,-30, -26, -3, 0, 0, 0, 3, 8, 0
1503510459656,-5, -2, -5, -4, -4, 1, 4, 2, 0
1503510459679,0, -1, -2, -4, -3, -3, -3, -2, 0
1503510459693,7, -4, -2, -2, -1, 0, -5, -8, 0
1503510459716,-6, 2, 0, -3, -1, 1, 1, 2, 0
1503510459738,13, 9, 5, 2, 1, -5, -2, 6, 0
1503510459754,-22, -14, -7, -4, -3, 1, 3, 1, 0
1503510459778,-7, -22, -10, -4, -3, -1, -3, -6, 0
1503510459797,-10, 6, 2, -6, -3, -1, 0, -4, 0
1503510459805,-7, 0, -5, 0, 2, 8, 6, 0, 0
1503510459828,27, 1, 8, 5, 2, 6, -4, -4, 0
1503510459846,-6, -7, -3, -1, 1, -1, 2, -3, 0
1503510459865,-13, -5, 1, 2, 0, -4, -4, -6, 0
1503510459888,-16, -11, 2, -2, -1, -7, -6, -1, 0
1503510459903,0, 7, 0, -2, -2, 0, 2, 4, 0
1503510459925,-3, -2, -5, -5, 0, 1, 2, 1, 0
1503510459948,2, 7, 5, 0, 1, 1, 2, 1, 0
1503510459962,-15, -5, -7, -6, -5, -6, -8, 9, 0
1503510459985,0, 1, 1, -9, 1, 4, 6, 5, 0
1503510460008,-38, -13, -5, -9, -3, 0, -2, -13, 0
1503510460023,1, -3, -4, 0, -1, -4, 0, -3, 0
1503510460047,-5, 7, -3, -1, -3, -1, -2, -1, 0
1503510460067,-18, -5, 8, 7, -1, -2, 0, -1, 0
1503510460076,-18, -2, -4, -7, -2, -16, -9, 2, 0
1503510460098,-8, -5, -6, -4, -3, 5, -2, -4, 0
1503510460120,0, -8, -3, 1, 2, 6, 0, -3, 0
1503510460136,5, 6, 6, 2, -1, -4, 2, 2, 0
1503510460158,6, -2, -3, -4, -4, -2, 1, -1, 0
1503510460180,-4, -7, 5, 0, 0, 1, 1, -3, 0
1503510460196,6, -3, -8, -1, -2, 0, -4, -3, 0
1503510460218,7, 20, 13, 4, 0, -2, -3, 2, 0
1503510460240,7, 0, -3, -3, 0, -1, -1, -1, 0
1503510460256,-2, -14, -9, -3, 1, 1, 0, -5, 0
1503510460278,-5, 0, -3, 8, -3, -11, -2, -1, 0
1503510460300,-2, 13, 0, -6, 2, 3, 2, -4, 0
1503510460316,26, -7, -10, -3, -1, 1, 2, 4, 0
1503510460338,-12, 1, -5, -2, -4, -2, -3, -7, 0
1503510460360,-11, -5, -2, -3, -1, 2, 0, -3, 0
1503510460376,5, -2, 2, 2, -2, 4, 1, 3, 0
1503510460399,14, 4, 9, -8, -1, -2, -2, 0, 0
1503510460421,0, 9, 6, -2, -3, 1, 0, 4, 0
1503510460436,-14, 8, -5, 2, 2, 0, 0, -4, 0
1503510460458,-9, -3, 2, 3, 1, -2, -2, 1, 0
1503510460483,-8, -7, 5, 5, 3, -2, -3, -4, 0
1503510460503,-3, -5, -8, -7, -1, 2, 1, 1, 0
1503510460519,8, -6, -18, -17, -4, -1, -3, 6, 0
1503510460540,7, -3, 4, -1, -2, 1, -2, -5, 0
1503510460556,-4, 3, -1, 1, 1, -2, -1, -4, 0
1503510460578,-19, -4, -1, 4, -2, 1, 2, -5, 0
1503510460600,-3, -4, -2, 1, -2, 0, 1, 2, 0
1503510460618,1, -4, 1, 0, 0, -2, -3, -4, 0
1503510460638,0, 7, 1, 3, 2, 1, -2, 1, 0
1503510460660,-1, -7, -2, -2, -1, 1, 1, 1, 0
1503510460676,4, 5, 4, 3, -1, -1, 3, -1, 0
1503510460698,-2, -6, -1, -1, 0, -4, -3, -7, 0
1503510460721,-10, -10, -3, -2, -1, 0, -1, -1, 0
1503510460736,6, 0, -4, -3, -2, -1, -3, 3, 0
1503510460759,1, -3, -1, 0, 0, 1, 0, 0, 0
1503510460780,7, 0, -4, -2, -2, -1, 1, 4, 0
1503510460796,26, 2, 1, 1, -1, 0, 0, 4, 0
1503510460819,-8, 0, -1, -3, 2, -3, -1, -2, 0
1503510460840,-7, 4, 8, 4, 0, -3, -1, -2, 0
1503510460855,20, 0, 0, 2, 1, 2, 0, 2, 0
1503510460870,-2, -9, -2, 0, -1, -4, 0, -2, 0
1503510460886,-21, 45, 5, -6, 0, -1, 2, -1, 0
1503510460907,26, -14, -1, -4, 1, 0, -1, 2, 0
1503510460930,-1, 15, 2, -1, -2, -1, -1, -1, 0
1503510460945,12, -5, -6, -1, -2, -4, -3, 2, 0
1503510460968,-10, -7, 0, 5, -1, -1, -2, -2, 0
1503510460990,-12, -12, -7, -3, -2, -1, 1, -2, 0
1503510461012,16, -14, 0, 5, 1, -2, -2, -1, 0
1503510461028,-11, 18, 0, 0, 0, 0, 0, -2, 0
1503510461051,-6, -18, -5, 0, 0, 0, -3, -3, 0
1503510461072,-13, -3, 2, 1, -1, -2, -1, 1, 0
1503510461088,-1, -7, -1, -4, -3, -3, 0, 1, 0
1503510461110,15, 7, 2, -1, 0, 0, 0, 1, 0
1503510461119,17, -2, -3, -1, -2, -2, -2, -4, 0
1503510461140,-1, 2, 2, 2, -1, 0, -1, 0, 0
1503510461163,-7, -3, 0, 0, 0, -1, -3, -1, 0
1503510461178,-9, -22, -7, -3, -1, 0, -1, -11, 0
1503510461200,-8, 2, 1, 1, -1, 0, -1, 2, 0
1503510461223,-2, 5, 0, -2, -3, 0, -1, 2, 0
1503510461231,3, 6, 2, -2, -2, -1, -1, 0, 0
1503510461252,7, 9, 3, -3, -2, -3, -1, 3, 0
1503510461267,12, 3, 2, 1, -1, 0, -2, -1, 0
1503510461290,-3, 5, -1, -2, -2, 0, 0, 2, 0
1503510461312,-3, 8, 0, 0, -1, -1, -1, 0, 0
1503510461328,0, 3, -3, -2, -2, -1, -1, -2, 0
1503510461350,-6, -4, -5, 1, -3, -1, -1, -4, 0
1503510461372,7, 0, -6, -3, 0, -1, 1, 2, 0
1503510461390,2, -13, -2, -2, -2, 0, -2, -1, 0
1503510461410,-4, -4, 2, 0, 1, 1, 0, -1, 0
1503510461433,-19, -3, 3, 2, 1, -1, -2, -4, 0
1503510461448,-8, -5, -4, 1, 0, -1, 0, -6, 0
1503510461470,11, 1, 4, 0, -1, -1, 0, 0, 0
1503510461494,-12, 0, -3, -3, 1, 0, -2, -2, 0
1503510461514,3, -6, -1, -3, 0, 1, -1, 1, 0
1503510461523,-26, -8, -2, -1, -3, -3, -3, 1, 0
1503510461538,-4, -11, -7, -4, -3, -1, -1, 0, 0
1503510461561,9, 8, 4, 0, 0, -1, -2, -2, 0
1503510461583,-11, 4, 2, -1, -2, 1, 0, 1, 0
1503510461599,3, 1, -5, 0, -1, -2, 0, -4, 0
1503510461620,-18, -18, 0, -2, -3, -2, -1, 0, 0
1503510461628,7, -11, -6, -1, 1, 3, 2, 3, 0
1503510461650,2, -17, 2, 3, 2, -1, 0, 3, 0
1503510461672,-6, 6, 3, -2, 0, -2, 0, -1, 0
1503510461688,3, -10, -7, -4, -2, -1, -1, 4, 0
1503510461710,-11, -4, 0, -1, -1, 0, 1, -3, 0
1503510461732,-15, 0, 1, 2, -2, -1, -3, -7, 0
1503510461748,9, -2, 2, 1, 1, 0, -1, -2, 0
1503510461770,-7, 6, 7, 0, -1, 0, -2, -3, 0
1503510461792,-6, 26, 6, 0, 0, 0, -1, -4, 0
1503510461800,-3, 0, -6, -5, -1, 0, -1, 1, 0
1503510461822,-20, 15, 6, 1, -1, -2, -1, -1, 0
1503510461838,24, 5, 3, -2, -1, -3, -1, -1, 0
1503510461860,-3, -5, 1, 1, -1, -4, -2, -4, 0
1503510461882,10, 19, 5, -1, 1, -1, 2, 6, 0
1503510461890,-11, -5, -5, -3, -1, 2, 0, -2, 0
1503510461912,8, -12, -8, -2, 1, -1, 0, 1, 0
1503510461935,-3, -3, 1, -2, -1, -1, -3, -3, 0
1503510461950,-23, 0, 3, 0, 0, 0, -3, -6, 0
1503510461972,9, 1, -2, -2, 0, 0, -1, 1, 0
1503510461994,10, -4, -2, -1, -1, -2, 0, 2, 0
1503510462010,8, -2, -3, -2, -3, 1, 1, 1, 0
1503510462032,1, 3, -3, -1, -1, -1, 0, -2, 0
1503510462054,5, -7, 2, 2, 2, -1, 0, -2, 0
1503510462071,16, -4, 1, -1, 2, -1, -2, 2, 0
1503510462094,14, -10, 2, 1, -3, 0, 2, 5, 0
1503510462114,-21, -28, 0, 1, 0, 0, -3, -8, 0
1503510462130,24, 36, 23, 3, 0, -2, 1, 6, 0
1503510462153,-2, -4, -10, -4, -1, 0, -1, -2, 0
1503510462174,-9, 16, 1, 0, -2, 0, -1, -2, 0
1503510462190,1, 1, -2, -2, -1, -3, 0, -2, 0
1503510462212,-9, 1, -5, 1, -4, -2, -4, -3, 0
1503510462234,-8, -5, -5, -3, -1, 0, 1, 0, 0
1503510462250,0, -3, -4, -1, 0, -2, -1, -1, 0
1503510462272,2, 4, -1, -2, -1, -2, 0, 0, 0
1503510462295,-7, 4, 1, -3, -2, -1, -2, -6, 0
1503510462310,11, 15, 9, 0, 0, 0, 0, 2, 0
1503510462333,0, -6, -8, -3, -1, -1, 1, 2, 0
1503510462354,2, -2, -5, 1, -1, -2, -2, -3, 0
1503510462371,6, 8, 4, -4, -3, -2, -2, 7, 0
1503510462392,-9, -17, -8, 0, 1, 1, 0, -7, 0
1503510462414,9, 7, -3, 0, -1, 1, 3, 9, 0
1503510462430,-31, -14, -2, 0, 0, -1, -2, -8, 0
1503510462453,26, -11, 0, 1, -1, -2, -1, 3, 0
1503510462474,-20, 7, 3, -1, -1, 1, 0, -2, 0
1503510462490,-15, -6, -3, -2, -1, 0, -3, -3, 0
1503510462513,-8, -1, -2, -1, -2, -2, -1, -4, 0
1503510462535,-1, -1, -2, 0, 0, 1, 0, 3, 0
1503510462550,-18, 3, -1, 2, 1, -1, -4, -16, 0
1503510462573,33, 0, -5, -2, -1, -1, -1, -1, 0
1503510462594,-3, -3, -4, -2, -1, 0, -1, -16, 0
1503510462610,2, 2, 4, 1, 1, 0, 2, 5, 0
1503510462632,3, 6, 8, -2, -1, -1, 2, 6, 0
1503510462654,-6, -12, -2, 0, -1, 0, -2, -3, 0
1503510462670,-7, -6, -6, -2, 0, -1, 0, -6, 0
1503510462692,-3, 4, 10, 0, -1, 0, -2, -3, 0
1503510462714,14, 8, 0, 1, 1, 0, 4, 22, 0
1503510462723,-15, 12, 18, 4, 1, 0, -2, 1, 0
1503510462745,8, -5, -10, 1, -1, 0, 0, 3, 0
1503510462760,2, 4, 0, -1, 1, 0, 0, -9, 0
1503510462782,5, 2, 2, 1, 1, 0, -2, -2, 0
1503510462790,10, 3, -1, -2, -1, -2, 1, 6, 0
1503510462812,4, 4, 0, -3, 0, 0, -1, 1, 0
1503510462821,7, 1, -4, -3, -1, -1, -1, -2, 0
1503510462843,-17, -13, -3, -1, -1, -1, 1, 3, 0
1503510462866,12, 3, -3, 0, 1, -1, -1, 11, 0
1503510462887,-8, -3, -3, 0, -1, 1, -2, -13, 0
1503510462903,25, 10, -1, -1, -2, -1, -2, 3, 0
1503510462925,-26, -1, 1, -2, -2, -1, 3, -5, 0
1503510462947,-53, -5, 0, -1, -1, 0, -4, -22, 0
1503510462962,-10, -4, -4, -2, -2, -1, 1, -12, 0
1503510462985,0, 6, 3, 2, -2, -4, 1, 15, 0
1503510463007,-9, -8, 5, 1, 0, 0, -2, -2, 0
1503510463014,3, 2, -1, -1, -2, -2, -3, -6, 0
1503510463038,-26, -13, -4, 0, -1, -2, 0, 1, 0
1503510463059,-24, -4, 3, -1, -2, -2, -2, 1, 0
1503510463074,-8, -2, 3, -1, 0, 0, 2, 15, 0
1503510463097,3, 0, -1, 0, -1, 1, 3, 6, 0
1503510463112,12, -4, 8, 1, 1, -1, -5, -8, 0
1503510463138,1, -6, -1, -1, -2, -4, -2, -6, 0
1503510463157,-24, 49, 21, 2, 0, -1, 0, -5, 0
1503510463173,23, -14, -11, -3, -2, -1, 0, 2, 0
1503510463194,-9, -7, -3, -1, -2, -3, -3, 1, 0
1503510463217,14, -2, -3, -2, -3, 2, 3, 14, 0
1503510463233,13, -11, -6, -1, -3, -1, -7, -26, 0
1503510463254,6, -13, -8, -1, 1, 3, 2, 19, 0
1503510463277,-12, 10, -4, -2, -2, -1, -5, -15, 0
1503510463292,-17, -3, -8, -2, -2, -2, -3, -3, 0
1503510463308,7, -8, -7, -2, 0, 1, 0, -1, 0
1503510463322,-26, -13, 0, -2, -3, -1, 1, -13, 0
1503510463345,-28, -12, -4, -1, 0, 1, -2, 6, 0
1503510463371,3, 2, 6, 1, 2, 0, 2, 12, 0
1503510463382,14, -15, -6, 2, -2, 0, -3, 1, 0
1503510463406,-9, 12, -4, -3, 0, -2, -5, 3, 0
1503510463427,15, -21, -2, 2, 0, 1, 0, -3, 0
1503510463443,21, 6, 1, 1, -1, 1, 2, -15, 0
1503510463465,1, 0, 1, -4, -1, 2, -1, 3, 0
1503510463487,2, 9, 0, -2, -1, -7, -6, -6, 0
1503510463504,-28, 3, 11, 1, -4, -3, -6, -28, 0
1503510463525,-3, 43, -4, 0, -1, -4, 0, 20, 0
1503510463548,-24, -17, -8, -1, -3, -6, -6, 2, 0
1503510463562,27, -6, -2, -1, 0, 1, 5, 16, 0
1503510463585,27, -8, 2, -1, -2, 1, 2, 13, 0
1503510463608,-12, -10, -1, 1, 1, 1, 2, -6, 0
1503510463622,2, -3, -2, -2, 1, 2, -3, -30, 0
1503510463645,-17, -5, 5, 2, 1, -1, -1, -18, 0
1503510463667,-38, 4, -3, -2, -1, -2, -5, -10, 0
1503510463682,14, -1, -2, -1, -3, 0, 0, 4, 0
1503510463706,0, 3, 3, 0, -1, 0, -1, 14, 0
1503510463727,-2, 7, 2, 0, -1, 1, 2, 17, 0
1503510463743,3, -4, -4, -3, 1, 9, -3, -3, 0
1503510463758,0, -8, -2, 0, -1, 1, -4, -3, 0
1503510463781,-2, -12, 3, 1, -3, -6, 1, 4, 0
1503510463796,-26, -1, -2, -3, -2, 2, 1, -19, 0
1503510463818,-3, 9, 0, -2, -6, -7, 1, 5, 0
1503510463840,29, 37, 12, 2, 1, -3, -5, 2, 0
1503510463855,35, 7, 0, -1, -1, -2, -1, 9, 0
1503510463878,-36, -12, -6, -1, 1, 4, 4, 3, 0
1503510463901,15, -10, -8, 0, 1, 2, -1, 6, 0
1503510463908,3, -4, -5, -4, 0, 4, -6, -8, 0
1503510463930,10, -2, -4, 1, 0, -1, -4, -27, 0
1503510463945,-3, 9, -2, 0, 0, -2, 5, 7, 0
1503510463967,-24, -12, -7, -4, -3, -4, -5, 6, 0
1503510463990,-7, 1, 6, 4, 1, 2, 7, 16, 0
1503510464007,28, -24, -6, -6, -2, 1, 2, 10, 0
1503510464028,2, 13, 0, -3, -2, 0, -1, -12, 0
1503510464051,20, -6, -7, -2, 1, 2, 6, 13, 0
1503510464058,-3, 16, 9, 1, -2, 4, -3, -27, 0
1503510464084,-8, 2, 2, 3, -47, -62, -13, -19, 0
1503510464096,8, 4, -4, -16, 7, 6, 11, 18, 0
1503510464118,20, 13, 0, 0, 1, 9, 1, 9, 0
1503510464142,-9, 24, 6, 4, 4, 8, -4, -56, 0
1503510464155,10, 1, 2, 4, 9, -1, -4, 15, 0
1503510464178,14, -4, -3, -2, 8, 12, 11, 31, 0
1503510464200,2, 0, 4, 1, 4, 11, 3, -8, 0
1503510464215,-33, -8, -2, 0, 1, -3, -4, 2, 0
1503510464238,12, -1, 2, 2, -4, 17, 6, 17, 0
1503510464260,7, -5, -10, -5, -2, -9, -7, -14, 0
1503510464276,3, 15, 12, 1, 3, -2, -2, 15, 0
1503510464298,20, -22, -2, 2, 1, -5, -3, -18, 0
1503510464321,-42, -3, 1, 2, 1, -2, 4, 12, 0
1503510464344,-11, -5, -3, 1, -2, -1, 0, -4, 0
1503510464358,7, 0, -4, -3, 5, -1, 5, 40, 0
1503510464381,12, -11, 5, 4, -1, -4, -1, 1, 0
1503510464402,6, 15, -2, -3, 0, 2, 7, 25, 0
1503510464419,33, 5, 2, -1, 1, 0, 5, 8, 0
1503510464440,-9, -10, -4, 1, -2, -2, -2, -8, 0
1503510464463,10, -6, -6, -2, -4, -2, -2, -12, 0
1503510464479,28, -10, -7, -6, -1, -2, -1, -10, 0
1503510464500,-37, 5, 10, 0, 0, -3, -6, -1, 0
1503510464523,-23, -10, -10, -4, -1, 2, -4, -5, 0
1503510464539,-47, -1, 2, 1, 0, 0, -4, -28, 0
1503510464560,-6, 4, -4, -3, -3, -4, -5, -24, 0
1503510464582,2, -12, -4, -2, -4, -3, 2, 21, 0
1503510464598,16, -5, 4, 0, 2, 1, -2, 4, 0
1503510464620,-15, 3, -1, 2, 2, 2, 4, 6, 0
1503510464645,17, 7, 1, 0, -1, 0, 1, 35, 0
1503510464658,6, 2, 2, -1, -2, -1, -3, -4, 0
1503510464680,6, -9, -6, -2, -1, -1, -1, -1, 0
1503510464688,-8, 0, 5, 1, 1, 4, 0, 4, 0
1503510464711,5, -8, -5, 1, 0, 0, 1, 6, 0
1503510464732,-29, 2, 3, -1, 0, -2, 1, 6, 0
1503510464747,-4, -1, 2, -3, -1, -4, -6, 5, 0
1503510464770,-27, -2, -6, -4, -2, 0, 4, 10, 0
1503510464792,-2, -26, -10, -4, -3, -2, 0, -19, 0
1503510464807,5, -5, 1, -1, -1, 0, 1, 16, 0
1503510464830,51, 41, 10, 2, -2, -4, -2, 10, 0
1503510464853,1, 1, 0, 0, -1, 0, 0, 8, 0
1503510464867,-15, 1, 1, 0, 2, 3, -2, -1, 0
1503510464890,12, 7, 5, 1, 1, 4, 2, 2, 0
1503510464914,16, 7, -2, -1, -2, -2, -4, -4, 0
1503510464928,-8, -3, 3, -2, 0, -3, -1, -6, 0
1503510464950,-14, -12, -2, -1, -2, -2, 0, -9, 0
1503510464973,-8, -7, -2, -1, -1, -2, -3, -2, 0
1503510464989,-3, 3, -2, -2, -1, -4, -2, 7, 0
1503510465010,15, 0, 3, 4, 0, 0, 4, 8, 0
1503510465032,0, -1, -6, -3, -2, -4, -4, 0, 0
1503510465048,-32, -7, -4, 1, -1, 2, 2, -4, 0
1503510465070,8, -7, -5, -3, -1, 0, 1, 6, 0
1503510465092,5, -21, -6, -3, 0, 3, 0, -4, 0
1503510465107,-11, 4, 8, -1, -2, 0, 0, 2, 0
1503510465130,-4, -11, -6, -1, 0, 4, 2, 8, 0
1503510465152,3, -8, -2, 1, 0, -1, -4, -5, 0
1503510465160,-36, 3, -2, -1, 0, -1, -1, -6, 0
1503510465183,9, 10, 4, 1, 0, -2, -2, 11, 0
1503510465198,3, 10, 6, 0, 1, -2, 1, 9, 0
1503510465220,-29, -13, -6, 23, -1, -11, -1, -8, 0
1503510465243,-7, -5, -2, -6, 0, 4, -2, -15, 0
1503510465258,13, -6, -4, -6, -1, -1, -4, -5, 0
1503510465282,-27, -1, -5, -6, -1, -1, -2, -7, 0
1503510465303,-9, 11, 11, 3, -1, -2, 0, 8, 0
1503510465318,19, 16, -2, -8, -2, 3, -1, 6, 0
1503510465340,-2, -9, -4, -4, -5, 0, 0, -5, 0
1503510465363,11, -10, -4, -4, -1, 4, 1, 0, 0
1503510465378,9, -11, -1, -2, 0, -2, 1, -3, 0
1503510465400,-3, -9, 1, 1, -1, -1, -2, -3, 0
1503510465423,-1, -35, -13, -4, -1, -4, -1, 2, 0
1503510465438,-9, 11, 2, 0, 1, 1, 1, 8, 0
1503510465461,9, 3, -1, -2, -2, 0, -3, -3, 0
1503510465468,-13, 17, 2, 0, -2, 2, 2, 1, 0
1503510465490,-7, -11, -2, 0, 0, -1, -1, 3, 0
1503510465512,-5, -1, -3, -1, 0, -1, 1, -5, 0
1503510465527,10, 10, 5, 2, 1, 0, 3, 6, 0
1503510465552,-3, -4, -2, -2, -1, 1, 0, -3, 0
1503510465572,1, 3, -2, -1, -2, 0, -2, 0, 0
1503510465587,-11, 3, -3, 0, -1, -2, 2, 5, 0
1503510465610,-25, -13, 1, -2, -1, 1, 2, -1, 0
1503510465632,8, 2, -3, -1, -2, -1, -2, -1, 0
1503510465654,3, 7, 3, -1, 0, 1, -3, -5, 0
1503510465670,11, -1, 0, -1, -1, -2, -2, -2, 0
1503510465692,-12, 0, 1, 1, -1, 1, 0, -3, 0
1503510465714,-13, -11, -3, -1, 1, -1, -2, -3, 0
1503510465730,13, 2, -2, -1, -1, 0, 1, 0, 0
1503510465753,2, 0, -4, -1, -2, -1, 0, 5, 0
1503510465775,-16, -8, -2, 1, -2, -4, -2, -11, 0
1503510465791,-29, -3, -2, -1, -4, -2, -1, 0, 1
1503510465812,4, -5, -1, 0, 1, 0, 1, 1, 1
1503510465834,2, 7, -1, 0, -2, 0, -1, -3, 1
1503510465850,24, -2, 0, 0, 0, 1, 0, 2, 1
1503510465873,3, 7, 0, -2, 0, 0, 2, 2, 1
1503510465881,21, -8, -1, 1, 0, -2, -1, -2, 1
1503510465903,-17, 4, 1, -1, -1, 0, 1, -1, 1
1503510465925,14, 5, -2, 0, 0, 1, -2, 0, 1
1503510465940,-13, 6, -1, -2, -1, -1, -2, -1, 1
1503510465964,10, -3, -3, -2, -2, -1, -3, 1, 1
1503510465985,6, -5, -4, -2, 1, -1, 1, -2, 1
1503510466000,21, 2, 1, -1, 1, 0, 1, -2, 1
1503510466023,-21, -7, -2, -1, -1, -2, 0, -2, 1
1503510466045,7, -1, -1, 0, -3, -1, -1, -2, 1
1503510466060,-8, 16, 4, 1, -1, -1, 0, 4, 1
1503510466082,8, -5, -2, -1, -2, -1, -2, -1, 1
1503510466105,-1, -2, 1, 0, -1, 1, 0, -3, 1
1503510466122,0, -1, -4, -1, -2, -1, -2, -2, 1
1503510466143,-21, 22, 4, 0, -1, -2, -2, -2, 1
1503510466165,8, -17, -9, -2, -3, -3, -3, -4, 1
1503510466181,-14, -10, -2, 0, -1, -2, 1, -1, 1
1503510466203,-18, -11, -1, -2, 0, 1, 1, -3, 1
1503510466225,17, 4, 6, 0, 0, 0, 1, 4, 1
1503510466240,-2, -9, -6, 0, 0, 0, 0, 2, 1
1503510466258,1, -2, 1, 0, -1, -1, 0, -3, 1
1503510466270,4, -5, -7, -1, -3, -3, -4, -1, 1
1503510466293,1, 5, -1, 0, -2, 0, -1, -3, 1
1503510466314,-34, -10, -1, -2, -2, -2, -2, -6, 1
1503510466330,5, 6, 0, -2, -2, 1, 3, 6, 1
1503510466352,14, -4, 0, 2, 3, 0, -3, -26, 1
1503510466374,-6, -4, -4, -2, 0, 1, 1, 26, 1
1503510466392,-19, 16, 5, -1, -1, -1, 0, -5, 1
1503510466412,21, -7, -3, 1, 1, 1, 2, 0, 1
1503510466435,-5, -2, -1, 1, -1, -1, 0, -2, 1
1503510466450,12, -1, -3, -3, -2, -1, 0, -2, 1
1503510466467,4, -7, -1, 0, 0, -1, 0, -1, 1
1503510466481,-15, -9, 2, -2, 0, -2, -2, -3, 1
1503510466502,-8, -6, -2, -2, -1, -2, -3, -2, 1
1503510466527,1, 3, -1, -1, -1, 1, 0, -1, 1
1503510466533,-8, 2, -2, -2, -2, 2, -1, -5, 1
1503510466555,-22, 1, 0, 1, -2, -5, -5, -3, 1
1503510466570,11, -7, -6, -1, -1, -3, 1, 10, 1
1503510466593,-1, 10, -1, -2, 0, 0, 0, 2, 1
1503510466615,7, -4, -1, -1, 0, 1, -1, -4, 1
1503510466637,25, 5, 2, 0, -3, 0, 0, 1, 1
1503510466652,-11, 2, 3, 0, 1, 0, 1, 0, 1
1503510466675,2, -9, -3, 0, -1, -1, -2, -2, 1
1503510466697,-13, -9, -3, -1, -1, -2, 1, -4, 1
1503510466712,-38, -9, 0, -2, 0, -2, -3, -4, 1
1503510466735,22, -1, -1, 0, -2, -2, -2, -2, 1
1503510466757,5, -2, -2, -2, 1, 0, -4, -5, 1
1503510466765,-7, 1, 10, 2, 0, -1, 0, -4, 1
1503510466802,-4, -4, -4, -2, -1, 2, 3, 6, 1
1503510466817,6, -1, -4, -1, 0, -2, -1, -3, 1
1503510466832,-5, 5, 6, -1, -2, -1, -2, 1, 1
1503510466855,-9, -2, 0, 0, 1, -3, 0, -1, 0
1503510466877,20, 5, -3, -3, -1, 1, 0, -1, 0
1503510466894,-7, -4, -2, -1, -1, 0, 0, -1, 0
1503510466915,15, -2, -1, -2, 0, -4, -2, 4, 0
1503510466937,-5, -4, -5, -3, -1, 0, 0, -2, 0
1503510466952,-4, -2, 0, 1, -1, -1, 0, -3, 0
1503510466975,-10, 0, 4, 1, -1, 1, -2, -2, 0
1503510466997,-6, -9, -6, -3, -2, -3, -3, -5, 0
1503510467012,-11, 0, -4, -4, -3, 0, 2, -1, 0
1503510467035,-9, -6, -1, 2, 2, -2, -1, 1, 0
1503510467057,-12, -5, -1, 1, -1, 1, -1, -4, 0
1503510467072,1, 2, 1, -2, 0, -1, 1, 5, 0
1503510467096,17, -1, -2, -2, -1, 2, 3, 2, 0
1503510467117,18, 11, 3, -2, -2, -3, -3, -4, 0
1503510467132,-1, 3, -4, 0, -3, 0, -1, 1, 0
1503510467155,-2, -11, -5, -2, -2, -1, -4, -4, 0
1503510467177,15, 6, 1, 2, 1, 3, 5, 5, 0
1503510467192,4, 6, 0, 0, 0, -3, -1, 0, 0
1503510467215,-21, -7, -1, 0, 0, 0, -1, -3, 0
1503510467237,-6, 6, 5, -1, -2, -3, -4, 3, 0
1503510467252,2, -1, 0, -2, -1, -4, -2, -4, 0
1503510467275,-2, -8, -3, -1, -3, -2, -3, -3, 0
1503510467297,-4, -10, -6, -2, -3, -1, 0, 5, 0
1503510467312,-10, -10, -2, 0, 0, 1, -1, -2, 0
1503510467335,-8, 1, -7, -2, 0, 1, 0, -3, 0
1503510467357,-18, 22, 5, 0, -2, -3, -2, -9, 0
1503510467372,-2, 0, 4, 2, 3, 1, 0, -4, 0
1503510467395,14, -11, -4, -2, -1, -2, -2, -3, 0
1503510467417,-7, -3, 0, 0, 0, 0, 1, 1, 0
1503510467432,-10, 0, -1, 1, 0, -2, 1, 1, 0
1503510467455,26, -1, -1, -1, -1, 0, -1, 2, 0
1503510467477,30, 7, 3, 1, 0, -2, -5, -2, 0
1503510467492,-8, -2, -2, 0, -1, -1, 0, -2, 0
1503510467515,3, -2, 0, 0, -1, 0, 0, 3, 0
1503510467536,-21, -3, 4, 0, 0, -3, -4, -5, 0
1503510467559,-1, 6, -2, 0, -1, -1, -1, -2, 0
1503510467575,-22, -8, -6, -4, -2, 1, -2, -6, 0
1503510467599,-17, -9, -6, -6, -2, -1, 4, 4, 0
1503510467619,-20, 9, 1, -1, -1, -2, -3, -3, 0
1503510467635,8, 3, -2, -1, -3, -3, -6, -5, 0
1503510467657,8, -15, -2, 3, 1, -3, 0, 2, 0
1503510467679,-1, -5, 4, 2, 1, -1, -2, -4, 0
1503510467695,8, -2, -4, -5, -2, 0, -1, 4, 0
1503510467716,-6, 1, 0, 0, 1, 0, 2, 4, 0
1503510467740,2, 4, 2, 1, 1, 1, 0, 5, 0
1503510467755,3, 8, 0, -2, 1, 1, 0, -3, 0
1503510467777,-5, -10, -1, -1, -2, 1, 0, -2, 0
1503510467800,-7, 12, 7, 2, 1, -2, 1, 1, 0
1503510467815,10, -4, -2, -4, -3, -1, -2, 0, 0
1503510467837,6, 0, -7, -2, 1, 4, 5, 2, 0
1503510467859,-11, 0, -3, 1, -1, -3, -3, -6, 0
1503510467875,18, 12, 8, 5, 3, -2, -1, 2, 0
1503510467896,16, 19, 6, 0, -2, 2, 1, 3, 0
1503510467919,-4, -11, -9, -6, -7, -1, 5, 5, 0
1503510467935,-8, -11, -5, -3, -1, -3, -4, -10, 0
1503510467957,-18, -7, 0, 0, 0, -2, -2, -6, 0
1503510467979,0, 10, 4, 3, 1, -2, -1, -2, 0
1503510467995,-10, 50, 4, 0, -1, -3, -3, -6, 0
1503510468016,4, -3, -3, -3, 0, 1, 1, -3, 0
1503510468039,10, -16, -2, -3, -1, 3, 2, 8, 0
1503510468055,13, -7, -2, -2, -4, -4, -5, 1, 0
1503510468078,-10, -27, -7, -2, -1, -2, 0, 0, 0
1503510468099,29, 15, 0, -3, 0, 1, 3, 9, 0
1503510468115,-8, -10, -2, -2, -1, 1, 0, 2, 0
1503510468136,1, 12, 0, -1, -1, -1, -2, -3, 0
1503510468145,-2, -12, 1, 3, -3, 0, 1, 2, 0
1503510468167,0, 3, 2, 1, -2, -3, -1, 0, 0
1503510468190,-18, -6, 0, 0, 1, -3, -1, 0, 0
1503510468210,-2, 1, -6, -3, -2, 0, 4, -3, 0
1503510468227,-10, -6, -1, -1, 0, -4, -3, -3, 0
1503510468250,3, -4, -1, -1, 0, 11, 1, -3, 0
1503510468265,7, -1, -3, -1, -1, 3, 1, -1, 0
1503510468287,-12, -1, 0, -2, -1, -5, -4, -8, 0
1503510468310,-2, -2, 0, 0, 1, -2, 0, 2, 0
1503510468325,10, 3, 0, 0, -3, -1, 0, 4, 0
1503510468347,-15, -18, 0, 1, -1, -3, -2, -5, 0
1503510468355,-2, 3, 3, 2, -3, -2, -2, 0, 0
1503510468377,-8, -4, -4, 0, 1, -2, -1, -6, 0
1503510468399,-2, 2, 2, 0, 1, -1, 0, -1, 0
1503510468415,-11, 5, -1, -2, -2, -1, -3, -4, 0
1503510468438,-2, -3, 0, 0, 1, 1, -1, -2, 0
1503510468459,19, -5, -4, -1, -2, 0, 0, 0, 0
1503510468482,-16, -2, -2, -1, -2, -2, -2, -4, 0
1503510468496,11, 1, 2, 3, 0, -2, -1, 0, 0
1503510468519,15, 6, -1, 0, -1, 1, 1, 3, 0
1503510468542,3, -4, -2, -3, -3, -1, 0, 1, 0
1503510468557,-8, -9, -1, 0, -1, -1, -1, -3, 0
1503510468579,-29, -14, -6, -3, -2, -3, -1, -4, 0
1503510468601,24, 13, 5, -2, 0, -1, -3, 0, 0
1503510468617,-6, -4, 1, 0, 0, 2, 1, 2, 0
1503510468655,-11, -9, -1, -2, 0, -1, -1, -1, 0
1503510468663,-2, -4, -5, -2, -1, 2, 1, -2, 0
1503510468685,20, 0, -6, -2, 0, -1, 0, 0, 0
1503510468700,8, 5, 4, 1, -2, -1, -2, -1, 0
1503510468723,-2, -7, -4, 1, -1, -2, 1, 0, 0
1503510468746,-11, 1, 2, 2, 0, -3, -3, -7, 0
1503510468760,10, 21, 6, 1, -1, -2, 0, 3, 0
1503510468784,-7, 3, 1, -1, -2, 0, -1, -1, 0
1503510468809,-12, -10, -5, -2, 2, 0, -2, -5, 0
1503510468821,-10, -7, -3, 0, 1, 2, -1, 1, 0
1503510468846,-4, 8, 3, -1, -2, -3, -3, 4, 0
1503510468867,-32, -6, 1, -2, 1, 0, -2, -11, 0
1503510468881,3, -6, -5, -4, -3, -1, 1, 3, 0
1503510468903,6, -3, -5, -2, -3, 0, -1, -1, 0
1503510468925,13, 6, 4, 0, -1, -2, -1, 0, 0
1503510468941,8, -5, -5, 0, -1, -3, -1, -1, 0
1503510468963,6, 5, -2, -2, 2, 1, 1, 6, 0
1503510468986,-9, 17, 6, -2, -2, -3, -2, -4, 0
1503510469000,28, 3, 2, 2, -1, 0, 1, 1, 0
1503510469023,0, -5, -6, -1, 0, 0, 0, -1, 0
1503510469046,-10, -2, 0, 1, -2, -2, 0, -3, 0
1503510469060,-8, -7, 0, -1, -1, -1, -1, 0, 0
1503510469083,-7, 16, 10, 0, -1, 0, -1, 0, 0
1503510469105,11, -7, -1, 1, -1, -2, 0, 0, 0
1503510469120,-16, -26, -8, -1, -3, -2, -3, -6, 0
1503510469144,12, 8, 2, 0, -1, -1, -2, -2, 0
1503510469165,-7, 3, -2, -3, -1, -3, -4, 1, 0
1503510469180,-10, -7, -7, -2, 1, 2, 3, 3, 0
1503510469203,-6, -4, -5, 0, 0, 2, 3, -4, 0
1503510469225,-3, 10, 5, -2, -2, -1, 0, -1, 0
1503510469240,-13, -2, -3, -2, 2, 0, -2, -5, 0
1503510469263,3, 2, -3, -1, -1, -2, 0, 0, 0
1503510469287,4, -1, -2, -1, -1, 0, -2, 2, 0
1503510469301,4, -1, 0, -1, 0, -1, 1, 4, 0
1503510469323,-7, 19, 1, 1, -1, -3, -1, -2, 0
1503510469346,-4, -10, -2, 0, -2, -1, -1, -2, 0
1503510469360,11, 14, 8, 1, 0, -1, -3, 1, 0
1503510469383,-5, -10, -7, -4, -2, -1, -2, -4, 0
1503510469406,6, -13, -1, 0, 0, 0, 0, 1, 0
1503510469422,8, -6, -5, -3, 0, -2, -2, -1, 0
1503510469452,-4, 4, 2, 1, -2, 0, -3, 1, 0
1503510469472,31, 5, 2, -2, -2, 1, 0, 3, 0
1503510469495,10, -7, -5, 0, 0, 1, -1, -2, 0
1503510469511,7, 6, 4, 1, -2, -1, -2, -1, 0
1503510469528,-3, -4, -2, -1, 0, 1, -1, -1, 0
1503510469540,30, 5, 3, 1, -2, 0, -3, -4, 0
1503510469563,-4, -1, 2, 1, -1, -1, 0, -1, 0
1503510469585,-7, -9, -5, -2, -1, -2, -2, -4, 0
1503510469600,0, -7, 0, -1, 0, 2, 0, 0, 0
1503510469623,-7, -4, -3, 0, -1, -2, 0, 0, 0
1503510469648,-1, 2, 3, -1, -2, 0, 0, 1, 0
1503510469660,3, 11, -1, 0, -1, -2, -1, 0, 0
1503510469684,-9, -4, -1, -1, 1, -2, -1, 0, 0
1503510469705,-9, 8, 3, -1, -1, 1, 1, -1, 0
1503510469720,-5, -5, -2, -2, 0, -1, 0, -5, 0
1503510469743,3, 15, 9, 0, -1, -2, 0, 4, 0
1503510469765,0, -10, -7, 0, -2, 0, 1, 0, 0
1503510469781,2, -3, -6, 1, -1, -2, -1, -2, 0
1503510469803,-4, -5, -3, 0, 0, -1, -1, 0, 0
1503510469825,0, 2, -3, -2, -1, 0, 1, 1, 0
1503510469840,14, -8, -4, -2, -1, 1, -2, -4, 0
1503510469863,-2, 22, 11, 2, -1, -2, -1, 0, 0
1503510469886,-11, -9, -5, -4, -2, 1, -2, -2, 0
1503510469900,-1, -7, 0, -1, -1, -1, -1, 0, 0
1503510469923,0, -8, -3, -1, 1, -1, 2, 0, 0
1503510469930,5, 6, -1, 2, -1, -1, 0, -2, 0
1503510469953,3, 1, -1, 0, -1, 0, -2, -3, 0
1503510469975,-14, 4, 3, -1, 0, -2, -2, -1, 0
1503510469991,-5, -13, -4, 0, 0, -1, 0, -2, 0
1503510470012,-3, -8, -2, -3, -2, -1, -4, -3, 0
1503510470035,3, -2, -1, -1, 0, 0, 1, -1, 0
1503510470051,3, 5, 0, 1, 0, 0, -3, 0, 0
1503510470072,5, -5, -4, -3, -2, -2, 0, 1, 0
1503510470095,1, -3, -3, -4, -1, 0, 0, 3, 0
1503510470110,5, 2, -1, 0, -1, 0, 1, 0, 0
1503510470132,-7, 2, -1, 0, 0, -1, 0, 0, 0
1503510470155,-14, 1, 5, 1, 0, 0, -2, -5, 0
1503510470170,14, -2, -2, -1, -2, -2, -3, 3, 0
1503510470192,3, 20, 5, 0, 0, -2, 3, -1, 0
1503510470215,5, 0, -1, 0, -2, 0, 0, 1, 0
1503510470230,-3, 1, -1, 1, 1, -1, 0, 0, 0
1503510470252,11, -4, -3, -4, -2, -2, -1, 3, 0
1503510470275,6, -12, -3, -1, -1, 0, 0, 1, 0
1503510470290,-9, 14, 8, 2, 0, -1, -1, -2, 0
1503510470312,-6, -4, -5, -3, -2, 0, -2, -2, 0
1503510470335,3, -7, -4, -1, 0, 0, -1, -2, 0
1503510470357,-3, -5, -3, 0, 1, 0, -1, -3, 0
1503510470372,1, -2, 1, -1, 0, -2, -3, -2, 0
1503510470395,2, 4, 6, 0, 1, -1, 2, 2, 0
1503510470419,-2, -4, -3, -1, 0, -2, -1, -3, 0
1503510470432,-5, -11, -6, -3, -4, 0, 0, -2, 0
1503510470455,1, -2, -1, -1, -1, 0, -1, -1, 0
1503510470477,5, 5, -1, 1, 0, -1, 1, 0, 0
1503510470492,-2, -3, -1, -1, -1, -1, -3, 0, 0
1503510470515,7, -6, -2, -1, -1, -2, -1, -3, 0
1503510470537,6, 5, 2, -2, -1, 1, 0, 0, 0
1503510470554,2, 9, 6, 3, -2, 0, -1, -1, 0
1503510470575,-9, -12, -7, -3, -1, -1, -1, 0, 0
1503510470597,7, 2, -4, -1, 0, 1, 2, 2, 0
1503510470612,-2, 0, 2, 0, -1, -2, 0, 0, 0
1503510470634,-12, 3, -1, -1, -2, -2, -3, -2, 0
1503510470657,-25, -6, -8, -1, -1, 0, -1, -5, 0
1503510470672,4, 6, 8, 0, 0, -3, -3, -1, 0
1503510470696,-8, -1, 0, 0, -2, 0, -2, -4, 0
1503510470717,-18, 10, 2, -1, 0, 0, 1, -2, 0
1503510470733,3, -10, -2, -1, -1, 1, -1, 0, 0
1503510470755,2, -7, -3, 0, 0, -1, 0, -1, 0
1503510470777,6, -2, -1, -1, -2, -2, 0, -2, 0
1503510470792,9, 5, -2, -1, -2, -2, -3, 4, 0
1503510470814,-33, -8, -1, 1, 0, -1, -2, -11, 0
1503510470837,-34, -1, -5, -3, -1, -1, 2, 0, 0
1503510470852,19, -1, -1, -3, -1, 1, -1, 2, 0
1503510470874,9, -3, 1, -1, -2, 0, 1, -1, 0
1503510470898,16, 2, -1, 0, 0, -2, -2, 2, 0
1503510470912,7, 5, 4, 1, -1, -2, 0, 0, 0
1503510470934,13, 3, -2, 1, -1, -1, 0, 4, 0
1503510470943,-2, -4, -1, -2, 0, -1, -1, 0, 0
1503510470965,-3, 6, 11, 3, -2, -1, 0, 1, 0
1503510470989,1, -8, -6, -2, -1, 0, -1, -3, 0
1503510471002,3, 3, 0, -1, 1, -2, -1, -2, 0
1503510471017,2, 15, -3, -2, 0, -1, -2, -4, 0
1503510471032,1, -1, -4, -4, -2, -2, -1, 2, 0
1503510471056,-7, -8, -1, -1, -1, -2, 0, 0, 0
1503510471077,-5, -4, 1, -1, -1, 0, -1, -2, 0
1503510471094,7, 1, -1, 2, 1, -1, 0, -1, 0
1503510471114,-15, -6, 2, 0, -1, 0, -1, -8, 0
1503510471124,-1, -1, 0, -4, 0, -1, 1, -3, 0
1503510471145,0, -5, -4, -1, -3, 1, 1, 0, 0
1503510471167,4, -6, 0, -1, 1, -2, -1, -2, 0
1503510471182,13, -3, 0, 0, 0, 0, 0, 1, 0
1503510471197,-8, 11, 2, -2, 1, -1, 0, 2, 0
1503510471212,-4, 15, 5, 0, -1, 0, 1, 1, 0
1503510471235,4, -5, -5, -1, -2, -2, -1, 1, 0
1503510471258,13, 9, -2, -1, -3, -3, -4, 4, 0
1503510471265,8, 1, 2, -2, 0, 0, 2, -2, 0
1503510471287,-1, -6, -2, -1, -1, -1, -1, 12, 0
1503510471310,-1, 5, 0, -1, -2, 0, -1, -6, 0
1503510471326,-2, -2, -2, -2, -3, 0, -1, -2, 0
1503510471347,31, -10, -3, 0, 1, -1, 3, 1, 0
1503510471370,-41, -4, 1, 0, -3, 0, -3, -5, 0
1503510471385,3, 1, -4, -3, 2, 1, 0, -7, 0
1503510471407,10, 6, 2, 0, -2, -3, 3, 24, 0
1503510471430,-5, 4, 1, -1, -1, -1, -3, -7, 0
1503510471445,-10, -27, -9, -2, -1, -3, -4, -3, 0
1503510471468,-5, 6, 1, -1, 1, 0, -2, -3, 0
1503510471490,0, -5, 1, -1, -1, 0, -1, -2, 0
1503510471505,-2, -1, -2, 1, 1, 2, -3, -10, 0
1503510471528,11, 3, -4, 0, 0, -1, -2, 12, 0
1503510471550,-14, 4, 9, 2, -1, 0, 1, -13, 0
1503510471565,-12, -10, -1, 0, -2, -3, -3, -7, 0
1503510471587,11, 3, 0, -3, -1, -2, 1, 27, 0
1503510471610,-6, 6, -1, -1, 0, -2, 0, -10, 0
1503510471628,-7, 1, -1, 2, 0, -1, 1, 1, 0
1503510471647,-19, 14, 5, -1, -2, 0, 3, -1, 0
1503510471671,-5, -24, -5, -1, -3, 0, 2, 5, 0
1503510471685,12, 2, -3, -2, -1, 1, -1, -31, 0
1503510471708,5, -4, -1, -1, -3, -6, -5, -3, 0
1503510471730,17, 5, -3, -1, 0, -3, -2, 8, 0
1503510471745,-13, -3, -1, -3, -3, -2, -1, 1, 0
1503510471767,-5, -3, 0, -1, 2, 3, 1, 2, 0
1503510471790,9, -9, -1, 0, 1, -1, -1, 11, 0
1503510471805,-17, -13, -6, -2, 0, 0, 3, 9, 0
1503510471831,21, 1, -6, -2, -1, 0, -2, -6, 0
1503510471850,3, -18, -12, -3, -3, -6, -4, -10, 0
1503510471865,21, 28, -13, -1, -2, 0, -1, 2, 0
1503510471887,-3, -1, -5, -4, -3, 1, -1, 5, 0
1503510471910,-10, 0, 1, 0, 1, 5, -1, -10, 0
1503510471925,-11, 8, 10, 37, 32, -24, -9, -9, 0
1503510471947,-12, 2, 6, -15, -17, 3, -6, -14, 0
1503510471970,16, -5, 7, 1, -5, 2, 3, 20, 0
1503510471985,-17, -11, -10, -3, 1, 1, 1, -18, 0
1503510472007,2, 13, 7, -5, 0, 0, 4, 5, 0
1503510472031,-3, 2, 1, 4, 9, -1, 2, 13, 0
1503510472038,2, -1, 3, 4, -1, 1, 2, 26, 0
1503510472059,-16, 0, -6, -3, 0, 5, 9, 23, 0
1503510472074,9, 28, 4, -3, -2, -1, -3, -6, 0
1503510472098,12, 1, 1, 0, 0, 0, 0, -8, 0
1503510472119,34, 5, 0, 0, -1, -2, 0, 10, 0
1503510472135,6, -8, -5, 0, -1, 2, -1, -4, 0
1503510472157,-3, 2, 6, 1, 2, 1, 0, -5, 0
1503510472179,-46, -3, -1, -1, -2, -1, -7, 3, 0
1503510472201,24, -10, -1, 0, -2, -3, -7, -15, 0
1503510472217,46, -9, -8, -1, -1, 1, 1, 24, 0
1503510472240,-7, -6, 1, 0, 0, 1, 3, 14, 0
1503510472247,-15, -11, -2, -4, 1, 2, -1, 8, 0
1503510472270,-26, 6, -1, -2, -1, -1, -4, -24, 0
1503510472292,22, -10, -1, -1, -1, 1, -1, 3, 0
1503510472309,2, 2, -4, 1, 0, -3, 2, 7, 0
1503510472331,-33, -13, 3, 0, -2, -1, -1, -1, 0
1503510472352,17, -5, -6, -1, 1, 0, -4, -22, 0
1503510472370,41, 6, 3, -2, 1, -1, -6, -3, 0
1503510472390,-9, -3, 1, 0, -1, 3, 1, 1, 0
1503510472412,10, 11, 2, 1, -1, -2, 0, 8, 0
1503510472428,15, -22, -3, 1, 0, -1, -1, -2, 0
1503510472442,2, -10, -4, -1, 1, 0, 5, 27, 0
1503510472457,-22, -4, 0, -1, 1, -3, -6, -7, 0
1503510472479,5, 3, -2, -3, -2, 0, 0, -5, 0
1503510472501,14, 10, 5, 1, -1, 8, 1, -11, 0
1503510472510,2, 6, 0, 0, 2, 5, 7, 15, 0
1503510472533,-30, -5, -10, -7, -5, -7, -6, -22, 0
1503510472547,-7, 38, 4, -1, 3, 3, 3, 27, 0
1503510472570,10, -13, -3, 0, -2, 1, 1, 18, 0
1503510472592,0, -6, -1, 13, 2, 0, -3, -3, 0
1503510472607,12, -3, 1, -5, -3, -3, -3, -8, 0
1503510472630,-27, -29, 1, -3, -1, 0, 2, 7, 0
1503510472652,13, -5, -8, -3, -2, 1, -1, -4, 0
1503510472669,4, -29, -5, -5, -1, 0, 0, 3, 0
1503510472689,-33, -16, -8, -2, -2, -3, -1, 3, 0
1503510472712,16, -2, -3, -1, -2, 1, -2, 12, 0
1503510472728,30, 18, -4, -5, 0, -3, 1, -4, 0
1503510472749,-2, -1, -2, -2, 0, 2, -4, -8, 0
1503510472772,9, 18, 3, -7, 2, -6, 4, 7, 0
1503510472787,1, 5, 6, 7, 4, 1, -3, -13, 0
1503510472811,13, -13, -5, 1, -4, -3, -3, -5, 0
1503510472832,-6, -3, -1, -7, 1, -3, -5, -29, 0
1503510472848,-2, 6, 2, 0, -2, 3, 1, -9, 0
1503510472871,0, 3, -2, 35, -4, -7, -4, 0, 0
1503510472892,-5, 1, -2, -5, 0, -5, -7, -21, 0
1503510472909,7, 31, 6, 5, -4, -3, 2, 9, 0
1503510472930,-20, 17, 5, -6, 1, 0, 0, 11, 0
1503510472952,3, -11, -2, -13, -2, 0, 2, 20, 0
1503510472971,9, -9, -1, 4, 0, 1, 0, 34, 0
1503510472990,13, -7, -4, -5, 1, 10, 14, 42, 0
1503510473012,-7, -9, -1, 7, -3, -9, 1, -13, 0
1503510473028,-7, -17, -4, -8, -4, 3, 0, -6, 0
1503510473050,26, -3, -3, -4, -8, -2, 1, -14, 0
1503510473072,36, 17, 0, -6, -1, 0, -7, 9, 0
1503510473087,-19, -7, -3, -1, 1, -1, -9, -17, 0
1503510473110,-3, 9, 4, 1, 2, 0, 4, -15, 0
1503510473132,-28, -10, 2, 0, 1, 8, 2, -7, 0
1503510473154,-61, -6, -4, -5, 1, -3, -1, -1, 0
1503510473171,-29, -3, -1, 1, 0, -5, -14, -50, 0
1503510473192,8, -2, 6, 1, 0, -2, 6, 29, 0
1503510473215,24, 3, -5, -5, -4, -5, -10, 2, 0
1503510473230,5, -18, -3, 1, 0, 1, -7, -14, 0
1503510473252,27, -13, -7, -1, 1, -3, 1, 14, 0
1503510473275,17, 22, 7, 2, 0, 3, 11, 9, 0
1503510473289,0, 11, 9, 0, 2, 2, 1, 4, 0
1503510473312,-33, -22, -5, -3, -2, 0, 2, 6, 0
1503510473334,4, 4, -1, -1, -2, -1, -4, -10, 0
1503510473350,21, 10, -2, -1, -1, -4, -1, 8, 0
1503510473373,-6, 15, 6, -1, 2, 2, 0, -14, 0
1503510473394,-21, -16, -6, -1, -1, 0, -2, -7, 0
1503510473410,18, 7, 4, 2, 2, 2, 3, 4, 0
1503510473432,-7, 50, 2, -4, -4, -2, -1, 0, 0
1503510473455,-13, -31, -6, -2, -2, -2, -8, -11, 0
1503510473469,-22, -19, -3, -3, -2, -3, 0, 10, 0
1503510473492,4, -3, 4, 0, 1, 1, 1, -5, 0
1503510473515,16, 6, 1, 0, -1, 1, 0, -18, 0
1503510473530,11, 4, -5, -2, -1, -2, -1, 30, 0
1503510473552,15, -20, -5, 0, -2, -1, 0, 10, 0
1503510473575,-12, 1, 3, 2, 1, 5, 6, 2, 0
1503510473590,3, 1, -4, 0, 0, -2, -3, -5, 0
1503510473613,-16, -10, -5, -1, 1, 11, 3, -11, 0
1503510473620,-70, -4, 4, 1, 0, -1, 3, -12, 0
1503510473635,-25, 4, 0, -2, -3, -5, -7, -13, 0
1503510473650,-5, 7, 2, 2, 0, -2, 5, -3, 0
1503510473664,-5, -10, -2, -2, 1, 2, -3, 2, 0
1503510473680,30, 6, -3, -3, -2, -5, -3, 9, 0
1503510473701,11, 2, 0, -11, 2, 4, 7, 11, 0
1503510473724,43, 13, -2, 5, -1, 0, 3, 7, 0
1503510473741,-12, -17, -4, 3, -1, -2, -1, -2, 0
1503510473761,-3, 1, -1, -6, -5, -4, -5, 6, 0
1503510473784,0, 7, -3, -2, 0, 2, -2, -8, 0
1503510473799,-13, -5, 2, -2, 0, -2, -6, -17, 0
1503510473821,-21, -10, 2, 2, 0, -3, -6, -9, 0
1503510473846,-21, -6, -2, 0, -3, -2, 1, 47, 0
1503510473868,5, 3, -4, -3, 1, 3, 1, -9, 0
1503510473883,22, 10, -1, -8, -1, -5, 0, -4, 0
1503510473905,-15, -5, -3, -9, -2, 2, -11, -15, 0
1503510473928,-21, -9, -6, 0, 1, -1, 0, -27, 0
1503510473935,-21, 4, 1, 0, -1, 1, -4, 13, 0
1503510473950,25, 5, -4, -7, 0, 6, 4, 15, 0
1503510473972,11, 29, 14, -2, 0, -1, 0, -6, 0
1503510473994,-17, -15, -8, -3, -1, 1, 1, -5, 0
1503510474017,39, 42, 9, 2, 0, -1, -2, 3, 0
1503510474032,2, -2, -7, -1, -2, 3, -2, -4, 0
1503510474055,-19, -41, -7, -4, -2, -4, -4, -6, 0
1503510474079,-25, -4, 1, -2, 0, -2, -1, -8, 0
1503510474092,20, -14, -5, -3, 0, 0, 1, 6, 0
1503510474115,-21, -2, 1, 2, 1, 2, 0, -8, 1
1503510474137,-12, -7, -3, -2, -2, -3, -5, -18, 1
1503510474153,14, -1, -5, -2, -1, -3, -1, 8, 1
1503510474174,-3, 7, 2, -1, 0, 1, 5, 16, 1
1503510474183,8, -1, 2, 2, 0, -2, -2, -8, 1
1503510474205,11, 7, 1, -1, 0, 1, 0, 7, 1
1503510474227,18, 3, 2, 1, -1, 1, 1, 4, 1
1503510474242,1, 3, -3, 1, 1, -2, 0, 3, 1
1503510474265,7, -1, 0, 1, -1, 0, -2, -11, 1
1503510474287,-5, -3, -1, -1, -2, 0, 2, -4, 1
1503510474294,-3, 0, -1, 1, 1, 0, 0, -2, 1
1503510474317,12, 4, -3, 0, 0, 0, 1, -5, 1
1503510474332,-1, -4, 0, 0, -2, 1, -1, -1, 1
1503510474355,-3, 1, -1, -1, -1, -1, -1, 2, 1
1503510474379,2, 6, -3, -2, -2, -2, -3, -4, 1
1503510474392,-12, 1, 1, -2, -3, -1, -1, -2, 1
1503510474415,-4, -1, -5, -1, -1, -3, 1, -2, 1
1503510474423,-19, -4, -1, 3, 2, 3, 4, 6, 1
1503510474449,-5, 17, 1, 0, -2, -2, 0, 1, 1
1503510474467,-17, -8, -2, 2, -1, -1, -1, -6, 1
1503510474490,33, 11, 2, -2, -2, -4, -5, -1, 1
1503510474505,-24, 5, 3, -2, -2, 2, 1, -3, 1
1503510474528,-5, -11, -4, -1, -1, -2, -2, -4, 1
1503510474551,0, -1, 1, 1, 2, 1, -1, -1, 1
1503510474565,-2, -5, -4, -2, 0, 0, -1, -5, 1
1503510474587,8, -15, -6, 1, -3, 0, 0, -4, 1
1503510474602,12, -5, -4, -3, -1, -2, 0, 0, 1
1503510474625,9, 1, 2, 1, -2, -1, -2, 1, 1
1503510474651,-4, -11, -3, 0, -2, -2, -1, 0, 1
1503510474662,-9, -10, 0, 0, 0, -1, 0, 1, 1
1503510474686,-26, 2, 0, -1, -1, 1, -2, -3, 1
1503510474708,21, 5, -2, -1, 2, -1, -2, 3, 1
1503510474723,-1, 4, 2, 1, 0, -1, 0, -2, 1
1503510474745,6, 5, -1, 0, -1, -1, 1, 3, 1
1503510474768,4, 3, 1, 2, 0, 0, 0, 3, 1
1503510474784,-5, -5, -1, -1, 0, -1, 1, -3, 0
1503510474805,-1, -17, -3, -2, -1, 0, -4, -1, 0
1503510474828,19, -4, -5, 0, -1, 0, -1, 0, 0
1503510474850,3, 4, -1, -3, -2, -2, 2, 1, 0
1503510474866,-18, 7, 3, 1, 0, -2, 2, 0, 0
1503510474888,-8, 8, 3, 1, 0, -1, -3, -5, 0
1503510474910,-2, -3, -3, -2, 0, 0, -3, -4, 0
1503510474925,-2, 5, 3, 1, 0, 1, -2, -3, 0
1503510474949,-19, 9, 2, 0, -1, -1, 1, -1, 0
1503510474955,-2, -4, -3, -1, 1, -1, 1, -3, 0
1503510474977,14, 0, -2, -1, -1, -1, -2, 0, 0
1503510474999,18, 3, 0, -1, 0, 2, 1, -1, 0
1503510475014,23, 13, 0, -2, -4, 0, -1, 1, 0
1503510475037,1, 5, 0, 0, 2, 0, 3, 5, 0
1503510475060,4, -6, -4, -2, 0, -2, -4, -4, 0
1503510475074,-7, -6, 0, 0, -2, -2, 0, 1, 0
1503510475097,-27, -15, -6, -2, -1, 0, -2, -7, 0
1503510475120,9, 4, 1, 0, -1, 1, 3, 4, 0
1503510475134,6, 4, 2, 0, 1, -1, 0, -4, 0
1503510475157,-11, 7, -4, -1, 1, 2, 3, 4, 0
1503510475179,-20, -7, -1, 0, -2, -5, -3, 0, 0
1503510475195,11, 3, 6, 4, -1, 1, 3, 5, 0
1503510475220,-16, -8, -4, -3, -2, 0, -2, -7, 0
1503510475239,30, 1, -1, -1, -1, -1, -2, -3, 0
1503510475255,-35, 1, 1, -2, -1, -1, -5, -9, 0
1503510475277,14, 20, 0, -1, -3, 1, 2, 14, 0
1503510475300,-3, -12, -3, 0, 2, 0, -4, -7, 0
1503510475314,-7, -4, -3, -4, -1, -2, 0, -5, 0
1503510475337,-10, -6, 0, 0, -2, 0, -3, -3, 0
1503510475360,3, 8, 1, 0, 0, -2, 2, -1, 0
1503510475374,9, 11, 9, 0, 2, 1, 1, 7, 0
1503510475397,10, -7, -4, -2, -2, -1, 0, 1, 0
1503510475421,-10, -24, -8, -2, -1, 1, 1, -2, 0
1503510475434,-17, 9, -1, -1, 0, 3, 1, -2, 0
1503510475457,17, 3, -2, -3, -2, -6, -6, -8, 0
1503510475479,28, -5, -2, -1, -1, 2, 3, 8, 0
1503510475494,-11, 12, 4, 2, 0, -1, -1, 2, 0
1503510475517,19, -6, -4, -3, -2, -2, -1, 6, 0
1503510475540,-9, 5, -1, -1, 0, -2, -3, -4, 0
1503510475555,-8, 2, -1, -1, 0, -2, 2, -5, 0
1503510475577,-17, -3, -3, 0, -2, -2, -2, 1, 0
1503510475599,-18, -10, -1, -1, -1, -3, -3, -6, 0
1503510475614,-1, 2, 2, -2, 0, 3, 1, 2, 0
1503510475637,-37, -16, -5, -4, -2, -5, -4, -14, 0
1503510475659,8, 2, 2, 1, 3, -2, -3, 0, 0
1503510475674,10, -4, -4, -2, -2, 0, -1, -4, 0
1503510475697,-25, -11, -5, -3, -3, -4, -4, -6, 0
1503510475720,27, 8, 0, -1, -2, 0, 1, 11, 0
1503510475735,10, 20, 4, 1, -2, -1, -2, 0, 0
1503510475758,-16, 1, -1, 2, 2, 3, 4, -1, 0
1503510475779,9, -25, -3, -2, -1, 2, -5, -10, 0
1503510475794,1, -9, -2, 2, -1, -1, 1, 2, 0
1503510475810,9, 9, 0, 0, 1, 3, 3, 0, 0
1503510475832,0, -17, -4, -2, 0, 0, 1, -3, 0
1503510475857,15, -2, -3, -1, -1, -3, -3, -9, 0
1503510475877,13, -5, 1, 1, 2, 1, -3, -5, 0
1503510475900,-9, -13, -7, -4, -4, -6, -6, -3, 0
1503510475924,2, -1, 2, 2, 1, -2, -3, 0, 0
1503510475937,2, 7, 3, -4, -2, 1, 2, 5, 0
1503510475960,-9, -2, -3, -1, 1, -1, -2, 1, 0
1503510475982,-13, 0, 4, 5, 2, -4, 0, -4, 0
1503510475997,13, 4, 5, 6, 4, 4, 5, 6, 0
1503510476019,4, -9, -2, -1, 0, -1, -1, 1, 0
1503510476042,8, 16, -2, -5, -2, 0, -1, 2, 0
1503510476058,-6, 1, 1, 2, 1, -2, -7, -19, 0
1503510476079,-3, -5, -9, -5, -6, 1, 6, 9, 0
1503510476102,3, -3, 1, 3, 3, 2, 2, -3, 0
1503510476117,17, 5, 1, -1, -1, -2, 4, 11, 0
1503510476139,22, -6, 1, 0, 1, -1, -2, 3, 0
1503510476162,-14, -5, -11, -7, -5, -1, -3, -6, 0
1503510476177,-21, -16, -3, -3, -1, 1, 1, -3, 0
1503510476200,0, 0, -2, -2, -1, 0, 4, 7, 0
1503510476221,-6, 8, 3, -1, -3, -2, 0, 5, 0
1503510476237,-17, 4, 2, -4, -1, -2, -5, -11, 0
1503510476260,-12, -6, -4, -1, 1, 5, 1, 2, 0
1503510476269,-2, 1, -2, -3, 1, 0, 0, -4, 0
1503510476289,-9, 1, 0, 0, 1, 1, -2, -4, 0
1503510476312,0, 1, -4, 1, -4, -2, 3, 3, 0
1503510476328,-12, -17, -6, -3, 0, -3, -1, -1, 0
1503510476350,14, 17, 5, -1, 0, 5, 0, 3, 0
1503510476372,-5, 3, 0, 0, -2, -2, -3, -4, 0
1503510476387,24, -2, 3, 0, 2, 0, -3, -1, 0
1503510476410,-2, 7, -1, -3, -2, 1, 2, -1, 0
1503510476432,5, 3, 6, 3, -1, -1, -2, 0, 0
1503510476447,-10, -18, -3, -1, 0, -1, 0, 0, 0
1503510476470,-3, 1, 0, -6, -1, -3, -4, -2, 0
1503510476494,-11, -9, -5, -1, 0, -1, -3, -7, 0
1503510476507,14, 16, 7, 4, -1, 0, 1, 4, 0
1503510476530,-11, -9, 0, -3, 1, -3, 1, -3, 0
1503510476552,-2, 19, -2, 0, -2, 0, -3, -3, 0
1503510476567,-3, -14, -3, -1, -2, 1, -1, -2, 0
1503510476590,-18, -3, -1, -3, -3, -15, -3, -3, 0
1503510476612,1, -1, -4, -2, 1, 5, -2, -3, 0
1503510476630,13, 2, 1, 1, 1, 1, 1, 5, 0
1503510476650,0, -5, -1, -1, -2, 0, 0, 0, 0
1503510476672,-2, -5, -5, -3, 0, 1, -2, 1, 0
1503510476687,7, -4, -1, -1, 0, 0, 0, -3, 0
1503510476710,7, 13, 0, 0, -1, 4, 0, 0, 0
1503510476733,-19, 1, 3, -1, -1, -1, 0, -3, 0
1503510476748,4, -2, -2, 0, -1, 1, 1, 0, 0
1503510476806,-3, -1, 0, 0, -1, -2, -1, -5, 0
1503510476809,1, 0, 4, 6, 3, -1, -4, -2, 0
1503510476814,-9, -1, -1, 1, 1, -1, -1, -1, 0
1503510476822,2, 0, 0, 2, 1, 0, 1, 2, 0
1503510476844,3, -2, -1, 0, 0, -1, -1, 0, 0
1503510476859,8, -9, -3, 0, 0, 0, -1, 0, 0
1503510476882,-6, 3, 1, 1, 0, 2, 0, -1, 0
1503510476904,-12, 1, -1, 0, -1, -1, -1, -5, 0
1503510476919,-3, -4, 0, 2, 0, -2, -1, -5, 0
1503510476942,5, 8, -1, 1, 0, 1, 1, 4, 0
1503510476965,-6, -3, -3, -3, 2, -1, 1, 0, 0
1503510476979,-10, 0, 3, 0, -2, -1, -1, 1, 0
1503510477002,3, 9, 2, -2, -2, 0, 1, 0, 0
1503510477024,-5, -12, -9, -2, 0, -1, -3, -2, 0
1503510477040,12, 10, 3, -2, -3, 0, -1, -1, 0
1503510477062,10, -11, -6, 0, 0, -2, -2, -1, 0
1503510477084,-9, 4, 7, 0, 1, 0, -1, 2, 0
1503510477099,-5, -11, -1, -2, 0, 0, 0, 2, 0
1503510477122,19, 15, 5, 3, -1, 1, -2, 1, 0
1503510477144,21, 7, -2, 0, -3, -2, 1, 2, 0
1503510477159,-2, -6, -3, 0, -1, -2, -3, -5, 0
1503510477182,-23, -9, 3, -2, -1, -3, -2, -8, 0
1503510477204,2, 7, 1, 0, 0, 0, 0, 1, 0
1503510477219,31, -10, -3, 0, 0, -2, -2, 1, 0
1503510477242,-12, -6, -3, -1, -2, 0, -1, -1, 0
1503510477264,6, -8, -5, -2, -2, 1, 0, -3, 0
1503510477279,-17, -11, -7, -1, -1, -1, 0, -2, 0
1503510477302,-16, 22, 14, 1, 1, 0, 0, 1, 0
1503510477324,-18, -18, -8, -4, -1, -1, -1, -9, 0
1503510477339,4, 23, -2, -1, -3, -3, -5, -6, 0
1503510477362,13, -10, -9, -1, 0, -3, 1, 6, 0
1503510477384,26, 5, 0, 0, -2, -2, 2, 12, 0
1503510477401,-25, -10, -1, -2, -1, 1, 0, 0, 0
1503510477422,5, 0, -1, -1, 0, 2, 1, 0, 0
1503510477444,7, 1, 2, 1, -1, -1, -1, 4, 0
1503510477461,-7, -19, -8, 0, -2, 0, 1, -1, 0
1503510477482,-6, 4, 4, 0, -1, -1, 0, -2, 0
1503510477505,-19, -11, -6, -3, 0, 0, -2, -4, 0
1503510477519,15, 11, 0, -2, -1, -1, -2, -2, 0
1503510477543,-15, -22, -9, -3, -1, -2, -4, -9, 0
1503510477564,-6, -1, 1, -1, -2, 0, -2, -3, 0
1503510477579,3, 0, 0, -1, 1, 1, 1, 1, 0
1503510477602,4, 46, 18, 0, -1, 0, -1, -2, 0
1503510477624,10, -8, 1, 0, 1, -2, 0, -1, 0
1503510477640,-55, -2, -3, 0, -1, -2, -3, 0, 0
1503510477662,4, -7, 1, -1, -1, -2, 0, 1, 0
1503510477684,8, 6, 0, -2, -1, 0, -2, 0, 0
1503510477699,10, -21, -11, -2, -4, 0, -1, -1, 0
1503510477722,-3, -9, -5, -1, -1, -2, 0, -3, 0
1503510477745,5, 3, -1, 1, 0, -1, 0, 3, 0
1503510477759,8, 1, 0, -2, 0, 0, -2, -3, 0
1503510477782,6, -10, -1, 0, 1, 0, 0, -3, 0
1503510477804,-19, 6, 5, 0, 0, -1, -2, -3, 0
1503510477828,-6, -12, -4, 0, -1, 0, -1, 2, 0
1503510477842,-2, -3, 7, 0, -2, -1, -1, -4, 0
1503510477864,-1, -1, -6, -1, 0, 1, -2, -9, 0
1503510477887,14, 6, 2, -1, 0, -1, 0, 3, 0
1503510477902,1, 25, 10, 0, -1, -1, 0, -2, 0
1503510477917,-13, -22, -7, -3, -2, -2, -5, -4, 0
1503510477932,1, -13, -12, -2, -2, -3, -4, -4, 0
1503510477954,7, 4, 2, 1, -1, 0, -2, -1, 0
1503510477977,-2, 9, 4, 0, 0, -2, -1, -1, 0
1503510477992,-2, 2, -1, 0, -1, -1, -2, -4, 0
1503510478015,21, 27, 7, 0, 2, 1, 2, 4, 0
1503510478039,-13, 8, 5, -2, 0, 0, -3, -5, 0
1503510478052,3, -4, 0, 0, 0, -1, 2, 2, 0
1503510478075,-6, 11, 10, 1, -2, -1, -3, -2, 0
1503510478097,18, 0, -3, -3, 0, 2, 0, 1, 0
1503510478112,13, -14, -8, -1, -1, -1, 0, 3, 0
1503510478134,-13, -12, -4, -1, -2, 0, 1, 2, 0
1503510478157,-6, -15, -5, -2, -1, 0, 2, 2, 0
1503510478173,-26, -10, -3, -2, -1, -1, -1, -3, 0
1503510478194,-1, 6, 3, -1, -1, -1, 0, 0, 0
1503510478217,24, 10, 6, 0, 0, 0, -1, 0, 0
1503510478232,9, -3, -3, -1, -2, -2, 1, 4, 0
1503510478254,-13, -15, -6, -1, -2, 0, -1, -5, 0
1503510478277,-12, 1, -1, -1, 0, -1, -3, -1, 0
1503510478292,20, 13, 4, 1, 0, -1, -1, -1, 0
1503510478314,-30, 2, -1, 0, -2, 0, -2, -4, 0
1503510478337,6, 0, 0, 0, 0, -1, -1, 0, 0
1503510478352,2, 6, 0, 0, -3, -1, -3, -1, 0
1503510478376,-21, -3, 3, -1, -1, -1, 0, -3, 0
1503510478397,4, -5, 0, 0, 0, -1, -1, -3, 0
1503510478412,14, -5, -4, 1, -2, -1, -2, 1, 0
1503510478434,-2, -2, 4, -1, 1, -2, 0, -6, 0
1503510478457,6, 21, 4, -1, -2, -1, 1, 3, 0
1503510478472,-1, -5, 2, -1, 1, 1, 1, -4, 0
1503510478494,-8, 0, 0, 0, 0, -1, -3, 1, 0
1503510478518,-11, 60, 17, 0, -1, -2, -2, -5, 0
1503510478524,-16, -2, 4, 0, 0, -2, -1, -2, 0
1503510478545,-6, -26, -11, -2, -1, -1, -3, -2, 0
1503510478555,-1, -14, -6, -2, -2, 0, 0, 5, 0
1503510478578,11, -4, -5, 0, -1, -2, 0, 2, 0
1503510478592,-21, -11, -1, -1, 1, 1, 0, -1, 0
1503510478615,-2, -12, -9, -2, -1, -2, -3, -4, 0
1503510478637,13, -8, -1, 1, -2, 0, 2, 1, 0
1503510478654,-4, -2, -1, -2, -2, 0, 2, 1, 0
1503510478678,-25, 11, 5, 0, -1, 0, -1, -3, 0
1503510478697,10, 12, 3, 1, -2, -2, -2, 2, 0
1503510478719,8, -9, 0, 0, 0, 1, 1, 2, 0
1503510478734,5, 20, 6, 0, 0, -2, -1, -2, 0
1503510478749,20, -13, -7, 0, -1, -1, 0, 3, 0
1503510478763,-24, 2, -1, 2, 0, 1, 1, 1, 0
1503510478786,-12, -3, 0, -2, -1, -1, 0, -4, 0
1503510478810,9, 11, 6, 0, 1, 0, -3, -4, 0
1503510478824,-8, 0, -2, -2, 0, -3, -2, -3, 0
1503510478847,-6, -18, -5, 0, -2, 0, -1, -1, 0
1503510478868,-26, 0, 2, 0, -3, 0, -2, -6, 0
1503510478883,27, -2, -1, 1, -2, 1, 3, 8, 0
1503510478906,4, 7, -2, -2, 0, -2, -2, 3, 0
1503510478929,5, 3, -1, -1, -1, 0, 0, -1, 0
1503510478945,-6, 10, 3, 1, 0, -2, 1, 0, 0
1503510478966,-18, -2, 2, -2, -3, 0, -2, -1, 0
1503510478989,15, -5, -2, 1, 1, 2, -1, 4, 0
1503510479003,2, 8, 0, -2, -2, 0, 2, 2, 0
1503510479020,1, 4, 2, -1, 0, 1, 1, 4, 0
1503510479034,15, 7, 4, 0, -3, 0, -3, -7, 0
1503510479057,-20, 8, 0, 0, -2, 1, -1, -3, 0
1503510479080,-16, 10, 6, 1, 1, -2, -3, -3, 0
1503510479094,-4, 7, 3, -3, 1, 0, 0, 0, 0
1503510479118,-5, -3, -5, -1, -1, -1, -1, -1, 0
1503510479139,7, -3, -2, -1, -2, -1, 2, 3, 0
1503510479155,-3, -8, -5, -1, -2, -1, -1, 1, 0
1503510479177,0, -11, -6, -3, 1, -1, 1, 1, 0
1503510479199,-16, 4, 11, 2, -1, -2, -3, -3, 0
1503510479214,8, -7, -9, -2, -2, -2, 1, 0, 0
1503510479237,-5, -7, -2, -1, 0, -2, 0, -2, 0
1503510479259,18, 4, -3, -2, 1, 0, 0, 4, 0
1503510479274,4, -1, -2, -1, -1, -1, -2, -1, 0
1503510479297,-3, 4, 2, 1, 0, 0, -1, 1, 0
1503510479319,-23, -8, -3, 0, -2, -2, -3, -3, 0
1503510479334,7, 6, 0, -2, -1, 0, 0, 2, 0
1503510479357,10, 2, 1, 0, 0, -1, 0, -1, 0
1503510479382,-3, -6, -4, 1, -1, -2, -3, -4, 0
1503510479394,3, -4, -4, -2, -1, -1, 1, 0, 0
1503510479418,15, -3, 1, 0, 3, 1, 1, 0, 0
1503510479439,-3, -2, -2, -1, -1, -3, 0, -3, 0
1503510479454,1, -1, 0, -4, -2, 0, -2, -1, 0
1503510479477,-5, -2, 0, -1, 0, 1, 1, 1, 0
1503510479499,2, 2, -3, -3, -1, 0, 0, -1, 0
1503510479516,-4, -12, -9, 0, -1, 0, -3, -5, 0
1503510479537,10, -1, 0, 1, -2, 0, 0, -1, 0
1503510479560,-13, 2, 2, 2, 0, -2, -1, -4, 0
1503510479574,-1, 28, 11, -1, -3, -2, -1, -5, 0
1503510479597,6, -12, -5, -4, -1, 2, 3, 4, 0
1503510479619,10, -1, 2, 1, 1, -2, 0, 0, 0
1503510479627,-3, 4, 6, -3, -3, 1, 1, 1, 0
1503510479652,0, 12, 4, 1, 0, -1, -1, 1, 0
1503510479672,-18, -5, -3, 0, -1, 0, 1, 1, 0
1503510479695,16, -1, -5, -2, -1, -2, 2, 4, 0
1503510479710,2, 0, -1, 0, -1, -1, 1, 2, 0
1503510479732,-7, -1, -2, -1, 0, -2, -2, -3, 0
1503510479740,16, 6, 3, -2, 0, 1, 1, -1, 0
1503510479762,29, -2, 2, 1, 0, -3, -4, 0, 0
1503510479777,-7, -4, 1, 0, 0, 0, -4, -5, 0
1503510479799,9, 2, 1, -1, 0, -2, 0, -4, 0
1503510479822,1, 1, -2, -3, -2, 1, -1, -2, 0
1503510479837,5, 5, 0, 6, 1, -1, -3, 1, 0
1503510479860,-28, -3, -2, -3, -1, 0, 1, -1, 0
1503510479882,1, -1, -3, -2, -2, -2, -9, 1, 0
1503510479897,-16, 12, -1, 2, -2, -4, -3, -3, 0
1503510479919,6, -4, -5, -3, -2, 1, -1, -10, 0
1503510479942,-4, -4, -1, -2, -2, -2, 0, -2, 0
1503510479957,7, -5, -2, -2, -2, 0, 3, -1, 0
1503510479979,-9, 5, 6, -1, -2, -2, -3, -6, 0
1503510480002,-12, -7, 3, -1, 2, 3, 4, 4, 0
1503510480017,-4, -2, 4, 0, 0, -2, -2, -4, 0
1503510480040,17, -15, -12, -3, 0, -1, -3, -1, 0
1503510480062,2, -6, -4, -4, 0, 0, 2, 0, 0
1503510480077,15, 7, -2, 2, 0, 2, 2, 8, 0
1503510480107,-1, 3, 0, 0, -2, -2, -2, -1, 0
1503510480130,-4, -8, -1, 0, 1, 1, -2, -4, 0
1503510480152,0, -2, -2, -3, -2, 0, -1, 4, 0
1503510480167,4, 30, 10, 0, 3, 0, -2, -1, 0
1503510480190,6, -6, -4, -1, -1, -2, -1, 2, 0
1503510480212,-5, -6, -1, 1, 0, 2, 6, -1, 0
1503510480228,2, -9, -4, -1, -1, 1, 1, 5, 0
1503510480250,2, -4, -2, -1, 0, -1, -1, 1, 0
1503510480272,12, -9, -3, -1, -4, -1, 2, 5, 0
1503510480288,-41, 13, 4, 0, -1, -2, -1, -7, 0
1503510480310,23, -18, -10, -4, 0, 0, -5, 2, 0
1503510480332,7, -1, 0, -1, 2, 1, 0, 3, 0
1503510480347,-2, -1, 0, -3, -5, -4, -2, -4, 0
1503510480370,4, -6, -5, -4, -2, -5, -9, -24, 0
1503510480392,-11, 0, -1, -3, 0, 2, 3, 9, 0
1503510480408,-5, 2, 5, 3, -2, -2, 0, -2, 0
1503510480430,4, 2, -1, -1, -3, -3, 1, 2, 0
1503510480452,1, -3, -5, 0, -1, 0, 0, 4, 0
1503510480467,-9, 8, 4, 0, 0, 0, 2, 11, 0
1503510480490,7, -3, 0, -1, -2, -3, -2, -6, 0
1503510480513,-2, -7, -6, 0, -1, 4, 1, 4, 0
1503510480527,2, 0, 1, -1, -1, -1, 0, 1, 0
1503510480550,13, 3, 4, 2, 0, 0, -4, -10, 0
1503510480572,13, 17, 11, 1, 1, -2, 0, 0, 0
1503510480595,-28, 19, 9, 1, 0, 1, 2, 14, 0
1503510480610,20, -3, -5, -3, -3, -5, 4, 26, 0
1503510480632,-22, -5, -6, -4, -1, -1, -4, -11, 0
1503510480657,-32, -14, -6, -2, -2, 1, -1, -18, 0
1503510480670,53, -10, -6, 0, 1, -3, -3, 10, 0
1503510480692,-11, -17, -11, 1, 1, 0, -5, -30, 0
1503510480714,-29, -4, 0, -2, -2, 1, 0, 0, 0
1503510480730,9, 4, 3, 1, -2, 1, 2, -6, 0
1503510480756,-16, -3, -3, 0, 0, 1, -3, -4, 0
1503510480775,9, 3, -3, -3, -3, -3, 3, 9, 0
1503510480791,-7, -15, -1, 0, 0, 2, -1, 9, 0
1503510480812,2, -5, -3, -2, -2, -2, -4, -3, 0
1503510480834,-1, 5, 2, 0, -1, -1, -1, -4, 0
1503510480850,11, 5, 2, 0, 1, 0, 2, -2, 0
1503510480873,12, 4, -1, -1, -1, -3, -2, -1, 0
1503510480894,-17, -1, -5, -3, -3, -3, 0, -3, 0
1503510480910,0, 1, -1, 2, -2, -1, 3, 2, 0
1503510480932,3, -3, -1, -2, 0, 3, 4, 4, 0
1503510480954,-44, -1, 0, -1, 0, 0, -3, -8, 0
1503510480977,5, -1, -2, -2, -1, -1, -7, -8, 0
1503510480992,23, 3, -4, -2, -2, -5, -9, -9, 0
1503510481014,-11, 26, 7, 2, -1, 0, 1, -2, 0
1503510481030,13, -18, -3, -1, 1, 1, 1, 1, 0
1503510481052,13, 0, 0, 2, 0, -4, -2, -2, 0
1503510481074,-1, 0, -2, 4, 1, 1, 1, 1, 0
1503510481090,-15, -5, -2, -7, -1, -2, -1, -2, 0
1503510481112,-12, 3, 4, -1, -2, 0, 1, 3, 0
1503510481135,14, -1, -3, -3, -2, -2, 0, 1, 0
1503510481150,-3, -1, -7, -24, -4, 1, -1, -2, 0
1503510481165,0, -8, 3, -17, -5, -6, -4, -4, 0
1503510481179,-7, -10, -3, 91, -6, -5, -2, -4, 0
1503510481202,5, 11, -9, -74, -7, 0, 0, 3, 0
1503510481224,49, -22, -28, -11, -10, -2, -4, 5, 0
1503510481239,-13, -19, 0, 13, 5, 3, 1, 6, 0
1503510481262,-9, -1, 1, 1, 4, -4, -8, -32, 0
1503510481284,-14, 9, 7, -9, 3, 0, 4, 9, 0
1503510481299,6, -1, 3, -7, -1, 2, 0, 4, 0
1503510481322,-7, 7, 8, -4, 1, 1, -1, -4, 0
1503510481331,-10, 2, 0, -1, -1, -1, 0, -6, 0
1503510481352,-6, -9, -1, -4, -1, 0, -3, 16, 0
1503510481374,-3, -3, -3, -3, -2, 3, 6, -6, 0
1503510481390,14, -17, 1, 4, 0, -3, -3, 7, 0
1503510481412,-23, -8, -8, -4, -4, -3, -1, 1, 0
1503510481434,-44, -2, 1, -3, -2, -4, -4, -14, 0
1503510481450,4, 8, 2, -1, -2, 2, 4, 5, 0
1503510481472,29, -2, -5, -1, -3, -1, -3, -6, 0
1503510481496,-28, -6, -7, -3, -1, -3, -3, -7, 1
1503510481502,-17, -12, -4, -3, -1, 0, 0, -6, 1
1503510481524,-1, -2, -4, -2, 0, -2, -1, 7, 1
1503510481546,-17, -12, -7, -1, -4, -4, -6, -7, 1
1503510481563,15, 41, 16, 0, 2, 1, 0, 3, 1
1503510481584,11, -18, -6, 0, -1, -2, -2, 1, 1
1503510481606,-8, -2, -2, -4, -1, 3, -1, -2, 1
1503510481622,5, -12, -4, -2, -2, -3, -1, -4, 1
1503510481644,21, -2, -1, -1, -3, -3, -2, -3, 1
1503510481666,7, -9, -1, -1, 0, 1, -1, -2, 1
1503510481681,-8, -5, 1, 67, 10, 0, -5, -12, 1
1503510481705,-5, 3, -5, -27, -5, 0, 1, 5, 1
1503510481727,0, 1, -1, -3, -3, -6, -4, -4, 1
1503510481747,-3, -20, -1, -10, -1, -3, 5, -2, 1
1503510481765,55, 10, -4, -16, -2, 0, 2, 7, 1
1503510481787,-26, -4, 0, -3, 2, 1, 1, 1, 1
1503510481802,9, 6, 1, -8, -4, -2, -2, 5, 1
1503510481824,-28, 3, 2, -3, 1, 1, -4, -18, 1
1503510481847,-7, -6, -1, 0, 1, 1, 1, 1, 1
1503510481862,-7, -6, -5, -1, -2, -1, -2, -4, 1
1503510481884,34, 21, 4, -2, -2, 0, 2, 9, 1
1503510481907,-13, -11, -3, -3, 0, -2, -2, 3, 1
1503510481922,-6, 4, 0, -1, 0, -2, 0, 6, 1
1503510481944,2, -6, -3, -2, -2, -2, -2, 12, 1
1503510481967,11, 7, 6, 1, 0, 1, 0, 3, 1
1503510481982,-7, 14, 6, -2, 0, 0, 1, -5, 1
1503510482000,-74, -18, -9, -1, -2, 1, 1, 0, 1
1503510482012,41, 6, -8, -4, -3, -5, -5, 1, 1
1503510482038,-5, -1, 4, -1, 1, 0, 1, 4, 1
1503510482057,2, -1, 1, 1, 2, 2, 1, 5, 1
1503510482087,-30, -14, -1, -1, 0, 0, 1, -3, 1
1503510482102,5, -11, -3, 0, -3, -1, 1, 5, 1
1503510482124,-12, 0, -1, -1, -2, 1, -7, -18, 1
1503510482147,1, 0, -2, -3, 3, 1, 5, 6, 1
1503510482162,-22, -5, -2, -2, -1, -2, 0, -3, 1
1503510482184,15, -11, -7, -2, -1, -3, -2, -1, 1
1503510482207,25, -7, -7, -3, -2, -2, 1, 10, 1
1503510482222,-9, 0, -1, 1, -2, -1, -2, 0, 1
1503510482244,-2, -7, -3, -12, -1, 1, -2, 1, 1
1503510482271,5, 3, 2, -1, -1, 1, 2, 2, 1
1503510482282,-15, 1, 1, 2, -1, -2, -3, -3, 1
1503510482305,-15, 7, 1, -1, -2, 0, 0, -3, 0
1503510482327,16, 2, -1, 0, -2, -2, -1, 4, 0
1503510482342,-2, -1, 0, 6, -1, -2, -5, -6, 0
1503510482364,11, -4, -2, -1, 1, 0, 2, 1, 0
1503510482386,-7, -2, -1, 0, -1, -1, 1, -1, 0
1503510482394,-11, -6, -4, -3, 0, -2, -1, -2, 0
1503510482416,1, -30, -6, 0, 0, 0, -2, -4, 0
1503510482439,3, 41, 8, -1, 1, 0, 1, 3, 0
1503510482454,10, 1, -6, -10, -3, -3, -5, -9, 0
1503510482471,-4, 4, -2, -20, -4, -3, -2, -2, 0
1503510482484,2, -4, -1, 4, -1, -1, -2, -1, 0
1503510482507,-29, -7, -1, -5, 0, -3, -5, -4, 0
1503510482516,-25, -1, -5, -1, -2, -1, -2, -8, 0
1503510482540,42, -5, -6, -4, -2, -2, -4, -15, 0
1503510482559,-18, -4, -1, -9, -2, 2, 0, 2, 0
1503510482578,-3, 0, 0, -4, 0, 1, 0, -1, 0
1503510482597,2, -13, -7, -5, -1, -2, -3, 2, 0
1503510482619,-11, 21, 8, 2, -2, -3, -4, -3, 0
1503510482637,27, -13, -3, -2, -3, -2, -1, 4, 0
1503510482656,0, -5, -5, -3, 0, 0, -1, 0, 0
1503510482679,-21, -7, 5, 3, 2, 2, 1, 0, 0
1503510482695,5, 4, -4, -3, -5, -7, -2, 5, 0
1503510482716,0, -4, -4, -3, 0, -1, -2, 1, 0
1503510482739,5, 1, 3, 0, 0, 3, 1, 1, 0
1503510482747,6, 10, 3, 1, 0, 0, 2, 2, 0
1503510482768,-4, 1, 2, 1, -1, -3, -3, 4, 0
1503510482784,-3, -6, -1, -2, -1, -1, -1, -3, 0
1503510482807,-1, 1, -2, -1, 0, -1, -4, -2, 0
1503510482828,17, -3, -2, -4, -2, 0, -4, -9, 0
1503510482844,1, 6, 0, -1, 1, 1, 1, -1, 0
1503510482866,3, -5, -3, -2, -1, 0, -3, 2, 0
1503510482888,10, -3, -2, -3, -2, -2, 1, 8, 0
1503510482906,16, 4, 0, 0, 0, 0, -2, -1, 0
1503510482926,-25, -7, -5, -3, -3, -2, 1, 0, 0
1503510482948,-5, 0, 0, 0, 0, -2, 1, 1, 0
1503510482964,-7, 4, 3, 0, -1, -2, -3, -9, 0
1503510482987,10, -6, -4, -1, -2, -1, 0, 2, 0
1503510483009,0, 2, 1, -1, 0, -1, 1, 5, 0
1503510483017,-6, -4, 0, -1, -1, 0, 1, 1, 0
1503510483043,11, -2, 0, 0, -2, -3, -4, -5, 0
1503510483055,4, -1, -1, -1, -1, -2, -1, -5, 0
1503510483077,2, -2, -1, -2, 1, -1, 0, 3, 0
1503510483099,-6, -4, -4, -2, -4, 1, 2, 7, 0
1503510483116,26, 0, -7, -3, -3, 0, 0, 8, 0
1503510483128,-3, 6, 3, 2, 1, 1, 1, -5, 0
1503510483139,-7, -3, -2, -1, -3, 0, -2, -3, 0
1503510483159,10, -9, -3, -1, -1, -1, -2, -6, 0
1503510483177,11, 6, -5, -3, 1, 2, -1, 1, 0
1503510483196,14, -2, 4, 0, 0, 0, -1, -3, 0
1503510483219,-3, -5, -3, -1, -2, -1, -1, -2, 0
1503510483235,3, 3, 0, -1, 1, 0, -1, 1, 0
1503510483257,-1, 0, 4, 4, 1, 0, -1, -2, 0
1503510483279,-3, -4, -3, -2, -2, -2, -1, 2, 0
1503510483287,15, -2, -4, -3, -2, 0, 1, -2, 0
1503510483309,-7, 1, -2, -2, -1, -1, -2, -4, 0
1503510483324,7, -13, 0, 3, 0, -1, -1, 4, 0
1503510483347,-9, -3, -5, -3, -1, 1, 0, 1, 0
1503510483368,2, 4, -3, -3, -3, 0, 2, 6, 0
1503510483391,9, 7, 2, 1, 0, -1, 2, 0, 0
1503510483410,-12, 5, 5, 0, 1, -3, -4, -8, 0
1503510483428,10, 5, 0, 3, -1, -1, -3, 1, 0
1503510483452,-12, -4, 1, 0, 0, 1, 0, -7, 0
1503510483467,12, -6, 0, -1, -4, -2, -1, 3, 0
1503510483488,-6, 0, 3, -1, -1, -2, -2, -2, 0
1503510483516,7, 0, -3, -2, 0, 0, 1, -2, 0
1503510483533,-2, 0, -2, -2, -1, -1, 0, -1, 0
1503510483548,-17, -10, 2, 7, 3, 0, -3, -5, 0
1503510483571,-2, 14, -2, -5, -4, 0, 5, 12, 0
1503510483587,12, 3, 0, -1, 1, 2, 1, -7, 0
1503510483602,3, 21, 7, 1, -3, -3, -5, -10, 0
1503510483616,-5, -4, -3, -3, -2, 0, -5, -11, 0
1503510483639,9, -4, -7, -6, -6, -5, -2, 3, 0
1503510483661,-14, 0, -6, -3, 1, 2, 1, 0, 0
1503510483678,5, -1, 3, 5, 0, -3, 0, 3, 0
1503510483699,-17, -10, 1, 2, 0, -2, -7, -7, 0
1503510483721,29, 2, -4, -1, 1, 1, 5, 7, 0
1503510483736,-7, -5, -1, -2, 0, 0, -5, -12, 0
1503510483759,10, 11, 4, 0, 1, -1, 0, 6, 0
1503510483782,-14, 1, 8, 5, 3, -1, -3, -2, 0
1503510483796,-10, -17, -9, -5, -4, -3, 0, 10, 0
1503510483819,-6, -2, -1, 1, 1, 1, 0, -2, 0
1503510483841,3, 1, 2, 3, 0, -1, -4, -14, 0
1503510483856,-4, -3, 0, -1, 2, 4, 3, 0, 0
1503510483881,-2, -20, -4, -2, -3, -1, 0, 0, 0
1503510483901,3, -6, -3, -2, -2, -2, 0, -3, 0
1503510483917,3, -12, -10, -5, -3, -7, -7, -3, 0
1503510483939,-7, 5, 2, -2, -2, 1, 2, -7, 0
1503510483961,7, 4, 4, 0, -2, 0, 0, 6, 0
1503510483976,-1, 25, 2, 1, 1, 2, 2, 3, 0
1503510483999,5, 1, -3, -1, -2, -2, -1, 3, 0
1503510484022,-5, -3, -2, -1, -3, -2, 5, 2, 0
1503510484036,-10, 7, 0, -2, 0, 2, 2, 2, 0
1503510484059,-17, 1, -5, -4, -1, 0, -2, -4, 0
1503510484082,18, -4, -1, -2, -3, -2, -3, -2, 0
1503510484096,0, 1, 4, 3, 0, -2, -6, -10, 0
1503510484119,4, 2, 2, 2, 3, 3, 1, 5, 0
1503510484141,4, -7, -3, -4, -2, -1, -1, 0, 0
1503510484157,-7, -3, -3, -1, 0, 0, -2, -5, 0
1503510484181,-2, -5, -3, -1, -2, -2, 2, 4, 0
1503510484188,5, -3, -3, -3, -2, 0, -1, -1, 0
1503510484208,8, 1, -4, -3, -2, -1, -1, 1, 0
1503510484218,9, 8, 8, 3, 1, -4, -3, -1, 0
1503510484239,-8, -5, -5, -3, 0, 0, -1, 0, 0
1503510484261,-2, -3, -1, 22, -1, 0, -1, -3, 0
1503510484285,8, 2, 0, -21, -4, -1, -1, 1, 0
1503510484299,11, 1, 0, 0, -2, 1, 2, 1, 0
1503510484322,-4, 3, 0, 0, -1, 1, -1, 0, 0
1503510484344,-14, -5, -4, -4, -2, -1, -2, -2, 0
1503510484359,0, -2, -1, -3, 1, -2, 1, 3, 0
1503510484384,3, -10, -3, 3, -1, -1, -2, -5, 0
1503510484404,-8, 0, 2, 9, 2, 1, 0, -2, 0
1503510484420,-2, -4, 1, -10, 1, 1, -1, -3, 0
1503510484441,11, 16, 3, 0, -2, -1, 0, 3, 0
1503510484464,24, -6, -5, -2, 0, 1, 2, 3, 0
1503510484479,3, -1, -3, -2, -2, 0, -3, -1, 0
1503510484501,-20, -2, -3, -2, 0, -1, 2, -1, 0
1503510484525,10, -1, -2, -2, -1, 0, -2, -4, 0
1503510484539,-6, -9, 2, 0, -2, -3, -4, -8, 0
1503510484561,8, 10, 2, 0, -2, 0, -1, 3, 0
1503510484588,-18, -1, -2, -3, -1, 0, -1, 4, 0
1503510484599,8, 21, 0, 0, -3, -1, 1, 1, 0
1503510484621,-1, -19, -3, 0, -8, 0, -2, -4, 0
1503510484644,-14, -14, -6, -1, 2, -1, -3, -5, 0
1503510484660,3, 5, 1, -1, -2, 0, -1, 0, 0
1503510484681,-4, 11, 0, -2, 0, 0, 0, -1, 0
1503510484704,-11, 9, 10, 1, 0, -2, -1, -2, 0
1503510484719,9, -12, -4, 1, 1, -4, 0, 2, 0
1503510484741,7, -6, -3, -2, -1, 0, 0, -3, 0
1503510484764,3, 17, 5, -2, 3, 0, 3, 6, 0
1503510484779,-1, -18, -5, -1, -2, -3, -3, 0, 0
1503510484801,-5, -7, -2, -1, -3, -1, -1, -1, 0
1503510484824,-4, 6, 0, 0, -1, 0, -1, 3, 0
1503510484839,6, 8, 0, 0, 0, -1, -2, 1, 0
1503510484861,5, -7, -4, 2, -1, -1, 0, 1, 0
1503510484887,-12, -23, -4, -4, 0, -1, -1, 3, 0
1503510484899,-2, -4, -5, 0, -1, 0, -3, -7, 0
1503510484921,-6, -9, 2, 0, 1, 1, 3, 0, 0
1503510484944,-15, 1, 13, 4, 2, -3, -2, -3, 0
1503510484959,21, 4, -5, -3, -1, 1, 1, 0, 0
1503510484981,1, 6, -5, -1, -2, -1, -3, -6, 0
1503510485004,-7, 8, -1, -1, 0, -1, -2, 8, 0
1503510485021,-25, -9, -5, -3, -1, -1, -2, -11, 0
1503510485041,13, 3, 0, -1, -1, 0, 2, 0, 0
1503510485064,-3, -2, -1, 0, -1, -2, -4, -6, 0
1503510485079,4, 3, 0, -1, -2, -1, -2, 2, 0
1503510485101,4, -8, 1, 1, 0, 0, 3, 4, 0
1503510485126,14, -1, -5, -1, -3, -1, -2, 1, 0
1503510485139,3, -2, -3, -2, 2, -2, 3, 7, 0
1503510485161,-5, -7, -2, -1, 1, 0, -3, -6, 0
1503510485184,-26, 2, -1, 0, -3, 0, 0, -2, 0
1503510485199,3, 5, 0, 0, -2, 1, 0, -3, 0
1503510485225,3, -1, -2, -4, 6, 1, -4, -1, 0
1503510485244,10, 7, -2, -2, 0, -1, 1, 5, 0
1503510485266,18, -1, -4, -3, -2, -1, 1, 3, 0
1503510485281,5, -1, 1, 1, -3, -3, -3, -5, 0
1503510485304,-4, 7, 1, -1, -2, -1, 0, -3, 0
1503510485329,-2, 3, -1, 0, 0, -1, -3, 0, 0
1503510485341,-23, -1, -4, -1, 0, 0, -3, -5, 0
1503510485365,2, -16, -8, -4, -4, -1, 0, 2, 0
1503510485386,2, 1, 3, -1, -1, -2, -1, 0, 0
1503510485401,-11, -5, 3, 2, -1, -1, -2, -6, 0
1503510485425,13, 6, 1, -2, -1, 0, 1, 1, 0
1503510485446,8, 1, -3, -2, -3, -1, 2, 5, 0
1503510485462,-16, -12, -5, 1, -1, 0, -4, -4, 0
1503510485492,0, -10, -3, 1, -1, 0, -1, -4, 0
1503510485506,-15, 25, 7, 1, 1, -2, -4, -7, 0
1503510485526,2, 3, 3, -1, 0, 0, -1, 4, 0
1503510485544,0, 7, 1, 1, 1, 0, 1, 2, 0
1503510485566,-10, -2, -3, -2, 0, -1, -2, -1, 0
1503510485581,-7, -3, 0, 0, -1, -1, 1, -3, 0
1503510485604,8, -6, -4, -2, -3, -1, -3, 0, 0
1503510485626,-2, -24, -8, -1, -3, 0, 0, 0, 0
1503510485641,4, -3, 2, 0, 1, -3, -4, -9, 0
1503510485664,11, 17, 7, 2, 1, 3, 3, 7, 0
1503510485686,7, 3, 0, 0, -2, -1, -2, 3, 0
1503510485701,-1, 0, 1, 0, 0, -1, 1, -2, 0
1503510485726,-26, 5, -1, -2, -1, -2, -4, -7, 0
1503510485746,24, -1, -4, -2, 1, 0, 1, 2, 0
1503510485762,6, -2, 5, 1, -1, -1, -1, 0, 0
1503510485784,-10, -23, -5, -1, -3, -2, 0, -1, 0
1503510485807,10, 4, 2, -1, -1, 0, -1, 2, 0
1503510485821,-22, -4, -2, -1, 0, 0, -2, -5, 0
1503510485844,8, 2, -3, -3, -1, 0, 1, 2, 0
1503510485866,-6, -2, 4, -1, 0, -2, -1, -3, 0
1503510485875,-2, -6, 0, -1, -3, -1, -1, -6, 0
1503510485897,0, 9, 4, -1, -1, -1, 3, 5, 0
1503510485912,-4, -8, -4, 0, 0, 0, -3, -6, 0
1503510485935,4, -16, -6, -2, 1, -1, -3, -2, 0
1503510485957,-5, 2, 5, -1, 3, 1, 0, -1, 0
1503510485972,17, 4, -3, -1, -2, -3, -1, 4, 0
1503510485995,-3, 1, 0, -1, 0, 0, -2, 1, 0
1503510486016,17, 6, -2, -1, 0, -1, 0, 2, 0
1503510486032,3, -1, -2, -1, -3, -2, -1, 3, 0
1503510486054,-3, 8, -1, -1, -1, -2, -1, -5, 0
1503510486077,-9, -9, -1, 0, -2, -1, 2, -1, 0
1503510486099,-5, -6, -4, -1, 1, 1, -1, 2, 0
1503510486114,-1, 8, 6, 1, 1, 0, -1, -5, 0
1503510486136,-3, 8, -1, 1, -3, -2, 0, 0, 0
1503510486162,-14, -9, -2, -3, 1, -1, -1, -7, 0
1503510486174,18, -4, -2, -2, -3, 0, -2, -2, 0
1503510486196,6, -6, -3, 0, -2, -1, -2, 0, 0
1503510486219,-6, 9, 4, -1, 0, 0, -2, 0, 0
1503510486234,-3, -5, 1, 2, -1, -2, -2, 0, 0
1503510486257,-4, -9, -5, -1, 0, -3, -2, -2, 0
1503510486279,10, -4, -5, -4, -1, -2, 0, 1, 0
1503510486297,5, -5, -1, -1, 1, 0, 2, 4, 0
1503510486317,-2, 1, -1, 1, -2, 0, 0, -1, 0
1503510486339,-1, 4, 0, -1, 0, -1, -3, -2, 0
1503510486354,-8, -6, -6, -2, -2, -1, 0, 0, 0
1503510486377,-2, 0, -1, -2, -2, 0, 0, 2, 0
1503510486400,-3, 11, 4, 1, 0, -1, 0, 1, 0
1503510486415,-11, -7, -6, -2, 1, -1, -1, -4, 0
1503510486437,-1, 2, 1, -1, -2, 0, -1, 2, 0
1503510486459,9, 10, 3, -2, 0, -1, -3, -4, 0
1503510486474,-11, -6, -1, 0, 0, 0, -1, -1, 0
1503510486498,-14, -8, -1, 0, -3, 0, 0, -1, 0
1503510486519,2, -2, -3, 1, 0, -1, 1, 0, 0
1503510486535,-2, -3, -3, -1, -3, 1, 0, -2, 0
1503510486557,-2, 1, 1, 0, 1, 0, -2, -2, 0
1503510486579,-12, 2, -1, -4, 0, -3, -3, -8, 0
1503510486594,19, 0, -1, 0, 0, 1, 0, 3, 0
1503510486617,9, 1, 0, -1, -1, -1, 2, 5, 0
1503510486640,-23, 1, 1, 1, 0, -1, 1, -4, 0
1503510486654,17, 7, 3, -1, -2, -2, -2, 0, 0
1503510486677,-1, 0, 1, -2, -1, -1, -2, -6, 0
1503510486699,-35, -7, -3, 0, -2, -1, -4, -7, 0
1503510486714,48, -9, -3, 0, 1, -1, -2, 4, 0
1503510486737,-4, 2, -1, -1, 0, 1, 1, 3, 0
1503510486759,-12, -1, 0, -1, -2, -1, 0, 1, 0
1503510486776,1, 1, 1, 0, -1, 0, 3, 6, 0
1503510486797,2, 3, 2, 1, -1, -1, -2, 2, 0
1503510486819,2, 3, 6, 0, 0, -1, 0, -4, 0
1503510486837,7, -9, -6, -1, 0, -2, -2, -5, 0
1503510486857,2, -2, -2, -2, -1, -1, -4, -3, 0
1503510486879,-19, -1, 0, 0, -1, 1, 3, 0, 0
1503510486894,-3, -4, -4, -1, 0, 0, -1, -1, 0
1503510486917,-4, -1, -2, -1, -1, -2, -4, -3, 0
1503510486939,-5, -7, -6, -4, -3, -2, -2, -3, 0
1503510486954,11, -3, -1, -1, -1, 2, 0, -2, 0
1503510486977,16, 5, 5, -1, -1, -4, -3, -3, 0
1503510487006,-2, -5, -2, 0, 2, -2, -1, 6, 0
1503510487029,-43, 0, -3, 1, -2, 0, -3, -5, 0
1503510487044,7, 7, -1, -2, 0, -2, 0, 6, 0
1503510487070,7, 11, 5, 0, 0, 2, -8, -39, 0
1503510487089,16, -14, -2, -2, -2, 0, 2, 6, 0
1503510487111,-13, 1, -1, -1, -1, 0, 1, 2, 0
1503510487127,18, 1, 1, 1, 1, 0, 1, 12, 0
1503510487142,2, 2, -4, 0, -1, 0, -1, 2, 0
1503510487157,-15, 1, 1, -1, 0, 1, 1, 2, 0
1503510487179,1, 33, 16, 3, 0, 0, 2, 5, 0
1503510487202,5, 5, 7, 2, 0, 0, 3, 22, 0
1503510487217,-26, -15, -7, -4, -1, -2, 2, 8, 0
1503510487239,20, -6, -6, -3, 1, -1, 0, 0, 0
1503510487261,-5, -1, -1, 0, 0, 0, -7, -11, 0
1503510487277,0, -10, -2, 1, -1, -3, 3, -7, 0
1503510487299,-10, -16, -6, -1, 0, -2, -10, -10, 0
1503510487321,8, 8, 3, 0, 0, 2, 2, -3, 0
1503510487343,-16, -2, 3, 1, -1, 0, 0, -10, 0
1503510487359,-37, -7, -5, -3, -2, -1, 2, -18, 0
1503510487382,-17, 0, -1, -2, -3, -1, 4, 13, 0
1503510487397,-9, -1, -1, -2, -2, -1, 0, -2, 0
1503510487419,23, 4, -3, -3, 2, 0, 2, 9, 0
1503510487441,-12, -3, 1, 1, 0, -2, -4, 3, 0
1503510487457,16, -8, -5, -1, 0, -2, -4, 15, 0
1503510487479,-20, -1, -1, 0, 0, 1, 2, -4, 0
1503510487501,8, -6, 1, 0, -1, -1, -4, -2, 0
1503510487518,-4, -10, -7, -1, 0, -1, 1, -4, 0
1503510487542,11, 4, -2, -3, -2, 0, -5, -5, 0
1503510487561,9, 3, -2, -1, 0, 2, 0, -1, 0
1503510487577,16, -3, 0, 1, -1, -2, -7, 1, 0
1503510487599,1, 4, 1, -2, -1, 1, 3, 2, 0
1503510487621,14, 2, -1, 0, -2, 0, 2, -7, 0
1503510487640,-18, 1, 1, 0, 1, -1, -1, 5, 0
1503510487659,-5, -4, -4, -3, -2, -3, -2, 0, 0
1503510487681,21, 4, 0, -2, -1, -3, -6, -6, 0
1503510487697,-3, -9, -3, 0, 1, -1, 2, 7, 0
1503510487719,-2, 9, -2, -1, 0, 1, 2, 0, 0
1503510487744,-8, -13, -2, 0, -1, -1, -6, -9, 0
1503510487757,16, 3, 0, -1, 0, 0, 4, -2, 0
1503510487779,-18, -1, 0, 0, 0, 4, -1, 4, 0
1503510487801,-24, 2, -2, 0, -3, -2, -1, -3, 0
1503510487817,2, 3, -2, -2, 0, -2, -2, -10, 0
1503510487843,-12, 25, 8, 1, -1, 0, 0, -4, 1
1503510487861,21, -11, -1, -1, -3, 1, 1, 8, 1
1503510487883,-5, -4, 0, 1, -3, -3, -9, -7, 1
1503510487899,-3, -3, -2, -2, -3, 4, 7, -14, 1
1503510487921,-27, -3, -1, -2, 0, 0, 0, 17, 1
1503510487937,-8, -6, -2, 0, 0, -1, 1, -4, 1
1503510487959,41, 3, 3, 1, 0, -4, 1, 9, 1
1503510487981,3, -7, -3, -2, -3, -4, -10, -8, 1
1503510487997,23, -1, -2, -2, 1, -4, -2, -3, 1
1503510488019,16, 4, -2, 0, 0, -3, -5, 16, 1
1503510488042,0, 4, -1, -2, -2, -1, -2, -7, 1
1503510488064,-21, -6, -1, -1, 0, 6, 3, 19, 1
1503510488079,-5, -6, -1, 0, 1, 3, 0, -23, 1
1503510488101,3, -1, -1, 0, -1, -1, 6, 4, 1
1503510488124,12, 4, 2, 6, -1, -6, -10, -10, 1
1503510488139,13, -4, -2, -9, -7, -6, -5, -13, 1
1503510488161,-7, 2, -3, 1, 1, -5, 2, 1, 1
1503510488184,27, -4, -1, 0, 0, 5, 1, -1, 1
1503510488199,-47, -20, -5, 3, 2, 0, -1, -6, 1
1503510488221,-8, -10, -2, 0, 4, 5, 7, 2, 1
1503510488248,-3, -3, -2, -2, 0, -1, -1, 7, 1
1503510488259,-5, 10, 14, 2, -2, -6, -6, -14, 1
1503510488281,0, 7, -1, -2, -3, 0, 1, 5, 1
1503510488304,-17, -5, -6, -2, 1, 4, 8, 25, 1
1503510488319,6, 4, -5, -3, -1, -1, 0, -1, 1
1503510488343,1, 1, 0, -1, -1, 1, 0, 1, 1
1503510488364,-16, -4, -5, -2, -3, 2, -1, -21, 1
1503510488379,5, 3, 4, -1, 1, 5, 3, 7, 1
1503510488401,18, 2, -2, -2, -2, -3, -3, 7, 1
1503510488424,-16, 2, 2, 0, 1, -2, -1, -2, 1
1503510488439,17, 1, 0, 1, -2, 1, 4, -5, 1
1503510488461,14, -1, -3, 0, 1, -3, -2, 0, 1
1503510488484,-3, 17, -5, 0, -2, 0, 1, -1, 1
1503510488499,-14, -21, 0, 0, 1, -3, -1, -16, 1
1503510488521,-22, -6, 2, 2, 1, -4, 1, 5, 1
1503510488547,5, -4, -5, 0, -1, -1, -1, 9, 0
1503510488559,-5, 25, 8, 1, -3, -1, -2, -6, 0
1503510488581,14, 5, -2, -1, 1, -1, 3, 7, 0
1503510488604,2, -7, -1, -3, -2, -10, -4, -14, 0
1503510488620,-4, -3, -4, 0, -1, -1, -2, 0, 0
1503510488641,-13, -5, -2, -4, -2, 2, 5, -3, 0
1503510488664,15, -1, -3, -1, -1, -2, -3, 11, 0
1503510488685,26, -16, -5, -3, -2, -2, -6, -23, 0
1503510488701,-8, -3, 0, 1, -2, 1, -3, 10, 0
1503510488724,15, -5, -6, -5, -3, -3, -9, 5, 0
1503510488739,-16, 1, 2, 9, 1, -1, 3, -1, 0
1503510488761,21, 2, 2, -3, -1, -3, -5, -4, 0
1503510488784,4, -2, 1, -1, 1, 1, 1, -2, 0
1503510488799,16, -2, -7, -4, -3, 0, 1, -1, 0
1503510488822,-18, 0, -1, -1, -1, 1, -3, 0, 0
1503510488845,-62, -18, -5, -3, 1, 0, -6, -17, 0
1503510488859,-6, 17, 6, 0, -2, -1, 10, -2, 0
1503510488881,-30, 15, -1, -1, -18, -1, -28, -15, 0
1503510488904,19, -20, -5, -7, 3, -1, 4, 9, 0
1503510488921,-18, 2, 7, 6, 5, -1, -3, -4, 0
1503510488941,48, 2, -4, -4, -2, -1, 1, 4, 0
1503510488964,39, 11, 4, -1, 4, -3, 0, 9, 0
1503510488986,21, 26, 13, -1, 1, 8, 31, 14, 0
1503510489001,-11, -12, -6, 1, 1, 0, -10, -11, 0
1503510489024,31, 16, -7, -2, -3, -3, 6, 14, 0
1503510489049,-12, -10, 0, -1, 2, -1, -9, -15, 0
1503510489061,-2, -3, 1, 1, 0, 0, 3, 15, 0
1503510489076,2, -7, -5, -1, -4, 1, 6, -3, 0
1503510489091,-29, 13, 8, 1, -1, 3, -9, -4, 0
1503510489115,5, 3, -4, -3, -2, -2, -5, 9, 0
1503510489135,-32, 0, -1, -1, 0, 1, -6, 6, 0
1503510489152,17, 1, -2, -6, -4, -2, 2, -3, 0
1503510489173,-4, -2, -2, -1, -1, -1, 8, 21, 0
1503510489196,14, -1, -2, -1, -2, -2, 4, 4, 0
1503510489211,-1, -4, 3, -3, -1, 2, -1, 7, 0
1503510489233,-36, -3, -2, 0, -2, 0, -3, -7, 0
1503510489256,-32, -10, 0, -1, 0, 0, -6, -6, 0
1503510489271,5, 8, 3, 1, 0, 0, 4, 1, 0
1503510489293,10, 1, 1, 0, 0, 0, 0, 0, 0
1503510489317,28, 2, -4, 0, -4, -5, -12, -10, 0
1503510489331,16, 24, 1, -1, -4, -5, 1, 4, 0
1503510489354,1, -13, -5, -1, -1, 0, -6, 0, 0
1503510489375,24, -5, -3, -1, -2, -3, -2, -2, 0
1503510489392,6, -3, 4, 3, 3, 3, 1, -2, 0
1503510489413,6, -5, -1, 0, -2, -2, -2, 2, 0
1503510489435,10, 17, 2, 0, 2, 0, 17, -5, 0
1503510489444,4, 6, 2, -1, -1, 0, 1, 2, 0
1503510489466,-9, -8, -2, 0, 0, 0, -14, -7, 0
1503510489481,7, -1, -2, -1, 0, 0, 4, -3, 0
1503510489504,1, 5, 2, 2, -1, -3, 1, -2, 0
1503510489527,0, -11, -11, -5, -2, -2, 0, -1, 0
1503510489541,-4, 1, 2, 1, 2, 0, 5, 0, 0
1503510489564,-6, 3, 8, 4, 0, -2, -8, -7, 0
1503510489587,-4, -2, -4, -5, -4, 0, -1, 1, 0
1503510489601,5, -3, -9, -6, -4, 0, -5, -1, 0
1503510489624,-3, 5, 3, 2, 1, 0, 0, -5, 0
1503510489646,-8, -4, -1, 2, 1, 0, 5, 3, 0
1503510489661,-30, 3, 0, -2, 0, 1, 1, -4, 0
1503510489690,12, -3, 2, 2, 0, 0, 0, -1, 0
1503510489706,3, 5, -2, -1, -2, 0, -2, -4, 0
1503510489721,-2, 1, 5, 3, 1, -2, -2, -6, 0
1503510489744,9, 6, 3, -2, -1, -1, -3, -1, 0
1503510489767,28, -9, -4, -2, 0, -1, 5, 12, 0
1503510489781,9, 3, -2, 0, 1, -2, -2, -4, 0
1503510489804,-5, 9, 1, -3, -3, 1, 0, -1, 0
1503510489826,-15, -8, -7, -2, -1, -1, -1, -1, 0
1503510489841,-4, -7, -5, -3, -3, -2, -1, -1, 0
1503510489864,-18, -4, 5, 0, -2, 1, -2, -3, 0
1503510489893,-5, 4, -1, -2, -3, -2, 0, 1, 0
1503510489896,1, 0, 5, 0, 0, 0, 1, -2, 0
1503510489925,-6, 0, 4, 3, 1, 0, 1, 0, 0
1503510489946,-3, 1, -3, -2, -1, -1, -1, 4, 0
1503510489969,2, -4, -1, -1, 0, -3, -1, -6, 0
1503510489984,-11, -4, -3, -1, 1, -1, 1, -3, 0
1503510490006,-24, -11, -4, -1, -1, -2, 2, -4, 0
1503510490030,12, 5, 0, -2, -3, 0, -1, 9, 0
1503510490043,-9, -2, -1, 1, -3, -1, -3, -4, 0
1503510490066,6, 4, -1, -2, -1, -4, -1, 2, 0
1503510490089,8, 0, 1, 0, 0, 2, 2, 3, 0
1503510490104,3, -9, -5, 0, 0, 2, 1, 1, 0
1503510490126,-17, -14, -4, -5, -2, -2, 0, 2, 0
1503510490149,12, 6, 2, -1, -4, -3, -3, -1, 0
1503510490165,2, 10, -3, -4, 0, 2, 2, 5, 0
1503510490186,17, 8, 0, -1, -1, -2, -4, -7, 0
1503510490209,-22, -14, -5, -4, -4, -1, -4, -9, 0
1503510490224,18, 0, -2, -2, 0, -1, 1, 12, 0
1503510490246,-23, -1, 0, 0, -2, 0, 0, -6, 0
1503510490269,-7, -4, 2, 1, 2, -1, 0, -6, 0
1503510490283,-12, -2, 4, 2, 1, -3, 0, 0, 0
1503510490299,-4, -5, -2, 2, 1, 0, 1, 5, 0
1503510490314,-5, 8, 4, 1, -1, -3, -3, -1, 0
1503510490337,1, -16, -9, -2, -3, 1, 2, 8, 0
1503510490359,14, 8, 5, 1, 2, 2, 5, 7, 0
1503510490374,16, 22, 9, 1, 1, -3, -4, -5, 0
1503510490397,5, -4, -2, -3, 0, -1, -1, -3, 0
1503510490419,-4, -14, -7, -1, 0, 0, -1, -2, 0
1503510490434,1, -2, -1, -3, -3, -5, -6, -1, 0
1503510490459,-1, -3, 1, 2, 1, -2, -2, -5, 0
1503510490479,7, 2, 2, 3, 2, -1, 0, -2, 0
1503510490494,-9, -4, -3, -3, -3, 2, -2, 2, 0
1503510490517,-3, -3, -1, 1, 1, 1, 2, 3, 0
1503510490539,-7, -6, -1, 0, 0, 0, 2, -3, 0
1503510490554,-4, 0, 0, -2, -2, 0, -3, 1, 0
1503510490580,-16, -11, -3, -2, -2, -2, -4, -4, 0
1503510490599,-9, 2, -1, -3, 0, -2, -1, -5, 0
1503510490614,3, 1, -5, -21, -5, -2, -1, 1, 0
1503510490637,5, -3, -3, -15, -3, 3, 2, 1, 0
1503510490661,1, -4, -7, -8, -1, -1, 2, -2, 0
1503510490674,5, 2, 1, 10, 1, 0, -4, 0, 0
1503510490697,9, 1, 0, 6, 0, -2, 0, 2, 0
1503510490719,-3, 3, 1, 7, 0, 0, 0, 0, 0
1503510490741,-1, 10, 2, 6, -1, -1, 0, 0, 0
1503510490757,-1, -6, 1, 3, -2, -4, -8, -9, 0
1503510490779,2, 10, -5, 0, -2, 1, 0, -1, 0
1503510490801,-1, 8, 2, 0, 0, 0, -1, -1, 0
1503510490817,28, -4, -2, 1, -1, -1, -1, 2, 0
1503510490839,-11, 2, 4, 3, 0, 0, 0, 0, 0
1503510490862,9, -7, -3, -2, -1, -2, -2, 0, 0
1503510490877,-14, 0, -3, 0, -1, -1, 2, -1, 0
1503510490899,-17, -8, -5, -4, 0, 0, -5, -2, 0
1503510490921,-1, -6, -2, -1, 1, 0, 2, 2, 0
1503510490937,3, -6, -1, 1, -1, 0, 6, 0, 0
1503510490959,4, 6, -2, -1, -1, -1, 0, -2, 0
1503510490982,-9, -11, -3, -1, 0, -2, -4, 1, 0
1503510490997,-4, -6, 2, 0, -1, -1, 0, -2, 0
1503510491019,-17, -2, 2, 0, -1, 0, -2, -3, 0
1503510491041,11, 1, 0, -2, -1, 1, -1, 0, 0
1503510491057,9, 2, -1, -1, 0, -2, -1, 1, 0
1503510491079,4, 8, 5, 1, -3, -2, -3, -2, 0
1503510491101,-5, -12, -5, -4, -2, 1, -1, -3, 0
1503510491109,-6, -3, -2, -2, 1, -2, 0, -4, 0
1503510491132,4, 2, -2, 0, -1, -2, 0, 2, 0
1503510491146,-13, 1, 0, -1, -2, 1, -2, -2, 0
1503510491169,-15, -11, 0, -1, -2, -2, 0, -1, 0
1503510491191,7, -16, -4, 0, -3, -1, -4, 0, 0
1503510491207,-2, -8, -5, -3, -1, -1, 1, 0, 0
1503510491230,-1, 15, 5, 0, -1, 0, 0, 1, 0
1503510491251,17, 9, -4, -2, -1, -1, -2, -4, 0
1503510491267,-1, -3, -2, 0, -1, 0, -3, 3, 0
1503510491289,-10, 12, 4, 1, 0, 0, 0, 2, 0
1503510491311,-2, 5, 4, 0, -1, -1, 2, 1, 0
1503510491326,-17, -3, -5, -1, 0, 0, 1, -1, 0
1503510491348,12, -4, -1, -1, 0, 0, -4, -3, 0
1503510491371,6, -2, -5, -2, 0, 0, 0, -3, 0
1503510491386,2, -6, 3, 3, 0, 0, 2, 1, 0
1503510491409,19, -1, -3, -2, 0, -1, -1, 2, 0
1503510491433,-9, -3, -2, -3, -1, -2, 0, -2, 0
1503510491446,1, 2, 5, 2, -1, 0, 3, 2, 0
1503510491469,-5, -2, -4, -2, -1, -2, -4, -2, 0
1503510491491,-4, -2, -1, -3, -1, -1, -4, -5, 0
1503510491506,10, 20, -1, -3, -3, 1, 2, 2, 0
1503510491522,7, -6, 2, 1, 0, -1, 0, -1, 0
1503510491538,14, -1, -5, -1, 0, 1, 0, 3, 0
1503510491559,-1, -9, -6, -2, -1, -1, -1, -3, 0
1503510491581,-3, 9, 2, -2, 0, 1, 3, 2, 0
1503510491589,-9, -5, -4, -1, 0, -1, -2, 0, 0
1503510491611,-5, 1, 0, 0, -1, 0, 2, 0, 0
1503510491626,-8, -10, -2, -1, -1, -1, 1, -2, 0
1503510491649,-19, -5, 2, -1, 0, -1, -3, -3, 0
1503510491671,6, -11, -6, -4, 0, -1, 0, 2, 0
1503510491686,-10, -12, 1, 1, -2, -2, 3, 0, 0
1503510491709,-6, -8, -6, 0, -1, -1, -1, 1, 0
1503510491734,5, 10, 0, -1, 2, 0, 1, 1, 0
1503510491754,-8, 3, 4, 0, -2, 0, 3, 0, 0
1503510491769,17, -5, -2, -1, -1, -3, -2, 3, 0
1503510491791,3, -2, -2, 0, 0, -1, -2, 1, 0
1503510491813,-6, 4, -4, -4, -2, 0, -1, -2, 0
1503510491829,-17, 9, 2, 0, -1, -2, -1, 0, 0
1503510491851,17, -6, -2, 1, 2, 1, 3, 2, 0
1503510491873,16, 5, 1, 0, -1, -2, -4, 2, 0
1503510491888,8, -5, -3, -2, -1, -3, -6, -6, 0
1503510491912,-4, -14, -5, -1, 0, 0, 3, -2, 0
1503510491935,27, 12, 0, -1, -3, -2, 1, -1, 0
1503510491941,12, 40, 16, 1, -1, -1, -1, 5, 0
1503510491964,-4, -16, -6, -2, -2, -2, 1, 4, 0
1503510491979,-27, -15, -7, -3, -1, -3, -1, -6, 0
1503510492003,2, -3, -10, -2, -2, 2, 0, 2, 0
1503510492024,-8, -17, -7, -2, -1, -2, -4, 1, 0
1503510492039,-10, -9, -2, 0, 0, -1, 3, -2, 0
1503510492061,1, 5, 1, 0, -1, -3, 3, 2, 0
1503510492084,10, -12, -4, -1, 1, 0, -1, -5, 0
1503510492099,6, 3, 7, 1, 0, 0, -3, 0, 0
1503510492121,-9, -4, -3, 0, -1, 0, -2, -3, 0
1503510492144,-2, -9, -2, -2, -4, -1, -3, -1, 0
1503510492160,2, 0, -1, -1, -3, 0, 0, -1, 0
1503510492184,-17, 14, -1, -1, 1, -1, -2, -8, 0
1503510492205,7, -16, -4, -1, -2, -3, -3, 1, 0
1503510492219,23, 10, 3, -1, -1, -3, -1, 1, 0
1503510492242,3, 0, -1, 2, 3, -1, 1, 1, 0
1503510492264,4, 3, 1, -1, -1, 0, 0, 0, 0
1503510492279,27, -3, -3, -1, -2, -2, -3, -4, 0
1503510492301,18, 3, 2, -1, -1, 2, 3, 5, 0
1503510492324,3, 40, 19, 2, 0, 0, 0, 1, 0
1503510492339,-24, -20, -9, -2, -3, -1, -3, -3, 0
1503510492361,-4, -4, -1, 0, 0, 0, -3, -3, 0
1503510492384,-12, -5, -2, 0, 0, 1, 0, 1, 0
1503510492399,1, -12, -3, -1, -2, -1, -2, -2, 0
1503510492421,-15, -6, -3, 1, -2, 0, 1, 0, 0
1503510492444,5, -4, -9, -1, 0, -1, 2, 4, 0
1503510492459,15, 1, 2, -3, 0, 0, -4, -5, 0
1503510492481,-6, -8, -2, 1, -2, -2, 2, -2, 0
1503510492507,-17, -2, -2, -1, -2, -1, -4, -2, 0
1503510492519,-9, -1, 1, 0, 0, 1, -1, 0, 0
1503510492541,5, -1, -3, -1, -1, 0, 3, 3, 0
1503510492564,9, 28, -1, -2, 1, -1, -2, 1, 0
1503510492579,-18, 3, 0, -1, 0, -1, 2, -1, 0
1503510492601,-2, 6, 3, 1, -1, -2, -1, -4, 0
1503510492624,-6, -18, -2, 0, -1, -1, -2, -5, 0
1503510492641,7, -6, -6, -1, -1, -2, -6, 0, 0
1503510492661,-12, -7, 1, -1, 0, -1, 0, -5, 0
1503510492684,-12, -10, -5, -2, -1, -2, 0, -5, 0
1503510492708,3, 4, 8, 3, 2, 2, -1, 1, 0
1503510492730,0, -3, -1, -2, -1, 1, 1, 5, 0
1503510492744,11, -4, -4, -2, -3, -1, -1, 2, 0
1503510492766,23, 0, 3, 2, -1, 0, 3, 4, 0
1503510492781,-1, -4, 0, -1, 0, -2, -4, -1, 0
1503510492804,-6, 2, -2, -1, 0, -1, 0, -1, 0
1503510492826,-2, 1, -2, -1, -1, 0, 0, 1, 0
1503510492842,2, -8, -4, 0, 0, 0, -3, -3, 0
1503510492864,2, -1, -5, -3, -3, -1, 0, 1, 0
1503510492886,6, -1, 4, -1, 0, -3, 0, 1, 0
1503510492902,14, 4, 0, -1, -1, 1, 1, 1, 0
1503510492923,1, -3, 2, -1, 0, -1, -4, -5, 0
1503510492946,-5, 14, 4, 0, -1, 0, 1, 1, 0
1503510492962,-9, -6, -6, 0, -3, -2, -1, -1, 0
1503510492984,-14, -2, 2, 0, -1, -1, 0, -2, 0
1503510493006,4, -1, -2, -1, -1, -1, 0, 0, 0
1503510493022,-4, -1, -3, -2, 0, 0, 0, -2, 0
1503510493044,-6, -7, -5, -1, -2, 1, 0, -3, 0
1503510493066,-10, 0, -3, -1, 1, 0, -2, -5, 0
1503510493082,21, 1, 1, -1, 0, -1, -2, -4, 0
1503510493104,-6, -1, -2, -2, 0, 0, 0, 5, 0
1503510493126,21, 7, 0, -3, -3, -1, 0, 4, 0
1503510493144,-2, 2, 1, 2, 2, 0, 0, 0, 0
1503510493164,-17, 0, -2, 2, 0, -2, -2, 0, 0
1503510493186,-7, -4, 0, -1, -2, -1, -2, -2, 0
1503510493202,1, -3, -1, -1, -1, -3, -2, -5, 0
1503510493224,-16, -5, -9, -3, -2, -1, -1, 0, 0
1503510493248,4, -8, -2, 0, 0, -2, 1, -2, 0
1503510493262,-33, 2, -1, -3, -2, -2, -3, -2, 0
1503510493284,-1, 2, 1, -2, -2, -2, -1, 4, 0
1503510493306,11, 3, 3, -1, 0, 0, 1, 11, 0
1503510493322,0, 0, -1, -1, -2, -1, 0, -3, 0
1503510493345,-20, 1, 0, -1, 0, -1, -1, 0, 0
1503510493351,11, 2, -1, -1, -1, -1, -1, 1, 0
1503510493374,2, 21, 12, 2, 0, -1, -1, -1, 0
1503510493395,6, -9, -2, -1, -1, 1, -2, -12, 0
1503510493404,0, -5, -3, -1, -1, -2, -3, -11, 0
1503510493426,4, -1, -2, 0, -1, -3, -1, 10, 0
1503510493442,4, 3, 0, -1, -2, 0, 1, -3, 0
1503510493464,-3, 2, -1, -1, -2, -1, -2, -18, 0
1503510493486,10, -1, -1, 0, 0, 0, -1, -9, 0
1503510493502,-21, -17, -7, 0, -1, -1, 4, 0, 0
1503510493524,4, -4, -2, -1, 1, 2, -2, 4, 0
1503510493547,0, -1, 1, -1, 0, 0, -3, -1, 0
1503510493562,-6, -1, -1, -2, -2, -3, -5, -3, 0
1503510493584,7, 3, -1, 0, -1, 0, 2, 7, 0
1503510493606,-22, -18, -3, -1, 0, -2, -3, -9, 0
1503510493629,7, 5, 8, 2, -2, 0, -3, 6, 0
1503510493643,4, -1, 2, 0, 0, -1, 1, 4, 0
1503510493666,5, 10, -2, -1, -2, -2, 1, 7, 0
1503510493689,7, 8, 3, 1, 1, 0, -5, -19, 0
1503510493704,2, 8, 6, -1, -1, -3, -2, -14, 0
1503510493726,0, -2, -1, -1, 0, 0, 0, 16, 0
1503510493749,-8, -11, -5, -2, -3, 1, 3, -6, 0
1503510493763,4, 4, -1, 1, 1, 0, 1, 3, 0
1503510493787,-5, -3, -3, -1, -2, -2, -3, -6, 0
1503510493809,5, -3, -2, -1, 0, -1, -1, 2, 0
1503510493824,-12, 1, 1, 0, 1, 0, -1, -5, 0
1503510493846,13, 11, -3, -2, -1, -1, 4, 2, 0
1503510493869,-35, -5, -3, -2, -1, -2, -5, -12, 0
1503510493884,14, 1, -1, -1, 0, -1, 0, 30, 0
1503510493906,-2, -1, 0, -1, -2, -2, 2, 2, 0
1503510493929,2, 22, 7, 1, 0, 0, -5, -7, 1
1503510493944,15, -22, -8, -2, -3, -2, -5, -2, 1
1503510493966,-18, -14, -6, -2, -1, -1, 2, -6, 1
1503510493989,30, 11, 4, 0, 0, 2, 2, 9, 1
1503510493996,10, -6, -2, 0, 1, -1, -2, -2, 1
1503510494018,-13, -4, 2, -1, -2, -1, -2, 6, 1
1503510494051,-13, 0, -1, 0, -1, -5, -4, -11, 1
1503510494055,13, 1, -1, 3, 1, -1, 7, -3, 1
1503510494078,-10, -4, -1, -1, -2, -1, -10, -4, 1
1503510494094,15, -14, -1, -4, 1, 0, 4, 20, 1
1503510494117,11, -3, -1, -2, -3, 2, 0, -8, 1
1503510494138,-10, 8, 3, 0, -2, 0, -1, 0, 1
1503510494154,-3, 49, 11, 2, -1, -1, 2, 6, 1
1503510494175,11, -27, -12, -3, -3, -3, -4, -11, 1
1503510494198,-22, 2, -1, -1, 1, 5, -7, -16, 1
1503510494213,-5, -3, 0, -4, 2, -2, -5, -25, 1
1503510494235,-7, -4, 1, 1, 1, 6, 2, 8, 1
1503510494258,10, -15, 0, 0, -3, -7, -3, 6, 1
1503510494273,-7, 3, -2, -1, -1, -1, 9, 12, 1
1503510494295,1, -8, -2, -2, -1, -1, -1, 5, 1
1503510494320,25, -1, -3, -2, -1, -2, -8, -6, 1
1503510494334,-1, 9, 0, 3, -2, -24, -1, 7, 1
1503510494355,-10, -3, -3, -3, 1, 8, -3, 8, 1
1503510494378,-37, -2, 1, -1, -1, -1, -1, -8, 1
1503510494394,17, 1, -1, 1, 0, 5, -3, -6, 1
1503510494415,7, 6, 3, 0, 1, 4, -6, -9, 1
1503510494438,4, -7, -1, 0, -2, 1, 7, 49, 1
1503510494454,12, 6, 3, -2, -2, 1, 3, -3, 1
1503510494476,23, 13, 2, 0, -2, -2, -12, 6, 1
1503510494498,-4, -6, 3, 3, 4, -6, 0, -11, 1
1503510494516,-13, -5, -6, 0, -1, 1, 3, -10, 1
1503510494535,1, -3, 0, 10, 10, -1, -4, -30, 1
1503510494558,-13, -3, -3, -8, -8, -2, 6, 8, 1
1503510494580,24, 3, -1, 0, -1, 2, 6, -4, 1
1503510494596,21, 2, -4, -6, -2, 1, 2, 18, 1
1503510494620,-44, 10, 8, -4, -4, -5, -13, -42, 1
1503510494640,11, -3, 3, 4, -1, 2, -6, 13, 1
1503510494655,13, -6, -9, -3, -6, -6, -8, 8, 1
1503510494679,-25, 4, 2, -1, 0, 2, 5, -9, 1
1503510494702,-14, -30, -1, -1, 0, -1, 0, 11, 1
1503510494717,-14, -1, -6, -3, -1, 0, 8, 21, 1
1503510494739,51, -1, 8, -1, -1, -1, 2, 16, 1
1503510494762,-5, -8, -3, 0, 2, 4, 6, -13, 1
1503510494784,-13, -9, -2, -3, -3, -2, 4, 3, 1
1503510494793,-26, -9, -5, -5, -7, -1, -2, -11, 1
1503510494806,-20, 7, -1, -4, 8, 3, 16, 16, 1
1503510494829,19, 21, 7, 3, -1, 1, 1, 0, 1
1503510494851,-48, -20, -2, -1, 0, -1, 3, 31, 1
1503510494866,20, -5, -2, -1, -4, 3, 6, 3, 1
1503510494882,-25, -11, -7, -5, -2, 0, -4, -11, 1
1503510494896,10, 11, 3, -9, -3, 5, -2, -1, 1
1503510494919,-14, 6, 3, -4, 3, -4, -26, -3, 1
1503510494942,6, 20, 4, -1, 6, -2, 6, -51, 1
1503510494965,-4, -4, 2, 0, 0, 0, 7, 29, 1
1503510494979,-29, 16, -2, 1, -8, -6, -2, 1, 1
1503510495002,9, 6, -6, 3, 1, 0, -2, 9, 1
1503510495024,7, -2, -7, -1, 1, 4, -6, 57, 1
1503510495039,-94, -25, 1, 1, 1, -1, 9, -28, 1
1503510495062,3, 2, 1, 3, -1, 4, 16, -10, 1
1503510495084,35, 12, 4, 0, -5, -5, 12, 22, 1
1503510495099,27, -12, 0, -2, 4, 0, -3, -16, 1
1503510495125,-37, -30, -8, 1, -6, -2, 4, 28, 1
1503510495144,35, -7, 7, 5, 3, 3, -15, -28, 1
1503510495159,-61, 20, 3, -3, -3, -2, -5, -11, 1
1503510495182,-32, 16, 0, -2, -1, 0, 4, 6, 1
1503510495204,4, -1, -3, -1, -1, -4, 0, 8, 1
1503510495219,9, 3, -7, -2, -3, -2, -3, -6, 1
1503510495241,48, -7, -3, 0, -1, -2, -10, -21, 1
1503510495264,32, -7, 3, 1, 0, -3, -10, -42, 1
1503510495279,-25, -13, -1, 0, 0, 3, 6, 10, 0
1503510495302,-22, -37, -17, -10, -7, -2, 4, 1, 0
1503510495325,-14, 9, 4, 3, 1, -3, -7, 6, 0
1503510495339,-52, -7, -4, -4, -1, -2, -13, -41, 0
1503510495363,55, 19, 4, 0, 1, 0, 1, 23, 0
1503510495384,10, 4, -6, -3, 0, 2, 8, 16, 0
1503510495400,-8, 10, 4, 2, -1, 4, 3, 9, 0
1503510495421,-5, 17, 5, 2, 0, 4, 16, 11, 0
1503510495444,21, 0, -1, 0, 0, 2, 5, 33, 0
1503510495460,-14, 2, 2, 0, -2, -5, -1, -19, 0
1503510495481,25, 22, 3, -1, 0, -1, 2, 5, 0
1503510495504,-6, -20, -4, -1, -2, -2, -5, -8, 0
1503510495519,-59, -1, 0, 0, 1, 1, -2, -3, 0
1503510495541,16, 1, 3, -1, -1, 0, -1, -8, 0
1503510495564,-2, -12, -7, -6, -3, -2, -2, -2, 0
1503510495579,-7, -12, -5, -1, 0, -2, -14, -7, 0
1503510495602,25, -1, -3, 0, 0, -1, -1, 2, 0
1503510495624,-4, -2, -1, -3, -4, -2, -7, -9, 0
1503510495639,-11, 5, 2, 4, 3, 4, 11, 6, 0
1503510495654,-3, -1, 4, 4, 1, 1, -8, 1, 0
1503510495670,15, -2, -4, -2, 0, 1, 9, 24, 0
1503510495691,2, -17, 3, 0, 4, 5, 0, 0, 0
1503510495713,10, -22, -9, -4, -3, -3, -7, 7, 0
1503510495721,-22, 9, -4, -1, -4, 0, 2, 9, 0
1503510495729,-5, -10, -4, -1, 0, 0, 8, 5, 0
1503510495751,-3, 3, -4, -4, -1, -2, 1, 0, 0
1503510495774,5, 15, 3, 0, 0, 0, 1, -4, 0
1503510495782,-6, -11, -7, -3, -4, -2, -6, -4, 0
1503510495806,-7, 5, 2, 2, 0, 0, -1, 2, 0
1503510495819,10, -2, 0, -1, 0, 1, 3, 7, 0
1503510495842,-7, 15, 0, -1, -1, -3, -1, -2, 0
1503510495865,14, -6, 0, -1, 1, 2, 11, 4, 0
1503510495879,-20, -4, -1, 0, 2, 3, 5, 7, 0
1503510495901,-7, -5, 0, 4, 1, -3, -9, -16, 0
1503510495923,4, 1, -2, -3, -2, -1, 5, 9, 0
1503510495939,-20, -9, -5, -3, 0, 1, 3, 4, 0
1503510495953,-36, -14, -5, -3, -3, -3, 2, -6, 0
1503510495968,-7, -8, -2, 0, -2, -3, 1, -4, 0
1503510495991,3, 4, -4, -2, -2, 0, -4, 2, 0
1503510496013,11, 3, 3, 1, 0, 2, 4, 3, 0
1503510496030,-3, -8, -3, -2, -4, -3, 7, 3, 0
1503510496051,26, 27, 7, 1, -2, 1, -2, -5, 0
1503510496073,29, 11, 4, 3, 2, 0, -1, 4, 0
1503510496088,-6, -9, -2, -1, 0, 1, 2, -2, 0
1503510496111,-9, 3, -6, -4, -2, -4, -6, -6, 0
1503510496133,-12, -8, 1, -2, -1, -1, -7, 3, 0
1503510496148,24, -17, -7, -2, -2, 0, -4, -6, 0
1503510496171,-22, -1, 1, 0, 0, -1, 4, 7, 0
1503510496193,-4, 1, 0, -3, -4, -4, -6, -13, 0
1503510496208,1, 21, 3, -1, -1, 2, 4, 5, 0
1503510496232,-9, -7, -3, 1, 1, 2, 5, 10, 0
1503510496253,1, -4, 3, 2, 0, 0, 2, 6, 0
1503510496268,-15, -1, -1, -1, -1, -1, -3, -7, 0
1503510496291,4, -2, -5, -3, -1, 0, 1, 4, 0
1503510496313,-15, -25, -8, -1, -2, -2, -4, -10, 0
1503510496328,8, -6, -7, -2, -3, -2, 0, 4, 0
1503510496351,8, -16, 0, 0, -1, 0, 0, 1, 0
1503510496374,-5, 6, 4, 0, -1, -2, -1, -7, 0
1503510496389,9, 8, -3, 1, 0, 2, 1, 2, 0
1503510496411,-9, -2, -2, -2, -2, -5, -7, -10, 0
1503510496434,-16, 2, -7, -6, -2, 0, 3, 4, 0
1503510496456,-19, 1, 0, -2, -2, -2, -5, -10, 0
1503510496471,-7, -1, -1, -2, 1, 1, 1, 5, 0
1503510496493,-4, 3, 0, 0, -2, 0, 0, -4, 0
1503510496516,13, -8, 2, 1, 1, 0, -1, 3, 0
1503510496531,15, 18, 11, 4, 0, 2, 1, 4, 0
1503510496553,17, -12, -6, -2, 0, -1, -5, -2, 0
1503510496576,-12, 8, 9, 6, 2, 1, 3, 3, 0
1503510496591,8, -10, 0, -3, -3, -3, -3, -8, 0
1503510496613,6, 3, 2, 0, -1, -2, 1, 4, 0
1503510496636,-6, 4, 2, 0, 0, 1, -1, -2, 0
1503510496651,8, 3, -4, -4, -4, -3, -3, 6, 0
1503510496674,4, 7, -1, 0, -1, 1, 4, -1, 0
1503510496696,-13, 0, -1, 0, 1, 1, -1, -5, 0
1503510496711,-2, -11, -9, -6, -4, -2, -3, -3, 0
1503510496736,1, -7, -5, -2, 0, -1, -1, 2, 0
1503510496756,17, 7, -1, -2, -1, 0, 2, 5, 0
1503510496771,-26, -7, 0, 3, 1, -3, -9, -8, 0
1503510496793,6, 8, -2, 1, -2, -2, 2, 3, 0
1503510496816,20, 0, 2, 0, 1, 1, -1, -5, 0
1503510496831,-9, -9, -5, -2, 1, -3, 2, -1, 0
1503510496853,-17, 0, 1, -1, -3, -1, -3, -12, 0
1503510496876,12, -5, 4, 3, 1, 0, -1, -4, 0
1503510496891,7, 12, -3, -4, -1, -2, -3, -3, 0
1503510496913,-14, -7, -2, -1, -1, 3, 1, -1, 0
1503510496940,0, 7, 7, 7, 2, -2, 4, 3, 0
1503510496951,-11, 4, 0, 1, 1, -1, 2, -5, 0
1503510496974,22, 1, -3, -4, -3, 1, 1, 4, 0
1503510496996,4, -12, -2, -2, -1, -3, -13, -10, 0
1503510497026,-9, 4, 4, 1, 0, -2, -4, -6, 0
1503510497041,-9, 4, 2, 3, 1, 0, 3, -2, 0
1503510497064,4, -2, 3, 2, 0, 0, 3, 1, 0
1503510497086,-19, -6, -2, 0, -2, -2, -1, -9, 0
1503510497101,-11, 7, -1, -2, -3, -1, 3, 11, 0
1503510497124,-15, 14, 8, 4, 1, -4, -9, -12, 0
1503510497147,6, -12, -3, -4, 0, -1, 0, 2, 0
1503510497161,19, 1, -3, 0, 2, 2, 6, 6, 0
1503510497184,3, -8, -1, 0, -1, -1, -3, 0, 0
1503510497210,1, -13, -11, -1, 0, 2, -5, -3, 0
1503510497221,-25, 4, 9, 3, 0, -2, -3, -2, 0
1503510497244,-8, -18, -6, -5, -3, 0, -2, -4, 0
1503510497266,0, 22, 0, -1, -2, -4, -2, 1, 0
1503510497282,-9, -20, -8, -4, -3, -2, -1, -4, 0
1503510497308,7, 5, 4, 0, -3, 1, 4, -1, 0
1503510497326,11, -1, -6, -1, -1, -5, -5, 3, 0
1503510497348,0, -4, -6, -7, -3, 2, 5, 8, 0
1503510497364,-12, -6, 4, 2, 2, 1, -1, -3, 0
1503510497386,3, 1, 4, 3, 1, 0, 1, 0, 0
1503510497409,5, 8, 5, 0, 3, 1, 1, 1, 0
1503510497424,-5, -3, -4, -2, -2, 1, -2, -1, 0
1503510497447,-1, -3, 1, -1, -1, -3, -2, -2, 0
1503510497468,1, -1, -5, -3, -2, 0, 1, -3, 0
1503510497484,3, -1, -3, -1, -1, -2, -1, -4, 0
1503510497508,0, -1, -4, -5, -1, -2, -1, 0, 0
1503510497514,5, 3, 0, 8, -3, -1, -2, -1, 0
1503510497536,17, 2, -2, -17, 0, 0, -2, -1, 0
1503510497558,-2, 0, 0, -9, 0, -2, -1, -1, 0
1503510497576,-14, 5, 6, 8, 0, -1, 0, -2, 0
1503510497596,4, 2, 2, 5, 0, 0, -2, 1, 0
1503510497618,-5, -3, 1, 0, 0, -1, 0, -2, 0
1503510497633,4, -7, -2, 10, -1, 0, 0, -1, 0
1503510497656,-2, 15, 9, 1, 2, 0, -2, -2, 0
1503510497678,-6, -4, -5, 12, -2, -2, -3, -6, 0
1503510497693,-10, -9, -4, -7, -2, 0, 1, 1, 0
1503510497716,11, -16, -6, -4, -1, 0, 0, 3, 0
1503510497738,-14, -2, 0, -2, -2, -3, -4, -9, 0
1503510497753,-10, -3, -2, -4, -1, -1, 1, -2, 0
1503510497777,7, -9, -1, -2, 0, -2, 2, -3, 0
1503510497798,-13, 4, -2, -2, 0, 1, -1, 2, 0
1503510497813,17, -4, -7, 1, -3, -2, 0, 2, 0
1503510497836,-1, -3, -3, -5, -3, -1, -4, -4, 0
1503510497858,3, -1, -1, 0, -1, 1, 2, 2, 0
1503510497873,-4, 5, 1, -1, 0, 0, -2, -2, 0
1503510497896,-2, -6, 5, -3, -1, -1, 1, 1, 0
1503510497919,11, 2, -3, 2, -1, 0, 2, 5, 0
1503510497933,21, -1, -4, 0, 0, -1, 1, 3, 0
1503510497956,-18, -4, -4, -2, -2, -5, -5, 0, 0
1503510497979,-5, -5, -2, -4, 0, 4, 3, -2, 0
1503510497993,-4, 13, -1, -4, 1, 0, -1, -1, 0
1503510498016,-22, -11, -3, 3, -3, -2, -6, -16, 0
1503510498038,5, 12, 0, -4, 0, -1, -2, 2, 0
1503510498053,-5, -1, -1, -2, 0, -1, -1, -2, 0
1503510498078,2, -4, 0, -3, -2, -2, 1, -3, 0
1503510498098,0, -2, 0, 1, 1, 0, -1, 2, 0
1503510498113,-5, 13, 2, 1, -1, 0, -1, 0, 0
1503510498136,26, 41, 13, -3, 0, -2, -1, 3, 0
1503510498158,-4, 0, -3, -2, -1, 0, 2, 5, 0
1503510498173,10, -10, -4, 0, 0, 0, -1, 8, 0
1503510498196,-4, -30, -4, 0, -1, -1, 2, -5, 0
1503510498218,-3, -21, -5, 1, -1, -1, -2, -2, 0
1503510498233,-5, 22, 4, 0, -1, -1, 0, 2, 0
1503510498256,-6, 1, 1, -2, -1, -1, -5, -7, 0
1503510498280,13, 2, 1, 2, -1, 0, 2, 4, 0
1503510498300,-18, -16, -3, -2, 3, -2, -1, -5, 0
1503510498316,9, -1, -1, 0, 1, 0, 1, 3, 0
1503510498338,-13, -12, -5, 0, -3, 0, -2, -6, 0
1503510498360,-3, 6, -3, -3, -1, 2, 8, 2, 0
1503510498376,-23, -6, 1, 0, -2, -1, -1, -3, 0
1503510498397,7, 7, 0, 0, -2, -2, -10, -10, 0
1503510498421,-3, -7, -3, -3, 0, -5, -11, -19, 0
1503510498436,-1, -10, -3, -1, -1, -2, 2, 6, 0
1503510498458,10, 9, 1, 1, -2, -3, -5, -1, 0
1503510498481,-21, -4, -2, 3, -1, -1, -4, -9, 0
1503510498490,10, 1, 2, 3, 7, -1, -4, 2, 0
1503510498511,-18, 4, 3, -1, -4, -1, -1, -4, 0
1503510498527,-6, 8, 0, -1, 0, -2, -4, -10, 0
1503510498550,6, -2, -3, 0, 0, -2, 1, 2, 0
1503510498571,-1, 0, 2, 0, -4, -1, -1, 2, 0
1503510498587,3, 1, 1, 2, -3, -3, -6, -2, 0
1503510498608,2, 4, 3, -2, -1, -1, -1, -2, 0
1503510498631,3, -14, -8, -3, -1, -1, 0, 2, 0
1503510498650,5, 7, -2, -22, -5, 0, 4, 2, 0
1503510498668,-8, -2, 0, -1, -3, -1, -13, -5, 0
1503510498691,15, 1, 2, 6, 4, -5, 5, -2, 0
1503510498706,11, -26, -4, -3, -2, -1, 1, 2, 0
1503510498728,-2, -5, -7, 1, 0, 2, -2, -8, 0
1503510498751,-7, 30, 7, 7, 1, 0, -1, -1, 0
1503510498766,-9, -9, -2, 0, -1, -3, -10, -4, 0
1503510498788,-9, -5, 2, -5, -1, 1, 8, 0, 0
1503510498811,-4, 4, -2, -1, 0, 1, 1, 2, 0
1503510498826,0, 0, -3, -1, 1, 2, 0, -1, 0
1503510498851,12, 10, -4, 2, -1, -3, 0, -1, 0
1503510498871,5, -7, 2, 2, 1, 2, 1, 4, 0
1503510498888,-1, 7, -2, 1, -2, 0, 1, 6, 0
1503510498908,-2, -7, 5, 2, 0, 2, -9, -2, 0
1503510498931,-5, -11, -6, -4, -2, -2, 3, 1, 0
1503510498946,-2, 7, 3, -2, 0, -1, -1, -2, 0
1503510498961,0, -4, -3, 0, -3, -3, -4, -2, 0
1503510498976,-23, 0, 3, 0, 1, 0, 0, -2, 0
1503510498998,4, 9, 2, 0, -3, 0, -7, -5, 0
1503510499021,1, -8, -5, -2, -1, 2, -2, 2, 0
1503510499036,3, 5, 1, 0, -1, 1, -2, -1, 0
1503510499058,6, 6, 6, 1, -1, -1, -3, -2, 0
1503510499080,3, -2, -2, -1, -2, -2, 2, -2, 0
1503510499096,3, -5, -1, -2, 0, -1, -1, 2, 0
1503510499119,2, 17, -1, -3, -2, -1, -1, 1, 0
1503510499140,-6, -12, -3, -2, 5, -2, -6, 1, 0
1503510499156,1, -6, 2, 0, -1, 2, 4, 0, 0
1503510499177,10, 4, -2, -1, -2, -1, 0, -2, 0
1503510499187,4, 2, -1, -1, 0, -1, -3, -1, 0
1503510499209,16, 8, 1, 1, -1, -2, -3, 2, 0
1503510499231,-4, 14, 1, -1, 0, 1, -2, 0, 0
1503510499254,7, 1, -1, 1, -1, -2, -2, 1, 0
1503510499268,-2, -12, 2, -1, 0, -3, -4, -9, 0
1503510499293,8, -9, -6, -2, -2, 1, 2, 0, 0
1503510499313,-4, 3, 2, 0, 1, -4, -4, 0, 0
1503510499321,7, 0, -2, 1, -1, 1, 3, 7, 0
1503510499343,-5, 1, 2, 1, -2, 0, -3, -1, 0
1503510499360,1, 1, 2, 0, -1, -1, -1, -2, 0
1503510499380,3, 3, -2, 0, 1, -2, 0, 1, 0
1503510499403,-1, 1, -1, -1, 0, 1, 0, -1, 0
1503510499420,3, -4, 0, -1, 0, -1, 0, -2, 0
1503510499440,5, 4, 3, -3, -3, -2, -2, 6, 0
1503510499463,-5, 6, 1, 0, -1, 1, 0, -2, 0
1503510499478,-8, 1, 1, -1, 1, 0, -8, -3, 0
1503510499500,-8, -2, 3, -1, -1, 0, 2, 2, 0
1503510499523,-6, -2, -5, -1, 0, -1, 0, -4, 0
1503510499545,5, -13, -3, 0, -1, -2, 1, -2, 0
1503510499560,-2, -12, -2, -1, -1, -1, 0, -3, 0
1503510499583,-12, -2, 1, -1, -1, 0, -6, -4, 0
1503510499598,-3, -1, -6, -2, -1, -1, -1, -3, 0
1503510499623,14, 4, -1, -2, -1, -2, 0, 0, 0
1503510499629,7, -4, -2, 1, -1, 0, 0, 0, 0
1503510499651,-9, -4, -3, 0, 0, 0, -1, 0, 0
1503510499673,-2, -4, 1, -2, 0, -1, -2, -3, 0
1503510499689,3, 19, 3, 0, -2, -1, -2, -2, 0
1503510499718,1, -5, -5, -2, -2, -2, -5, -4, 0
1503510499733,-9, -1, 0, 0, -1, 0, 1, 0, 0
1503510499748,21, -7, 0, -1, 0, 0, -2, -4, 0
1503510499771,6, -1, -3, -2, -2, 0, 0, 3, 0
1503510499794,-7, 2, -1, 1, 0, -1, -1, -3, 0
1503510499808,-9, -4, -4, -3, -1, -1, -1, -3, 0
1503510499831,-11, -2, -3, 0, 0, 1, 0, -1, 0
1503510499853,0, 1, 0, -1, -2, -2, -1, -4, 0
1503510499868,1, -6, 0, -1, 0, -1, 1, -2, 0
1503510499891,0, 1, 0, 0, 0, -1, -2, -1, 0
1503510499913,-6, -7, -2, -2, -1, -1, 1, 2, 0
1503510499928,-19, 6, 2, -1, -3, -1, 0, 0, 0
1503510499951,3, -3, -4, -3, 0, -1, -1, -4, 0
1503510499974,-14, -3, 0, -1, -1, 1, -1, -2, 0
1503510499982,2, -6, -5, -3, -1, -1, -4, -5, 0
1503510500005,-3, -1, -3, -1, -1, 0, -1, -2, 0
1503510500035,5, 2, 1, -3, -2, -1, 1, 0, 0
1503510500041,4, -6, -3, -1, -1, -1, -1, -1, 0
1503510500065,-3, -9, -4, -1, -2, 0, -4, -5, 0
1503510500086,-3, 7, 0, 0, -2, -2, -1, 0, 0
1503510500103,-11, 0, -1, 0, 0, -1, -4, -5, 0
1503510500129,1, -4, -2, -1, -2, 0, 2, 1, 0
1503510500153,-10, -1, -2, -4, -1, 1, 1, -1, 0
1503510500169,-13, -4, -2, 0, -3, -2, -1, 3, 0
1503510500184,3, 9, 5, 2, 1, 1, 2, 2, 0
1503510500206,-4, 3, -4, -1, 0, 0, 0, -2, 0
1503510500221,6, -3, -3, -2, -1, -1, -1, 0, 0
1503510500244,8, 4, 1, 1, -2, -2, -1, -2, 0
1503510500266,4, 0, 1, 0, 3, 0, 0, 1, 0
1503510500281,1, -1, 2, -3, 0, 0, 1, 1, 0
1503510500304,5, -1, 1, 1, 1, -1, -1, -1, 0
1503510500330,-7, -7, -3, 3, -3, -2, -2, -1, 0
1503510500341,-7, -8, -4, 0, 0, -1, -1, -2, 0
1503510500373,0, 5, 1, 1, -1, -3, -1, -3, 0
1503510500400,1, -5, -4, 0, -1, 0, -1, -4, 0
1503510500416,-12, 3, 1, 0, 0, 1, -1, 0, 0
1503510500433,-3, 0, -2, -2, 0, -2, -1, 2, 0
1503510500453,-9, 1, -2, -2, -2, 0, -1, 3, 0
1503510500466,1, -1, -2, 1, -1, 0, -3, 0, 0
1503510500485,-6, -8, -2, -4, -3, 0, -1, -2, 0
1503510500507,0, 4, 4, 2, 3, 0, -1, -2, 0
1503510500521,0, -3, -2, -1, -2, -1, -2, 1, 0
1503510500544,1, -2, -3, -1, -1, 0, 1, 1, 0
1503510500567,8, 2, -3, -1, -2, 0, -1, 2, 0
1503510500581,3, 3, 4, 0, -1, 0, 0, -6, 0
1503510500604,3, 2, -4, -2, 0, -2, 0, 2, 0
1503510500626,3, 2, -2, 3, -1, 2, 1, 3, 0
1503510500641,3, -5, -2, -1, -1, -1, 1, 0, 0
1503510500664,-12, -1, 0, -2, -2, -1, -1, -3, 0
1503510500686,-2, -14, -2, -1, 0, -1, -3, -3, 0
1503510500701,4, 3, 1, -1, -1, -1, 1, -1, 0
1503510500724,3, -9, -1, -3, -1, -1, 0, 0, 0
1503510500746,-3, 2, 0, -2, 0, 0, 0, -1, 0
1503510500764,-19, 1, 5, 1, -1, -2, -5, -7, 0
1503510500784,5, 13, 1, -1, 0, -2, -1, 1, 0
1503510500806,-3, 10, -2, -1, 0, -1, -1, 0, 0
1503510500821,-5, 0, -2, 0, -2, -2, -3, -2, 0
1503510500844,0, -4, -1, -1, -2, 2, 0, 0, 0
1503510500866,4, -6, -3, 0, -1, 0, 1, -1, 0
1503510500881,17, 1, -4, 0, -1, 0, 1, 4, 0
1503510500911,-11, -5, -1, -3, 0, 0, -1, -6, 0
1503510500926,-8, -6, -4, -2, -3, -1, -4, -5, 0
1503510500942,21, 5, 0, 0, 2, -2, -2, 5, 0
1503510500969,-7, -12, -1, -2, -2, -2, -1, -5, 0
1503510500987,-3, -3, -2, -1, -1, -1, 0, 1, 0
1503510501002,3, 6, 6, 2, -3, -2, -1, -3, 0
1503510501024,5, -6, -6, -3, 0, 0, 1, 1, 0
1503510501046,-10, 0, -1, 1, -1, -1, 0, 0, 0
1503510501061,-14, 3, 2, 0, -1, 0, -3, -1, 0
1503510501084,1, -1, -1, 2, -2, -2, -2, -1, 0
1503510501106,3, -2, 2, -2, 0, 0, -1, 0, 0
1503510501129,0, -1, -2, -1, 2, 3, -1, 0, 0
1503510501144,2, 0, -5, -3, -2, -1, 3, 4, 0
1503510501166,6, 0, 0, -1, -3, -1, 1, 26, 0
1503510501189,1, 1, 0, 1, 1, -2, 0, -7, 0
1503510501205,-11, 0, 1, 1, -1, 1, 2, -10, 0
1503510501227,4, -1, -1, -2, -2, 0, 1, -16, 0
1503510501248,-3, -2, 0, 0, -1, 0, -1, 1, 0
1503510501256,-7, -5, -4, -1, -2, -1, 2, 4, 0
1503510501278,-20, -3, 3, 2, 1, 1, -3, -14, 0
1503510501293,6, 3, -2, -1, 1, -1, 0, 3, 0
1503510501316,-4, -2, -1, -3, -2, 0, -2, -1, 0
1503510501338,2, 1, 0, 2, 0, 0, 2, -2, 0
1503510501353,-4, -3, -2, -3, -2, -3, -1, 6, 0
1503510501376,8, 4, -1, -2, -1, -1, 2, -4, 0
1503510501398,-7, 25, 5, -1, -1, -1, -1, -2, 0
1503510501413,5, -6, 0, 0, 0, 1, 1, -5, 0
1503510501436,-1, -11, -4, -1, -1, 0, -1, 4, 0
1503510501458,3, 13, 21, 3, 1, -3, -3, 12, 0
1503510501473,-1, 18, -3, -3, -3, 2, -1, -6, 0
1503510501502,-4, -7, -4, -1, -2, 3, 5, 1, 0
1503510501504,-11, -10, -6, -3, -2, -2, -5, -26, 0
1503510501537,15, -6, -4, -1, -2, 1, 2, 34, 0
1503510501556,-9, -3, -5, -1, 0, 0, -4, -11, 0
1503510501578,4, -6, -1, 0, 0, -4, -4, -16, 0
1503510501593,3, -7, -5, -5, 0, 1, 4, -7, 0
1503510501615,19, -4, -2, -1, 1, -1, -2, 1, 0
1503510501624,-9, -2, 0, 1, 2, 3, 2, 17, 0
