1503945980568,1, -3, 0, -1, 0, -2, -1, 0
1503945980584,-2, -3, -5, -2, -1, -1, -1, 0
1503945980622,-1, -4, -6, 1, -3, -1, 1, 0
1503945980640,-3, 0, 5, 1, 0, -1, 1, -1
1503945980658,1, 3, 3, -1, 0, 1, -2, 1
1503945980674,-3, -1, -3, -2, -1, -1, -1, -2
1503945980696,0, -1, -3, 0, 0, -1, 0, 2
1503945980721,-1, -3, -5, -1, 0, -1, -1, -1
1503945980734,-1, 9, 7, 0, 2, -2, -2, -2
1503945980756,0, -3, -4, 2, -2, -1, -1, -3
1503945980779,-1, -4, 0, -1, -1, -2, 1, 1
1503945980795,0, 5, 4, -3, -3, -3, -1, -2
1503945980816,-3, 1, -4, -2, -2, 0, 0, 1
1503945980824,0, 6, 2, -2, 0, -1, -2, 0
1503945980846,-3, -4, -1, 1, -1, -1, -1, -6
1503945980868,2, 2, -3, -3, -1, -1, 1, 4
1503945980898,-2, 8, 4, -1, -1, -1, 0, 0
1503945980914,-1, -9, -1, 0, 0, 0, -1, -1
1503945980936,-1, -6, -4, -3, -1, 0, -1, 0
1503945980959,-1, -1, -2, -2, -1, -3, 2, -2
1503945980974,-1, -5, -2, -1, -3, 0, -1, -1
1503945980997,-2, 1, 5, 2, 1, 0, 0, 2
1503945981019,1, 4, 4, 1, -2, -1, 0, 1
1503945981034,-1, -3, -6, -1, 0, -2, -1, -2
1503945981056,-1, 0, -1, 0, 0, -1, -2, -3
1503945981078,-1, -1, 0, -1, -2, 0, -2, -3
1503945981094,-2, 4, 1, -1, -1, -1, 0, 0
1503945981119,1, -3, -3, -4, -2, 1, -1, -2
1503945981138,1, -3, 0, -1, -1, -2, 0, -2
1503945981154,1, 2, -3, -1, 0, -1, -1, -1
1503945981176,-1, -4, 0, 0, 0, -1, 0, -3
1503945981199,0, -12, -11, -3, -1, -2, 1, -1
1503945981221,0, 1, 1, -1, -3, 0, -2, 0
1503945981236,0, 0, 3, 1, -1, -3, -1, 1
1503945981258,-2, 2, -2, -1, 0, 0, -1, -1
1503945981281,-1, -6, -4, 0, -3, -3, 1, 0
1503945981297,-1, -5, -2, 0, 0, 1, -2, 2
1503945981320,0, 6, 3, -2, 0, 0, -1, -2
1503945981341,-1, -1, -1, -2, 0, -2, 0, -1
1503945981357,1, -2, 3, 1, 0, -1, -1, -2
1503945981378,0, 0, -3, 0, -2, -1, -2, 1
1503945981401,-2, -6, -4, 0, -1, -1, 1, 0
1503945981416,-3, 1, 0, -3, -2, -1, -2, -1
1503945981438,0, 3, 0, -1, 1, -1, 0, -1
1503945981461,0, -3, -2, -1, -2, 0, 0, 2
1503945981476,-2, -5, -6, -1, -1, 1, -1, -1
1503945981498,-2, 1, -2, -1, -1, -1, 0, -5
1503945981522,1, 5, 7, 1, 1, -1, -3, 1
1503945981536,1, 0, 1, 1, -1, 2, -1, 2
1503945981558,-2, -2, 0, 1, 0, -1, -1, -2
1503945981581,1, -1, -4, -2, -1, -1, 0, 1
1503945981597,0, -3, -4, -2, -1, -2, -1, 2
1503945981618,0, -2, -3, -3, -1, 0, -3, -4
1503945981641,-3, -2, -2, 1, -2, -1, -3, -4
1503945981657,-1, -2, 2, -1, 1, -2, -1, -2
1503945981678,0, 3, -1, -2, -1, 2, -1, -1
1503945981689,0, 0, 0, -3, -1, 0, 0, 1
1503945981708,-2, 5, -5, 0, -3, -2, -2, -3
1503945981731,-3, -4, -6, -1, -2, 2, -2, -2
1503945981746,-3, -1, -2, -4, -1, -1, 0, -2
1503945981769,-1, -2, -1, -1, 1, -1, -1, 1
1503945981791,0, -9, -7, 0, 0, -3, 0, -2
1503945981806,0, -1, 2, 0, -1, -1, -2, -3
1503945981828,1, -4, -3, -1, -2, -2, -4, 2
1503945981850,-2, 0, 0, -1, 0, 0, -1, 0
1503945981866,-2, 7, 2, 0, -3, -1, -1, 0
1503945981890,-1, -5, -2, -1, 0, 1, 1, 0
1503945981910,-1, -2, 0, -2, -1, -1, -2, 0
1503945981926,-2, 0, 0, 0, -3, 1, -1, -1
1503945981948,-2, -3, 1, -2, 1, -1, 1, -1
1503945981970,-5, 0, 5, 2, 0, 0, -1, -2
1503945981986,1, -2, -5, -2, -1, -2, -1, 1
1503945982008,1, -2, -1, -1, -1, 0, -2, -1
1503945982031,-2, 4, 3, -2, -2, -2, -3, -3
1503945982046,1, -1, -5, -2, -1, 0, -1, -1
1503945982068,2, 1, -1, -2, 0, -2, -2, 1
1503945982092,0, 0, -1, 0, -1, -1, -1, -3
1503945982106,2, 5, 1, 0, -1, 0, -1, -1
1503945982128,-3, -8, -4, 0, -2, -1, 1, 1
1503945982150,-3, -3, -3, -1, 0, -1, -1, -3
1503945982173,1, 1, -2, -2, -1, -1, 0, 1
1503945982188,1, 24, 19, 4, 0, 0, -1, 1
1503945982210,0, -10, -8, -4, -1, -1, -1, 0
1503945982233,1, -3, 1, 1, 1, 2, 0, 5
1503945982248,0, -6, 1, -2, 1, -1, -2, 2
1503945982270,0, 2, 1, -2, -3, -3, 1, -3
1503945982293,-2, -9, -8, 0, -1, -2, 0, -2
1503945982308,-1, 4, -1, -1, 0, 0, 0, -3
1503945982330,2, -1, -4, -2, 0, -1, -1, -2
1503945982352,-1, -3, -4, 0, -1, 0, 0, -1
1503945982368,0, 1, 1, 0, -2, -1, -2, 0
1503945982390,0, 5, 5, 0, 0, -1, -1, -2
1503945982413,-1, 2, 0, 0, -2, -3, -1, 2
1503945982429,-4, -4, 1, -2, -1, 0, -1, -4
1503945982450,1, -5, -5, 1, -1, 1, 0, 1
1503945982473,-1, 1, 2, -1, 1, 0, 0, 1
1503945982488,0, -2, -5, -2, -2, -1, -1, -3
1503945982510,-2, -5, 1, 0, -1, -2, 0, -3
1503945982533,-1, -2, 1, -1, -3, -1, -1, -1
1503945982549,-1, -3, -4, -1, -1, 1, 0, 0
1503945982572,0, -3, -2, 0, -2, -4, -2, 2
1503945982595,0, 8, 4, -1, -1, 1, -1, -1
1503945982608,-1, -7, -6, -1, 0, -1, -1, -2
1503945982632,-1, -5, -3, -1, -1, 0, -1, -1
1503945982653,-3, -3, -2, -3, -1, 1, -3, -2
1503945982669,3, -5, -1, -1, -1, -2, 1, 0
1503945982690,1, 3, -1, 0, -1, 0, -1, -2
1503945982713,2, 2, -2, -2, 0, 0, -3, 0
1503945982730,-2, 3, 1, 0, 0, 0, 1, -1
1503945982751,-3, -1, 0, 1, 0, -1, -1, -2
1503945982773,-1, -1, -1, 0, -2, -1, 0, 2
1503945982788,-1, -1, -2, -2, -2, -2, -2, 0
1503945982811,-4, 2, -2, -2, 1, -1, 0, -2
1503945982833,-2, -1, -1, -2, 1, 0, -1, 0
1503945982848,0, 1, 0, -3, -3, -2, -2, -4
1503945982872,1, 0, 3, 1, -2, -3, -1, 0
1503945982893,-2, -1, -1, 2, 0, -1, -1, 1
1503945982909,0, 4, 2, 0, 0, -1, -1, -1
1503945982931,-3, -7, -4, 0, 0, -1, -1, -2
1503945982953,1, 2, 3, 0, -1, 0, -2, 0
1503945982968,-1, -6, -6, -2, -2, 0, 1, -1
1503945982991,-1, 0, -5, -2, -1, -2, -2, -2
1503945983000,0, -4, -4, -3, -1, 0, 0, -3
1503945983021,-3, 1, 4, 1, 0, -1, -1, -1
1503945983043,-2, -3, -5, -3, -2, -1, 0, -2
1503945983066,0, -2, 2, -1, -1, 0, 1, -1
1503945983081,0, -3, -5, -2, -2, -2, -2, 1
1503945983104,0, 0, 1, -1, 2, -1, 0, -2
1503945983126,-1, 5, 4, 2, -2, -1, -1, 0
1503945983141,-2, -2, -1, 1, -1, -1, -2, 2
1503945983166,-1, 2, 3, 1, 0, -2, -1, 1
1503945983186,0, -2, -3, 0, -1, 0, -1, 0
1503945983201,0, 1, -4, -3, -3, 0, 1, 0
1503945983223,-2, -5, -6, -5, 0, 1, -1, -4
1503945983246,-2, -5, -5, -3, -1, -2, 0, 1
1503945983261,-1, -1, 0, 2, -2, 0, -2, -1
1503945983283,-4, -6, 0, -2, 0, -1, -1, -1
1503945983306,-2, 5, 7, 0, -2, -2, 1, -2
1503945983321,0, 1, 2, 2, 1, 0, -2, -3
1503945983343,-1, 2, -1, 0, 0, -1, -1, -1
1503945983367,-2, -2, -1, 1, -2, 0, -3, 0
1503945983381,0, -2, -1, -2, 1, 0, -2, -1
1503945983405,1, 2, -1, 0, 0, -3, 1, -1
1503945983426,-1, -3, -1, -1, -2, 0, -2, 1
1503945983441,0, -1, -2, 0, 0, -3, 1, 0
1503945983464,0, -2, -4, -3, -1, 0, -2, -1
1503945983486,-2, 8, 5, 0, 0, 1, 0, -3
1503945983493,0, -4, -5, -2, 0, 0, -2, -1
1503945983515,0, 0, 4, -2, -4, -1, 0, 2
1503945983531,-1, 4, 4, -2, 0, 0, -2, -1
1503945983552,-1, 0, 1, -1, -2, 0, -1, -2
1503945983576,0, -2, -6, 0, 0, -3, 1, -1
1503945983591,-1, 3, 4, 0, -2, -1, -1, -4
1503945983612,-2, -6, -4, -2, -1, 0, -2, 2
1503945983637,-2, -3, -2, -1, 3, -1, 0, -4
1503945983651,1, -2, 0, 2, -1, -3, 1, 1
1503945983673,1, 2, 1, -1, 0, 2, 0, -2
1503945983695,-1, 2, -1, 0, -1, 0, -1, 3
1503945983711,1, -2, -3, -1, 0, -2, 1, 0
1503945983732,-4, -3, 0, -1, -2, -2, -2, -3
1503945983755,-2, 2, -1, 0, 0, -1, 0, -1
1503945983771,-2, -6, -3, 0, 0, 2, -2, -1
1503945983792,0, -2, -3, -1, -1, 0, 0, 0
1503945983815,0, -4, -2, 0, -1, -3, 1, -1
1503945983831,2, 5, 1, -1, -2, 0, -2, 1
1503945983854,0, 1, -3, -2, 1, -2, -1, -1
1503945983876,0, 0, -5, -3, -1, 1, -1, -1
1503945983899,-2, -5, -4, -1, -1, -2, -1, 0
1503945983914,-2, 0, 1, 2, 1, 0, -1, -3
1503945983939,0, -1, 1, -4, -1, 0, 0, 2
1503945983959,3, 23, 8, 1, -1, -2, -2, 1
1503945983978,-2, -8, -3, -2, -2, -2, 0, -3
1503945983996,1, -4, -3, 0, 1, -1, 2, -1
1503945984019,-3, 5, 2, -2, -2, -3, -2, -2
1503945984034,-2, 2, 3, 1, -1, 0, -1, -2
1503945984056,0, -8, -7, -2, 1, -1, -1, 0
1503945984079,-2, -6, -1, -2, -2, -1, 0, -3
1503945984094,-2, -5, -2, 1, -2, 0, 1, 1
1503945984116,0, -9, -1, -1, -1, 1, -1, -2
1503945984140,0, 2, -4, -1, 0, -2, -2, -1
1503945984154,0, 7, 4, 0, -1, -1, -1, -4
1503945984178,0, -3, 3, 0, 0, -1, 0, 1
1503945984199,-1, 10, 10, 0, 1, 0, -3, -1
1503945984215,-2, -7, -3, 0, -2, 0, -1, 0
1503945984236,0, -4, -5, -1, 0, -1, 1, -2
1503945984244,-1, -5, -9, -1, -1, 0, 1, -2
1503945984266,-2, -6, -1, -2, -1, -3, -1, 0
1503945984288,-2, -1, -1, -2, -1, -1, -1, -2
1503945984304,1, 1, 1, -2, -2, 0, 0, 0
1503945984326,-1, 3, 7, 2, -1, -3, -1, 2
1503945984349,-1, -3, -1, -2, 0, -2, -3, -1
1503945984363,-2, 0, 2, -1, -1, -1, -1, -1
1503945984386,0, -2, -7, -2, -1, 1, 1, -1
1503945984409,-1, -5, 0, 2, -1, -2, -1, -1
1503945984424,-2, 0, 1, 1, -1, 1, -4, -1
1503945984447,-2, -5, -5, -1, -1, -3, -1, -1
1503945984469,1, 2, -1, -1, -2, 1, 1, 0
1503945984484,0, -3, -6, -3, 0, 0, -1, -2
1503945984506,-3, -1, -3, -2, -1, -1, 0, -2
1503945984528,-1, -3, -1, 1, -1, -3, 0, -2
1503945984544,1, -1, -1, 2, 1, -1, -1, 1
1503945984566,0, 21, 21, 2, 0, 0, 1, 1
1503945984588,-2, -5, -7, -1, -3, -3, 0, -3
1503945984603,1, 0, -1, -3, 0, -3, -1, 0
1503945984626,-3, -4, -1, 0, 0, -2, -3, -5
1503945984648,0, 2, -2, -1, -2, 1, -2, -1
1503945984663,-1, -6, -8, -2, -1, 1, -2, 0
1503945984686,-2, 5, 9, 1, 0, 1, 0, -1
1503945984711,0, -4, -8, -4, -2, -1, 1, 2
1503945984723,-1, 3, 3, 0, -1, 0, 0, 0
1503945984746,0, -6, -5, -4, 0, -1, -2, -2
1503945984768,2, -2, 2, 0, -1, 0, -1, 1
1503945984783,0, -6, -6, -1, 0, 0, 0, 0
1503945984799,-2, -7, -1, 0, -2, -2, -1, -1
1503945984815,0, 2, 0, 0, 0, 0, 0, 2
1503945984836,0, 2, 3, 1, 0, -1, -1, -1
1503945984846,-1, 1, -2, 0, -2, 1, -1, -1
1503945984866,-3, -6, -6, -1, 0, -2, -4, -6
1503945984888,1, 3, 0, -1, 1, -1, 0, -1
1503945984903,-1, -2, -3, -2, -2, -1, 1, -1
1503945984926,0, 0, 2, -1, -1, -2, -1, 1
1503945984948,1, 4, 3, -1, -1, 0, -1, -1
1503945984971,1, -4, -6, -1, -2, -1, 0, -1
1503945984987,0, -4, 0, -2, 0, 0, 0, 0
1503945985008,0, 2, 1, -2, -1, -1, 0, -1
1503945985031,-1, -1, -5, 0, 0, -2, -2, -2
1503945985042,0, 3, -4, -2, -1, -1, 1, 0
1503945985047,-2, 1, 4, 1, 0, 0, 0, -2
1503945985069,-1, -2, -2, 0, 0, 1, 0, -1
1503945985091,-3, 0, -3, 0, -4, -2, 0, 2
1503945985106,1, 1, 1, -3, -2, 0, -1, 2
1503945985128,-3, 5, 10, 2, 1, 1, 0, -2
1503945985151,2, 4, -2, -3, -1, -3, -1, -1
1503945985166,-1, -3, -2, -1, -2, -2, 0, 1
1503945985189,-2, -1, -1, -1, -1, -2, -2, -1
1503945985211,-2, -4, -6, -1, -2, 2, 0, 0
1503945985226,0, -4, -3, 0, -1, -1, 1, -2
1503945985248,-2, -2, 1, -2, 1, -1, -3, 0
1503945985271,0, -1, -2, -1, 0, 0, 0, -2
1503945985286,-2, 7, 4, -1, -1, -1, -3, 0
1503945985308,2, -5, -5, -3, 0, 0, 1, 0
1503945985331,1, 2, -1, 1, -1, -1, 0, 1
1503945985348,-2, -1, -3, -1, -2, -1, -1, -4
1503945985368,1, -5, -6, -3, -1, -2, -2, -1
1503945985391,1, 2, 2, 0, -1, -1, -1, 0
1503945985406,0, -5, -4, -2, -1, -2, -3, -4
1503945985428,-2, -1, -1, 0, 0, 0, 0, -1
1503945985451,-2, 5, 5, 0, -1, 0, 0, -1
1503945985466,0, 0, 0, 2, -2, 1, -3, 1
1503945985488,0, 3, 1, 2, -1, -2, -1, 0
1503945985511,-1, 2, 1, -1, -1, -1, -1, -2
1503945985526,-1, -6, 1, 0, 0, 0, 1, -1
1503945985549,-2, -6, -4, -2, 0, 1, -1, 0
1503945985577,0, 3, 0, 1, -1, -2, 0, -2
1503945985579,-3, -6, -7, -3, 0, 0, 1, -1
1503945985601,-2, -5, -3, -1, -1, 0, -1, -2
1503945985618,-2, -6, -2, -1, 1, -1, -2, 0
1503945985639,0, 3, 0, -1, -1, 0, -1, -1
1503945985661,1, 0, -3, -2, -3, -2, -2, -1
1503945985676,-1, -1, 0, 1, -2, 0, 2, -1
1503945985699,-1, -8, -1, 1, -1, -1, -2, -1
1503945985726,-4, 4, 1, -1, -2, -1, -2, -3
1503945985744,0, 0, 0, 0, 1, 1, -2, -1
1503945985759,-2, 1, 3, 1, -1, 0, 0, -1
1503945985781,-1, -1, -2, -2, -1, -2, -3, -1
1503945985796,1, -1, -2, 0, -1, -1, 0, 1
1503945985821,0, -2, -1, -1, 0, 0, 1, 0
1503945985841,1, -3, -2, 0, 0, -1, 0, -2
1503945985863,-1, 4, 7, -1, 0, -1, 1, -1
1503945985879,2, 0, -4, -1, -1, -1, -1, 0
1503945985901,1, 3, 11, 1, -1, 0, 0, 0
1503945985926,-3, -6, -4, -2, -3, -2, -3, -4
1503945985939,0, 2, 1, 2, -1, 0, -2, 0
1503945985961,0, 1, -3, -2, -1, -3, 0, -1
1503945985990,-3, 6, 10, 3, 1, 0, -2, -2
1503945985999,0, -2, -7, -2, -1, -1, 1, 1
1503945986021,-1, -4, -3, -3, -2, -2, -2, -2
1503945986043,-2, -3, -2, -3, -2, 1, -1, -1
1503945986059,2, 21, 22, 5, 0, -2, -2, 0
1503945986081,1, -4, -9, -4, -3, 1, 0, 3
1503945986103,-3, -6, -5, -1, -1, -2, 0, -1
1503945986126,-1, -2, -3, 0, 1, -1, -1, -4
1503945986141,-1, 1, -2, -3, -1, 0, 1, -1
1503945986163,-2, -9, -12, -3, -2, -1, -2, -2
1503945986179,-3, -6, -4, 1, 0, -3, -2, -2
1503945986201,0, 4, 3, -2, 0, 0, 0, -1
1503945986223,1, -9, -7, -2, -2, 1, 0, 0
1503945986239,-1, -1, 0, -1, -1, 0, 0, 0
1503945986261,-2, -6, -7, -3, 0, -3, -2, -2
1503945986283,-3, 0, 0, -1, -1, -2, 0, -3
1503945986299,0, -3, -6, 1, -1, -2, 0, -1
1503945986322,1, 0, -1, 2, 0, 0, -2, -1
1503945986343,-2, 3, 1, -1, -2, 0, 0, 0
1503945986361,0, -2, 0, -2, 0, -1, 0, 0
1503945986382,1, 1, 0, 0, 0, 1, -1, 0
1503945986389,-2, -2, -5, -1, -1, -1, 1, 0
1503945986411,0, 3, 5, 3, -2, -1, -2, -1
1503945986433,1, -3, -2, -4, 0, -1, 1, 3
1503945986448,-1, -9, -2, 0, 0, -1, 0, 0
1503945986471,0, 1, -2, -3, -3, 0, 0, 1
1503945986493,0, -2, -5, -2, -1, -2, -1, 1
1503945986508,-1, -5, -6, 0, -2, -1, -1, 1
1503945986524,0, -2, -1, 0, -1, -1, -2, 0
1503945986539,-2, -1, 1, -2, 0, 0, -1, -4
1503945986561,-1, -3, -4, -1, 0, -2, -2, -1
1503945986584,-2, -1, -4, 0, -1, 0, -3, 2
1503945986599,0, -3, -2, -2, -2, -2, 0, -4
1503945986623,0, -3, -3, -1, -1, 0, -1, 1
1503945986628,0, -1, -4, 0, -1, -1, 0, -1
1503945986651,-3, -1, -1, -4, -1, -1, -1, -1
1503945986673,-3, 1, -7, -4, -1, -1, -3, -3
1503945986691,0, -4, -6, -2, 0, -1, -1, 0
1503945986711,-1, -1, 2, 1, 1, 1, -2, -2
1503945986734,0, -2, -1, -1, -2, 0, -1, -1
1503945986748,-1, -6, -5, -1, -1, -1, 1, 0
1503945986771,-2, 0, 3, 0, 0, -1, 1, -2
1503945986793,-1, -1, -2, 0, 0, -1, -2, -1
1503945986815,-1, -5, -4, -1, -2, -2, 0, -2
1503945986837,-1, 3, 1, 0, -3, 0, -3, -1
1503945986853,1, 6, 1, 0, -1, 0, 0, 1
1503945986875,-1, 4, 6, 1, 1, -3, -2, -2
1503945986892,1, -4, -2, -1, 0, -3, -1, 1
1503945986913,-2, 0, 0, -2, -2, -1, -2, -2
1503945986935,2, 5, 0, -1, -2, 1, 1, 0
1503945986951,-3, -6, -5, -3, -2, 0, 1, 0
1503945986973,1, -4, -2, -1, 1, 0, 0, 1
1503945986999,0, -2, 2, -1, 0, 0, 0, -1
1503945987010,0, -2, -1, 1, -2, -1, -2, 1
1503945987035,-2, 7, 4, 1, 0, 0, -1, -1
1503945987055,-2, -4, -3, -4, -1, -2, -3, -1
1503945987071,0, -4, -6, -1, -1, -2, -1, -1
1503945987094,-4, -3, 3, -2, 1, -1, 0, -4
1503945987117,0, -5, -3, 0, -2, -1, 0, 2
1503945987137,-1, 1, -1, 1, 0, -2, -1, 2
1503945987146,-1, -3, -3, -2, -1, -2, -1, 0
1503945987167,1, 2, 4, 1, -1, 1, -3, -1
1503945987175,3, 4, -1, -1, 0, 0, -1, -2
1503945987194,-8, -5, -2, 0, -1, 2, 0, 1
1503945987213,2, 10, 6, -4, 0, -4, -1, -5
1503945987235,7, -5, -6, -2, 0, -1, -2, 0
1503945987251,1, 0, 2, -1, -1, 1, 1, 6
1503945987273,-5, -4, -4, -2, -4, -1, -2, -3
1503945987297,-9, -7, -6, -8, -60, -2, -2, -10
1503945987311,4, 2, 2, -5, -33, -2, -3, 1
1503945987334,-4, 2, 6, 0, 8, -2, 3, 5
1503945987359,2, 3, -1, 2, 22, 1, 1, 0
1503945987371,-73, -18, -12, -3, 46, 24, -6, -22
1503945987395,16, 1, -19, -6, -5, -11, 1, 11
1503945987415,18, -3, -5, 6, 24, -7, -2, 3
1503945987431,34, 7, 2, 4, 28, -6, -7, -2
1503945987453,-23, -7, 3, -3, -10, 0, -2, -5
1503945987475,22, -1, -3, 0, -15, -2, 9, 6
1503945987490,-13, 9, -7, 5, -13, 3, 4, -2
1503945987506,24, 1, -12, -13, -41, -11, -2, -4
1503945987521,11, -18, 1, 3, 12, 5, -5, 8
1503945987543,7, 14, 17, 1, -1, 4, 1, 4
1503945987567,0, 14, 14, -25, -104, -4, -8, -9
1503945987581,-11, -9, 12, 8, 31, -1, -5, 0
1503945987603,-20, 16, 43, 7, 11, 0, 4, 3
1503945987626,-42, -16, -50, 5, 26, 5, 7, 4
1503945987641,-76, 4, 0, -23, -69, -3, -6, -16
1503945987665,-70, -62, -26, 6, 36, 1, 8, -17
1503945987686,39, 61, 19, 1, 14, 3, 0, 33
1503945987708,127, 33, -33, -4, 27, -2, -18, -12
1503945987723,-42, -110, -96, 1, 25, 29, 48, 5
1503945987745,-65, -29, -21, 5, 46, 26, 83, 3
1503945987768,55, 58, 25, 13, 53, -23, -57, -11
1503945987783,-25, -111, -94, -65, -99, -116, -85, -47
1503945987807,94, 95, 52, 16, 43, 11, 44, 58
1503945987828,-47, 74, 44, 63, 127, 39, -61, -24
1503945987843,102, 10, 9, -4, 54, 57, 120, 81
1503945987866,111, 35, 33, -14, -128, -33, 68, 4
1503945987888,31, 6, -2, -46, -98, -20, 4, -30
1503945987896,-128, 16, -16, -33, 5, 27, -53, 27
1503945987917,127, 43, -13, -38, -13, -41, -128, 10
1503945987935,-48, -17, 11, -7, -35, 14, -5, -45
1503945987956,-87, -42, -17, 16, 30, -6, 18, 0
1503945987978,-4, -17, -30, 16, 33, -13, -3, -24
1503945987993,19, -31, -27, -16, -20, 3, 20, -4
1503945988015,-82, -35, 2, 0, -15, -39, 41, 7
1503945988024,-51, -2, 11, 6, 14, -1, -27, -19
1503945988045,-35, -20, -21, -7, 13, -11, 3, 11
1503945988072,10, 19, -4, 3, 36, -8, 3, -16
1503945988084,-29, 6, 8, 5, 23, -6, -28, -96
1503945988106,11, -2, -6, 1, 18, -7, -8, 15
1503945988128,13, -2, -4, -1, 1, 0, -8, 23
1503945988144,-2, -11, -3, 1, 0, -6, -8, 5
1503945988171,-19, -9, -5, 0, -19, -9, 8, 10
1503945988188,12, -1, 1, -3, 9, -2, 1, 17
1503945988204,0, 5, 2, 5, 12, -2, -4, 12
1503945988225,17, -2, 1, 1, -1, -4, 12, 4
1503945988238,20, 2, -1, 0, 7, -9, -40, 7
1503945988256,-12, 3, -1, -1, -5, -4, 9, 17
1503945988277,13, -3, -2, -1, 56, 2, 0, 7
1503945988293,-12, 0, -3, 0, 26, -1, 4, -28
1503945988315,-6, -4, 1, 0, -14, -2, 3, 6
1503945988339,15, -2, 3, 6, -15, 0, 7, 18
1503945988353,10, 4, 5, 22, 6, 21, 3, -2
1503945988376,-15, 17, 21, -2, -21, -4, 5, 8
1503945988397,23, -8, -21, -13, -7, -12, -3, 25
1503945988413,2, 4, 2, 6, 29, -25, 10, 18
1503945988437,15, -4, -1, -7, 8, 3, 1, -1
1503945988457,-8, -7, -4, -3, -18, 1, -37, 5
1503945988473,-19, 1, -2, 2, -22, 1, 5, -14
1503945988495,-7, 3, 6, -7, 29, -1, 2, -25
1503945988517,-7, -3, 1, -5, 7, 2, 3, -3
1503945988533,-32, 0, -7, -4, -22, 2, 0, -18
1503945988555,-20, -10, -9, -5, -17, -4, 7, 21
1503945988578,-2, -6, -8, -3, -2, -26, 2, 5
1503945988593,8, 4, 4, 31, 82, 15, 4, -13
1503945988616,-21, -4, -3, -10, -31, 10, 11, -1
1503945988639,-7, 1, 14, -1, -20, 1, -3, 16
1503945988660,8, -3, -4, -4, -15, -9, -5, -19
1503945988676,9, 8, -1, -5, -10, -4, 3, 57
1503945988697,-5, -11, -20, -6, -21, 3, -14, -19
1503945988720,0, 0, -6, -5, -7, 2, -11, -24
1503945988739,8, 2, 7, 1, -10, -8, 2, -2
1503945988751,-29, -8, -7, -5, -8, 5, -4, -23
1503945988765,9, -1, -9, -2, -2, -20, -7, 11
1503945988788,44, 0, 1, -5, 5, 3, 1, 63
1503945988817,-24, -10, -11, -4, -4, 9, 3, 5
1503945988825,-49, -7, -5, -6, 1, -21, -1, -9
1503945988848,10, -4, -9, -4, -2, 10, 20, 38
1503945988872,15, -1, 3, 6, 4, 3, -11, 44
1503945988885,-3, -19, -2, 5, 24, 11, -2, -36
1503945988908,-55, -5, 20, 12, -4, 1, 4, -8
1503945988930,15, -13, -22, -9, -8, 1, -3, -6
1503945988946,8, 7, 6, 1, -2, 1, 1, -24
1503945988968,6, 7, 5, 1, -1, 0, 2, -1
1503945988990,10, 9, 4, -6, -7, -5, -8, -10
1503945989009,-24, -6, -1, 5, -3, 1, -4, -11
1503945989028,1, 4, 1, 8, 39, -11, 13, -7
1503945989050,1, 4, 1, -2, -3, 0, 2, -3
1503945989075,10, 4, -2, -4, -17, 4, 1, 9
1503945989088,3, 3, 0, 0, -16, -6, -14, -9
1503945989111,4, 4, 1, -10, -10, 1, 5, -21
1503945989125,9, 4, 3, -1, -3, 2, -18, 0
1503945989148,4, 1, 0, -1, -15, -4, 10, 10
1503945989171,-3, -8, -7, 4, 41, 5, 4, 11
1503945989186,-7, 0, 1, -4, -36, -4, 1, -12
1503945989210,12, 6, 8, 0, 7, 2, -1, 14
1503945989231,8, -1, 6, 1, 1, -1, -9, -3
1503945989246,2, -5, -12, -5, -7, -4, -5, -9
1503945989268,12, -3, -6, -3, -3, 0, 0, -3
1503945989290,5, -4, 8, 4, -8, 1, 1, 4
1503945989299,11, 4, -5, 1, 2, -11, 4, 10
1503945989321,9, -7, 2, 2, 51, 21, 16, 2
1503945989344,43, 1, -3, -4, -21, 5, 9, 36
1503945989351,4, 4, -6, -4, 4, 2, -1, 16
1503945989365,15, -11, -12, -7, -3, 5, 0, 4
1503945989381,0, 0, -7, -2, -1, -2, -6, -11
1503945989404,23, -3, -18, -8, -18, -1, -5, -6
1503945989418,-24, -10, -7, -5, -16, -5, -7, -13
1503945989443,4, 5, -1, -3, -4, -2, -1, -7
1503945989463,11, 4, 10, 2, 13, 2, -1, 2
1503945989480,-7, -3, 1, -2, 1, 1, 0, -2
1503945989501,-9, -7, -11, -1, 1, 0, -1, 0
1503945989523,-49, 1, 2, 2, -5, -1, -1, -38
1503945989538,-6, -6, 0, 2, 16, -1, 0, -3
1503945989568,12, 15, 11, -6, -10, -4, -4, 4
1503945989584,-10, -6, -9, -7, -7, -1, 0, 10
1503945989598,16, 7, 13, 2, -4, 0, 2, 11
1503945989621,7, 3, -7, -6, 1, 1, -1, 8
1503945989645,1, 0, -4, 9, 4, 1, 2, 4
1503945989658,19, -3, -11, -1, -5, -1, -1, 3
1503945989682,19, -2, 3, 1, -4, -2, -2, -9
1503945989703,5, 2, -2, -2, 13, 2, 2, 3
1503945989712,-3, -2, -4, -5, -5, -5, -3, 1
1503945989733,27, 1, 15, 2, 1, 2, 4, 18
1503945989749,9, 0, -9, -5, 0, -3, 1, 2
1503945989770,-14, -5, -6, 11, 39, 11, -1, -13
1503945989793,3, 1, -5, -3, -6, -3, -6, 2
1503945989808,-10, 1, -19, -2, 2, -1, -1, -11
1503945989824,33, 9, 2, 2, 6, 0, -1, -8
1503945989846,6, -3, 10, 8, 13, 3, 2, 7
1503945989862,-60, -7, -2, -5, 0, -2, -3, 12
1503945989883,1, -2, 1, 4, 33, 3, -2, -2
1503945989891,11, -6, -3, -6, -8, -4, -1, 3
1503945989914,-66, -8, 2, -8, 2, -4, -6, -26
1503945989928,5, 2, -8, -3, 27, -2, 0, 3
1503945989951,4, -7, -7, 1, -5, 4, 2, 1
1503945989973,2, 12, 14, 3, -1, -1, -2, 1
1503945989982,-28, -5, -6, -1, 9, -3, -10, -25
1503945990004,32, 4, 0, -2, -16, 1, 0, -7
1503945990018,-28, -7, 0, -2, -8, -4, 1, 13
1503945990033,18, 1, -1, 5, 0, 2, 2, 7
1503945990048,15, 0, -9, -2, -3, -31, -7, -4
1503945990071,-32, -7, -1, -3, -9, 7, 1, 1
1503945990093,17, 3, 29, 6, 8, 4, -7, -1
1503945990108,-15, -6, -6, -6, -5, 1, -1, -11
1503945990131,-26, -6, -6, 6, -33, 10, 3, -1
1503945990153,-6, -8, -22, -6, 7, 3, 2, 4
1503945990175,21, 4, -8, -1, 8, 0, 2, 3
1503945990190,2, 1, 2, -1, 14, 0, -2, 7
1503945990216,-19, 3, 5, -4, -14, -5, -2, -4
1503945990228,21, 12, 3, 0, 2, -8, -4, -7
1503945990251,-1, 1, -3, -6, 1, 0, -1, -13
1503945990273,13, -1, -7, -4, 5, 4, 0, 7
1503945990288,-12, -5, -2, 2, 6, 0, -4, -10
1503945990310,9, 3, -1, -2, 6, 6, 7, 12
1503945990333,-7, -10, 2, -2, 19, 12, -4, -8
1503945990349,14, -6, -3, -1, -8, -4, -4, 5
1503945990370,-5, -6, -16, -5, -7, 1, 3, 2
1503945990393,-16, -11, -5, -1, -9, -6, 0, -8
1503945990408,69, 10, 9, 3, 0, 0, 0, 6
1503945990430,-31, 0, 1, 3, -7, -9, -7, 9
1503945990453,-6, 2, 4, 1, -1, -41, -3, -3
1503945990468,-4, 3, 14, 4, 0, 10, 3, -18
1503945990491,19, 3, -7, -2, -5, 16, 19, -9
1503945990513,5, 6, 8, 31, 45, 11, -31, -4
1503945990535,15, -1, -5, -11, -13, -36, 1, 49
1503945990551,-41, 6, -3, -7, -8, 9, 1, -49
1503945990573,-22, -5, -3, -3, -6, 7, -1, 7
1503945990595,-4, 2, -3, -7, -9, 4, 0, 5
1503945990604,11, -5, -5, -2, -2, -4, 2, 19
1503945990626,6, -8, -5, -3, 11, -3, 2, 14
1503945990641,1, -2, -12, 3, -15, -5, -3, 1
1503945990663,-5, 5, -3, -5, -4, -2, -11, -17
1503945990685,-7, -8, -4, -3, 0, 0, -2, -2
1503945990693,5, -4, 2, -3, 3, -1, -2, -3
1503945990715,7, 28, 23, 11, 7, 1, 1, 11
1503945990730,-5, -16, -6, -3, -3, -3, 0, 5
1503945990753,17, 6, -7, 2, -12, -4, -3, 4
1503945990775,6, 13, -1, -10, -7, -4, -1, -2
1503945990791,-3, -8, -6, -4, 2, 6, 8, 3
1503945990813,-11, -30, -30, -14, -3, -4, -5, -10
1503945990836,24, 10, -2, 1, 0, -3, -2, 10
1503945990868,-41, -12, -2, 1, -17, -4, -2, -3
1503945990881,4, -7, -7, -1, -4, 1, 2, 1
1503945990904,17, 2, 14, 0, -2, -3, -5, 21
1503945990926,19, 4, -10, -7, 0, -3, -15, -52
1503945990941,46, -1, -8, -3, 2, 13, 1, 31
1503945990964,0, -4, -3, -1, 1, -7, 6, 23
1503945990971,4, -5, -4, 3, -2, 12, 8, 36
1503945990993,-54, -18, -5, 1, 4, 8, -9, -29
1503945991016,-19, 3, 4, 0, 2, 23, 0, -20
1503945991031,-47, -2, -2, 0, 1, 0, -4, -12
1503945991054,36, -2, -3, -3, 4, -6, -11, 7
1503945991075,-4, 0, -1, 0, 2, -10, -3, 6
1503945991092,-7, -20, 16, 4, -5, -7, -4, -45
1503945991113,69, 13, 1, -4, -7, 12, 10, 8
1503945991136,-6, -5, -11, -2, 1, -8, 0, 16
1503945991151,-16, 15, 11, 0, 0, 7, 7, 23
1503945991173,-7, 13, 29, 8, 2, -5, -9, -13
1503945991196,40, 5, -8, -4, -1, -3, 0, -2
1503945991210,-12, -9, -12, -5, -7, -8, -4, 8
1503945991233,8, 8, 4, 2, -3, -12, 5, -2
1503945991256,-56, 35, 8, 1, 2, -3, -4, -76
1503945991270,77, -14, -7, 0, 0, 4, 1, 15
1503945991293,29, 6, -3, -4, -1, -3, 1, 35
1503945991324,31, -2, -11, -5, -5, -10, -3, -30
1503945991331,-23, -30, -25, -4, 0, 3, -1, 6
1503945991353,-22, -3, -1, -1, -5, 5, 1, 49
1503945991376,-47, 2, -12, 1, 26, 0, 2, 2
1503945991392,-5, 8, -7, -3, -7, 1, 3, -8
1503945991413,12, 1, -1, 1, -2, -1, -1, 10
1503945991435,-6, -16, 0, -4, -6, -16, -2, -3
1503945991458,17, -4, 2, -1, -1, 7, -2, -3
1503945991473,-29, -15, -12, -3, -5, -1, 2, 2
1503945991495,-3, 2, 4, -2, -5, 0, -7, -5
1503945991517,0, -4, -4, 6, -1, -2, -2, 0
1503945991526,-10, -3, -10, -4, -3, 0, 2, 2
1503945991548,-1, 12, -4, -2, 3, -1, 2, -5
1503945991563,-23, -9, -9, -2, 3, -2, 1, -2
1503945991585,-5, 2, -2, 0, 3, 3, 0, 3
1503945991608,0, -3, 28, 8, 6, 0, -1, 1
1503945991625,13, 2, -9, -2, -1, 0, -1, 4
1503945991645,-9, 5, 0, 0, 0, -2, 0, 2
1503945991668,0, -3, -16, -8, -10, -7, -3, 2
1503945991684,20, -4, -2, -7, -4, -1, -3, 0
1503945991706,-11, -11, -23, -3, 3, -2, -1, -5
1503945991728,-3, -2, -1, 2, 1, 3, 4, 7
1503945991743,-8, -11, -2, 3, 3, -1, -4, 0
1503945991766,-18, -2, 2, 4, 7, -1, -2, -16
1503945991788,-3, 1, 0, -4, -16, 0, -1, 1
1503945991803,5, -2, 0, -2, -6, 0, -2, -17
1503945991828,-13, 2, 5, -2, 2, -2, 1, 5
1503945991848,-23, -19, -9, -1, -3, -3, -8, -12
1503945991856,6, 6, -8, -1, -1, -2, 1, 8
1503945991878,4, -1, -3, -8, 16, -3, -4, -1
1503945991895,-8, -6, 19, 12, 26, 2, -2, -1
1503945991915,-6, -1, 5, -7, -20, -2, -2, -5
1503945991938,2, -4, -5, 2, -6, -1, 1, 8
1503945991953,1, -4, -5, 0, -6, -1, -1, -5
1503945991975,-26, 1, 0, 6, 1, 0, -4, -7
1503945991998,5, 0, 11, 5, 2, 2, 7, 9
1503945992013,3, 11, -4, -3, -13, -3, -1, 1
1503945992036,17, 16, 8, 0, 2, 2, 1, 5
1503945992058,30, -3, -13, -2, -3, 1, -2, 7
1503945992073,-9, -9, -10, -6, -6, -3, 0, -27
1503945992095,6, 5, 0, 0, 9, -1, 1, -3
1503945992103,-16, -9, 9, -2, -1, 0, 1, 3
1503945992133,26, -7, -15, -9, -11, -1, -1, 1
1503945992148,-9, 6, 3, 1, 9, -4, -8, -18
1503945992163,56, 0, 0, 0, 2, 2, 8, 43
1503945992178,-6, -5, 1, 1, -2, 0, -1, 0
1503945992195,-11, -4, 0, -7, -4, -1, -5, -13
1503945992215,-3, -8, -5, 4, -3, -3, -2, -3
1503945992239,1, -3, -5, -6, -1, -2, -3, -11
1503945992253,-4, 0, 0, 3, 0, 0, 0, 5
1503945992276,10, 10, 10, 7, 6, 0, -11, -9
1503945992303,-10, -6, -3, -2, -2, -1, 2, 0
1503945992307,-5, -4, -2, -2, -1, -4, -3, -5
1503945992331,5, 3, 3, 5, 4, 0, 0, 7
1503945992344,-14, -10, -5, -2, 0, -12, -6, -16
1503945992359,-4, 1, 3, 0, -1, 0, 1, 5
1503945992380,-20, -7, 0, -3, 0, 1, -2, -17
1503945992399,-3, 17, 12, 0, 1, 0, 5, 38
1503945992418,-32, -17, -12, -6, -5, -2, -11, -39
1503945992440,11, -1, 3, 5, 4, 0, 2, -14
1503945992455,7, 4, -2, -3, -2, -1, -9, 0
1503945992480,8, -4, -9, 1, -2, -3, -3, 15
1503945992505,-3, 0, -16, -20, 0, 29, 5, -5
1503945992515,11, -23, -21, -7, -5, -6, 1, 6
1503945992538,-5, -3, 2, 12, 4, -3, 0, -5
1503945992560,0, 4, 15, 68, 25, 17, 1, 2
1503945992576,-12, 1, -1, -31, -15, -10, 2, -5
1503945992607,-27, -13, -19, -12, -1, -3, -4, -15
1503945992628,5, 2, 1, 20, 12, 5, -4, -1
1503945992650,7, 1, -8, -11, 1, -6, -7, -8
1503945992667,-3, -5, -7, 3, -1, 1, 0, -6
1503945992688,-5, -14, 8, 8, 29, 4, 2, 2
1503945992711,4, 5, 9, -4, 13, -2, -2, -5
1503945992726,-16, 4, -6, 4, -13, -2, -1, 13
1503945992748,-7, -2, 1, 0, -6, -1, 1, -8
1503945992772,4, -5, -6, -4, 2, -5, -5, 22
1503945992786,13, -3, 2, -2, -12, 2, 9, 27
1503945992809,-34, 3, 3, -1, -6, -5, -16, -39
1503945992834,17, 2, 0, -2, 7, -3, -2, -28
1503945992846,-20, -5, -6, -6, -9, 1, -1, -16
1503945992868,-8, -3, -5, -5, -8, 0, 7, 6
1503945992890,23, 1, -6, -6, 0, -3, 0, 10
1503945992907,3, 3, -4, 1, 2, -4, -3, -2
1503945992928,27, 12, 18, 9, 5, 5, 2, 26
1503945992950,8, -2, 1, -3, -4, 1, -3, 9
1503945992970,-4, -5, -3, -2, -1, -8, -5, -5
1503945992988,2, 3, 1, 3, -1, -3, -2, -6
1503945993011,6, -5, -5, -5, 1, 3, -1, -7
1503945993026,-12, 3, 3, 2, 3, -2, -2, -8
1503945993048,17, 7, 7, 8, -5, -1, -3, -16
1503945993071,-4, -4, -8, -3, -2, 1, 1, -2
1503945993086,-6, -3, 0, 6, 1, -11, 2, 0
1503945993109,-13, -8, -5, -5, 10, 1, -1, 0
1503945993130,4, -4, 1, -3, -3, -1, 0, -2
1503945993146,-19, -3, 12, -1, -5, 1, 0, -4
1503945993170,1, -4, -6, -3, -9, 2, 0, -2
1503945993190,-4, 4, -5, -4, 1, -1, 2, -11
1503945993206,0, -3, -1, -1, -3, 1, -1, 5
1503945993228,-12, 8, 10, 7, -36, 0, -4, 1
1503945993250,2, -2, -7, -2, 11, -1, -1, -2
1503945993266,-11, -12, -10, -10, -3, -1, -3, -2
1503945993288,-10, 3, -2, 0, 6, 2, -1, 2
1503945993311,10, 8, -5, -6, -7, -1, 1, 3
1503945993333,6, -6, -3, 1, 7, 0, 2, 11
1503945993348,20, 6, 0, 0, 5, -5, -1, -2
1503945993373,15, 6, 10, -5, -29, -3, -1, -2
1503945993400,2, 1, -1, -6, -12, -8, 0, 1
1503945993422,-7, -4, 5, -2, -2, -4, -3, -2
1503945993438,3, -9, -2, -2, 5, 2, 0, 4
1503945993460,2, 1, -2, -5, -32, -5, -3, -2
1503945993482,12, -7, -2, -1, 12, 0, 2, 3
1503945993498,-3, 9, 7, 3, 6, 2, -5, 1
1503945993520,3, -3, -4, -1, -5, 0, 1, -2
1503945993542,-3, -6, -12, -3, 5, -1, -2, -7
1503945993558,0, 0, 0, -1, 9, -3, 1, 1
1503945993580,5, 3, 2, 4, 6, 1, -4, -14
1503945993602,-17, -8, -1, -3, -6, -1, 3, 7
1503945993618,30, 10, -5, -7, -4, -4, -4, -4
1503945993640,-14, -4, 0, -5, -21, 2, 2, 1
1503945993662,-3, 4, 1, 0, -1, -2, 9, -1
1503945993678,-35, -15, -8, -4, 10, 4, 1, 3
1503945993699,-17, 6, 7, 1, 7, -2, -1, 5
1503945993722,24, 3, 5, -1, -8, -4, -1, -5
1503945993739,6, 6, 4, 2, 4, -2, -3, 16
1503945993759,-26, -7, 1, 2, 0, -2, -4, -1
1503945993782,13, 2, 6, 9, 6, 0, 2, -5
1503945993798,14, 11, 22, 0, 3, 1, 2, 11
1503945993819,-14, -5, -19, -9, -6, -1, -2, -2
1503945993843,5, 4, -1, 5, 8, 5, -2, -2
1503945993858,37, -3, -22, -14, -9, -7, -3, -4
1503945993880,-10, -7, 0, 6, 8, -1, -2, -7
1503945993902,6, -2, -12, -11, -6, -1, -3, 0
1503945993918,-5, 3, 6, 0, -3, 0, -1, -2
1503945993943,-2, 6, 12, 3, -1, -1, -2, 4
1503945993962,-13, -3, 0, 5, 18, 2, -5, -3
1503945993978,10, 5, 2, 0, -2, 0, -4, -7
1503945994000,-8, -1, -2, 7, 0, -5, 2, -1
1503945994026,-19, -6, -1, -1, -26, -2, 0, 2
1503945994039,-3, -2, 3, 1, 4, -3, 0, -3
1503945994060,-20, -2, 10, -1, -1, -3, -3, -7
1503945994082,9, -7, -6, -5, 2, 7, 5, -3
1503945994098,7, -9, -7, 4, 2, -1, -2, 22
1503945994120,7, 3, -7, -6, 0, -1, -4, -16
1503945994142,-19, -5, 2, 2, 0, -2, 1, -10
1503945994158,-3, -7, -13, -3, -1, 1, 1, -2
1503945994184,-10, -3, -3, -3, 0, -1, -1, 3
1503945994202,10, 12, 5, 1, 1, 1, -5, -17
1503945994221,3, 16, -19, -5, -4, -6, -5, 0
1503945994240,28, 19, 12, -1, 2, 2, 7, 14
1503945994262,2, -10, 1, -1, -1, -5, -4, 1
1503945994285,-2, -3, -7, -1, 3, 0, -1, -6
1503945994300,-6, -9, 0, 0, -10, 1, 0, -1
1503945994322,8, -4, 7, 6, 4, 1, 0, -1
1503945994345,13, 1, 0, -2, -1, -2, 2, 1
1503945994362,7, 4, -7, -5, 0, -2, 0, 1
1503945994382,-12, -5, 2, -2, -11, -2, 0, -3
1503945994404,-8, -1, 3, 1, -2, -1, -2, -2
1503945994420,-9, -8, -5, -5, 0, 8, 15, -2
1503945994446,-10, -6, -1, -1, 2, -4, -5, 1
1503945994466,-6, 4, -6, 1, 5, 1, -1, -2
1503945994481,-2, -2, 2, -3, -2, -1, -1, -3
1503945994503,20, -1, 0, -2, -11, -3, -5, -9
1503945994526,-2, 0, 3, 4, 1, -2, -4, 0
1503945994548,19, 13, 5, -4, -4, -5, -8, 1
1503945994563,-15, -5, -3, 0, 2, -1, -1, -9
1503945994586,1, -1, 3, 16, 49, 9, 4, -1
1503945994608,3, -2, -5, -9, -18, -5, -2, 3
1503945994623,-3, -5, 6, 0, -1, -1, -3, 2
1503945994646,-19, -23, -13, -4, -1, 0, -1, -1
1503945994668,21, 10, 41, 15, -3, -1, 0, -1
1503945994690,-11, 7, -13, -12, -13, -3, -1, -1
1503945994706,0, 7, -1, -4, -3, 0, 3, 7
1503945994728,31, -16, -14, -5, -6, -2, 0, 27
1503945994743,-17, -4, -7, -2, -2, 2, 0, -10
1503945994751,6, -6, -11, -1, 2, 1, -2, -8
1503945994773,-1, 10, 1, 0, 2, -2, 0, 0
1503945994795,-20, -14, -10, -3, -1, -2, -1, 4
1503945994810,21, 0, -7, -5, -7, 0, -1, 1
1503945994833,-5, 0, -2, -5, 0, 1, 1, 10
1503945994856,1, 1, 4, 1, 1, 0, -1, 6
1503945994870,4, -17, -10, -3, -2, -4, 0, -8
1503945994893,8, 8, 2, 2, -1, 0, -2, -11
1503945994916,-8, -9, 2, 0, -1, -2, 0, 4
1503945994930,-3, 7, 8, 1, 1, -1, 0, 8
1503945994953,15, 2, 6, 1, -1, -1, 0, -3
1503945994975,-11, 10, 3, -4, -2, 1, -3, -12
1503945994991,-8, -5, -4, 3, 2, 1, -1, 1
1503945995016,15, 10, 8, 2, 1, -1, -2, -1
1503945995035,-52, -8, -5, -2, -7, -1, -1, -5
1503945995051,-6, 4, 1, -4, -6, -4, 0, 1
1503945995073,8, -4, -6, -3, 0, 0, -2, -4
1503945995095,10, 1, -3, -1, 1, 0, 1, 4
1503945995110,34, -1, -7, -3, -1, -2, -2, -7
1503945995133,24, 9, 2, 0, -1, -2, -6, -2
1503945995155,-1, 1, 2, -1, -4, -1, 0, -4
1503945995178,1, 0, -3, -4, 1, 9, 0, -6
1503945995193,-36, -20, -5, -4, -12, -5, 0, -5
1503945995217,11, 5, 2, -1, 2, 2, 2, 9
1503945995238,-2, 5, 0, 3, -1, -4, 0, -2
1503945995260,-16, -33, -7, -6, 0, -2, 3, 3
1503945995275,10, 12, 2, -1, 2, -2, -2, 2
1503945995298,15, 7, 1, 2, 3, -2, 0, 12
1503945995313,-8, 0, 1, 1, 23, 0, 0, -12
1503945995343,-3, 3, 1, 0, -5, -1, -1, 4
1503945995361,-11, 5, 5, 2, -2, 1, -1, -1
1503945995373,-31, -13, -6, 0, 1, 6, -2, -6
1503945995395,-2, 1, 2, 2, 11, -7, -3, -9
1503945995418,-27, -6, 0, -1, 3, -2, 0, -4
1503945995426,-5, -3, -4, -4, 2, -1, 1, 8
1503945995448,6, -1, -1, -4, -20, -1, -1, 6
1503945995464,13, -2, 2, 4, 4, 1, -2, -14
1503945995486,-20, -6, -4, -3, 0, -1, -1, -2
1503945995508,-15, -2, 1, 12, 26, -3, 0, -11
1503945995523,13, -4, -1, -3, -10, -2, -8, -2
1503945995546,40, 5, -1, -4, 6, -3, 2, 0
1503945995568,-3, 6, -4, -2, 10, 4, 3, -5
1503945995585,-12, -3, 1, -1, -4, -2, 2, 2
1503945995606,-14, 3, -3, 0, -1, 1, 0, 3
1503945995628,-6, -15, -6, -4, -12, 1, 3, 8
1503945995636,3, 9, 6, 5, 3, -1, -1, -1
1503945995659,-8, -9, -7, 0, 8, 1, 1, 1
1503945995673,-5, -3, -4, -11, -17, 4, -2, -2
1503945995696,15, 7, -1, -4, -12, -5, -1, -3
1503945995720,5, 8, -8, -9, -3, -4, -2, 1
1503945995733,-11, -10, 0, 3, -40, 3, -4, -6
1503945995756,-18, -3, 9, 0, 31, 4, 2, 2
1503945995778,4, 6, 0, 0, 7, -5, 0, 3
1503945995794,-5, -9, 0, 4, 6, -44, -1, -9
1503945995815,-11, -13, -18, -4, 1, 10, 1, 6
1503945995838,0, -1, 2, 4, 9, 7, 2, 6
1503945995855,10, 1, 5, 1, -1, 5, -3, -7
1503945995875,-1, -2, 5, 1, 2, -3, -1, -12
1503945995898,-8, -6, -12, -7, -3, 5, -3, 1
1503945995921,32, 4, -6, -4, 5, 1, -1, -5
1503945995935,-6, -1, -3, -1, -5, 2, -1, 0
1503945995958,0, -2, 6, 5, 5, 3, 2, 0
1503945995974,-15, -2, -5, 0, -5, -2, -2, 5
1503945995996,-9, 7, 6, -2, -3, 3, 2, 2
1503945996018,-13, -1, 2, 0, -2, -2, -1, 0
1503945996033,6, 6, 15, 3, 1, -1, -2, 1
1503945996056,-15, -5, 1, 0, 1, 1, 2, 5
1503945996078,2, 5, -6, 0, -1, -1, 1, 1
1503945996093,-7, -2, -9, 0, 2, 1, 0, -17
1503945996115,31, -9, -6, -4, -4, -3, -5, -15
1503945996138,-9, -3, -3, -1, -3, -1, 2, 6
1503945996160,14, -2, 3, -4, -1, -1, -3, 1
1503945996175,-9, -3, -1, 2, 0, -2, -2, 0
1503945996205,-7, -3, -2, 0, 0, 1, 0, -14
1503945996220,20, 4, 10, -1, -4, 0, 3, 28
1503945996235,-21, -4, -6, -1, -2, -29, -5, -14
1503945996258,-2, -6, -5, -3, 18, 8, 2, -2
1503945996280,3, 1, 0, -2, -5, 4, -2, 10
1503945996304,-69, -21, -5, -1, -5, 0, -4, -8
1503945996318,19, 9, -1, 3, -2, 1, 1, 9
1503945996340,10, 5, 4, 1, -1, 1, 2, 3
1503945996359,9, 3, 0, -2, 2, 2, -3, -4
1503945996378,8, 2, -4, -3, -11, 0, -1, -9
1503945996401,3, 5, 4, 3, 3, 1, 1, 12
1503945996415,24, 3, 0, 0, 0, -23, -4, 9
1503945996438,-11, -5, -3, -6, -5, 8, -2, -11
1503945996460,-2, 8, 3, -1, -1, 0, 0, -1
1503945996475,-14, -13, -8, -6, -7, 1, -3, -10
1503945996498,1, 4, 10, 2, 3, 2, 1, -5
1503945996520,-3, -3, -6, -2, 3, 5, 1, 6
1503945996535,-4, -4, -1, 1, -2, 1, -2, -1
1503945996559,-25, -6, -3, 2, -10, 1, -1, -1
1503945996580,8, 1, -5, -1, 3, -1, 1, 4
1503945996596,28, 7, -5, -4, -2, 0, 1, 7
1503945996618,-7, -7, -3, -4, -2, -3, -6, -22
1503945996640,-2, -2, 0, 3, 8, 0, 0, -3
1503945996655,-11, -3, 3, 3, 1, 1, 0, -13
1503945996678,16, 0, 1, 0, 2, 0, 1, 7
1503945996700,-2, 4, 3, -2, -4, -2, 2, 10
1503945996715,1, 3, -1, -1, -3, 0, 0, 3
1503945996738,-2, 1, -1, 0, 4, 0, -3, -3
1503945996761,-9, -4, -5, -2, -3, -1, -1, 2
1503945996775,-10, -1, 2, 1, 13, -2, 0, 9
1503945996800,15, 2, 0, -2, -1, -2, 0, 1
1503945996820,-7, -5, -3, 0, -7, 5, 0, -4
1503945996837,-3, 2, 4, 2, -2, 0, -2, -3
1503945996858,-3, -1, -4, -2, 14, -3, -1, -5
1503945996881,24, 6, 2, -4, -9, -2, -1, 6
1503945996890,-14, -4, -5, -3, -1, 4, -1, 13
1503945996910,-3, -4, 0, -7, -57, -13, -4, -12
1503945996927,2, 5, 6, 2, 12, -4, 2, 3
1503945996948,12, -7, -6, -1, 7, -5, -2, -3
1503945996971,5, 5, 4, 1, 5, -2, -2, 1
1503945996986,-13, 0, 2, 3, 9, 3, 0, -1
1503945997008,-2, 1, -5, 0, 6, -1, 0, 1
1503945997031,2, 1, -1, -3, -1, 0, 0, 2
1503945997053,-4, 3, -6, 2, 0, 0, 1, -5
1503945997069,-27, -6, -5, 3, 3, -2, 0, -6
1503945997090,5, 0, 3, 0, -2, 11, -2, -6
1503945997112,3, -4, -1, -1, 6, 3, 1, -2
1503945997130,5, -1, 0, -4, -2, -4, 1, 5
1503945997150,15, 2, 0, 1, 0, -4, 0, -4
1503945997173,20, 0, -3, 0, 4, -5, -5, 10
1503945997188,0, 3, 3, -3, 4, -3, 0, -10
1503945997210,3, 3, 7, 6, 3, -5, -5, -12
1503945997239,0, 1, 3, 1, -2, 5, 5, 0
1503945997248,-7, 2, -1, 1, 5, -5, -2, 4
1503945997270,-9, -2, 0, -3, -29, -5, 0, 1
1503945997293,-4, 0, -1, -2, 3, -3, -1, 9
1503945997308,7, 2, -1, 0, 0, -1, -2, -6
1503945997331,-5, -5, -4, -2, 2, 12, -2, 3
1503945997353,23, -2, -3, -2, -1, -6, 0, 19
1503945997369,-3, 3, 5, -1, -6, 6, 1, -3
1503945997390,-8, -3, 0, -2, -4, -9, 1, 2
1503945997413,-30, -2, -1, -1, -1, -2, -2, -3
1503945997428,9, 1, 0, 2, 11, -22, -6, -7
1503945997450,8, 2, -2, -2, -1, 5, 3, 23
1503945997474,-13, -5, 0, 0, 5, -1, 1, -12
1503945997488,4, 1, -1, -2, -1, -3, 3, 3
1503945997502,-3, 0, 4, 1, 0, 0, -1, -5
1503945997518,2, -2, -2, -4, 4, -2, -3, -2
1503945997541,12, 2, -1, -8, -6, -2, 1, 17
1503945997562,-47, -8, 0, -1, -2, 2, -2, -11
1503945997578,15, 1, -1, 0, -9, -3, -3, -15
1503945997600,-4, -2, -2, -2, 5, -8, -6, -11
1503945997622,8, 3, 0, 1, -3, 0, 0, 0
1503945997638,6, -9, 2, 3, 10, -4, -3, -31
1503945997660,-8, -4, -1, 1, -7, 6, 1, 0
1503945997682,5, 4, 0, 2, 16, 14, 1, 13
1503945997697,9, 7, 1, -3, -6, 2, 6, 11
1503945997720,0, -9, -8, -4, -7, -8, -7, -2
1503945997743,-51, -2, -2, -2, 1, -5, -17, -26
1503945997751,-9, -7, -4, 1, -3, -31, -5, -8
1503945997773,-3, -3, 1, -6, 0, 3, 1, 9
1503945997788,49, 12, -4, -7, 19, 3, -7, -34
1503945997811,23, 7, -1, -1, -1, -40, -17, 14
1503945997835,-19, -4, -3, -3, -3, 14, 3, -1
1503945997855,35, -1, -7, -1, 0, 10, 9, 22
1503945997870,-31, -3, 0, 0, 1, -31, -7, -12
1503945997892,-41, -6, 1, 2, -3, 13, 2, 5
1503945997908,-8, -1, -3, -1, -1, 19, 5, 0
1503945997930,-48, -4, 10, 8, 7, 5, -3, 6
1503945997952,4, -6, -6, -3, -5, 1, 0, -1
1503945997975,-9, -1, 5, -1, -4, 4, 0, 2
1503945997990,-9, -9, -3, -2, 3, 12, 4, -5
1503945998013,43, -3, -2, 3, -4, 1, 6, 3
1503945998038,-9, 5, -8, -1, 0, 4, -2, -3
1503945998050,3, 3, 4, -1, -3, -3, 2, -1
1503945998074,10, 1, 3, 0, 7, -1, -1, -2
1503945998095,-6, 0, -4, -2, -7, -11, -6, -12
1503945998118,-14, -3, 3, 2, 0, 4, -2, 10
1503945998132,10, -1, -3, -3, 2, 2, -1, 1
1503945998155,-13, 0, 13, 7, 1, 2, 3, 26
1503945998171,18, 5, -6, -4, -5, -1, -2, -11
1503945998192,-4, 0, 1, 3, 2, 3, 4, -3
1503945998215,-8, -6, -5, -2, -11, -93, -12, -4
1503945998230,15, -1, -2, -1, 7, 16, -4, -8
1503945998252,38, -1, -8, -4, -2, 23, 5, -7
1503945998275,-6, -3, -2, -1, -4, 6, 6, -4
1503945998290,-8, -4, -2, -3, 0, 12, -2, 2
1503945998313,-15, -3, -1, 0, -2, 8, -2, -9
1503945998335,0, 3, -1, -2, 6, 16, -1, -3
1503945998351,-30, 9, -4, -4, -1, 0, -3, -6
1503945998373,-33, -5, 3, 2, 3, 18, -4, -6
1503945998380,-13, 5, -1, -1, -7, -5, -2, -2
1503945998402,41, 5, 0, -2, -5, -6, 0, -4
1503945998425,-13, -12, -3, 5, 0, 8, 4, 7
1503945998433,-30, -2, -6, -3, -8, -44, 0, 4
1503945998455,14, -3, -2, -2, -7, 9, -1, 2
1503945998474,-6, 9, 14, 1, -8, 5, -8, -14
1503945998493,-4, -14, -10, 0, -5, -25, 4, -3
1503945998522,24, 2, -5, -1, -1, 0, 15, -7
1503945998540,-14, 4, 8, 2, -2, 36, -10, -12
1503945998553,39, -5, 1, 4, -1, -5, -1, -1
1503945998577,8, 5, 16, 5, 3, 6, 0, 11
1503945998590,29, 6, -11, -5, 0, 9, 1, 7
1503945998613,-16, -8, -13, -3, 0, 4, -3, -15
1503945998635,-20, 0, 4, 1, 0, -4, 1, 7
1503945998651,-32, -5, 0, -3, -1, 1, 2, 18
1503945998675,20, -3, 2, 1, -3, -32, -7, -5
1503945998695,14, -1, -5, -3, -2, 8, -2, 0
1503945998711,27, 15, -8, -6, -5, 3, -5, -9
1503945998732,3, 4, 9, 12, 8, 10, -1, -6
1503945998755,-10, 0, 4, -3, -4, 0, 0, 3
1503945998771,-29, 22, 16, 1, 0, 2, -1, -10
1503945998792,30, -8, -7, -1, 2, 17, -3, 5
1503945998815,0, -7, -7, -2, -2, 4, 2, 46
1503945998831,-5, -4, -1, -4, -3, -4, -5, -13
1503945998853,26, -2, 3, -1, -2, -6, 2, 8
1503945998875,1, 13, 34, 9, 3, 6, 13, 5
1503945998883,10, 9, 12, 6, 3, 1, 0, 15
1503945998904,-15, -9, -8, -7, -4, 17, -1, 1
1503945998927,1, -4, 7, 4, 2, 33, 1, 18
1503945998943,-22, -8, 4, 1, 1, -16, -1, -7
1503945998958,-17, 3, -6, -3, -1, -5, 2, 4
1503945998972,23, 4, -10, -4, -1, -3, -2, -12
1503945998995,-9, -2, -3, 0, 0, 1, 0, -2
1503945999019,-7, -6, -2, -2, -4, -1, -2, -10
1503945999033,-12, -10, -8, -5, -1, 0, -1, -4
1503945999055,28, 1, 5, -1, 3, 0, -1, 0
1503945999078,-9, -8, -8, -6, -2, -2, -2, -5
1503945999093,-9, -1, -1, 0, -4, -5, -5, -8
1503945999116,20, 3, -1, 0, 0, 0, -1, 3
1503945999138,-3, 11, 15, 9, -1, 2, 0, -2
1503945999153,-19, -11, 6, 5, 5, 1, -1, -5
1503945999181,-5, -4, -6, -3, -1, -1, -2, -5
1503945999197,0, -4, 5, 1, 3, -1, -5, 4
1503945999214,3, 13, 13, -1, -5, -6, 0, -2
1503945999235,4, -3, -6, -9, -2, -2, -1, 1
1503945999257,-15, 11, 0, 1, 0, 5, 1, -4
1503945999273,11, -2, -6, -2, -2, 3, 8, 12
1503945999295,-3, -2, -4, -1, 3, -3, -3, -10
1503945999303,4, -16, -3, -1, 6, 3, 1, 1
1503945999324,18, -4, -10, -6, 3, 0, -1, -27
1503945999350,-4, 0, -1, 3, 8, 1, 3, 14
1503945999363,-5, 3, 2, 4, 8, -3, -1, -1
1503945999384,-18, -3, 8, 3, -4, -3, -2, -4
1503945999407,-13, -3, -6, -4, 2, -1, -1, 4
1503945999423,-8, -4, -5, 0, 1, -2, -2, 3
1503945999447,12, -1, -6, -5, -5, -3, -1, -3
1503945999467,2, -3, 0, -6, 15, 0, -2, -4
1503945999483,-3, 0, 6, 2, -8, -6, -4, -7
1503945999504,-44, -4, -3, -2, 0, 2, 0, -2
1503945999527,11, -5, 0, 1, -1, 2, 0, 2
1503945999543,9, 5, 8, 10, 3, 1, -1, 3
1503945999558,5, -6, -8, -5, -9, 3, 4, 9
1503945999572,-5, -2, 2, 1, -2, 0, 1, 3
1503945999595,-3, -7, -3, 0, 5, 0, 1, -5
1503945999618,-17, 1, -1, 3, 4, -2, 1, 2
1503945999632,-7, -6, 0, 4, 3, 18, -3, -7
1503945999656,-16, -4, -4, -6, -1, -6, -8, -24
1503945999678,14, 3, 8, 8, 9, 3, 1, 1
1503945999693,-5, 0, 8, 5, -3, -6, 1, 10
1503945999717,38, 31, 21, 12, 8, -7, -5, 1
1503945999738,-9, -14, -15, -13, -6, -4, -3, -10
1503945999753,5, 12, 22, 9, 6, 0, -5, -13
1503945999775,-3, -2, -7, -8, -2, 2, 1, 8
1503945999797,-9, -11, -18, -11, -8, -3, 2, 0
1503945999814,-11, -6, -4, 1, -1, 0, -1, 5
1503945999835,3, -2, -3, -6, 0, 18, 5, 3
1503945999858,-2, 2, -2, -4, -2, -9, 0, 5
1503945999888,-2, 5, -1, 0, -2, -9, -6, -3
1503945999895,4, 2, 1, 2, -1, 0, 0, -1
1503945999918,7, -4, -3, 1, 2, 1, 1, 4
1503945999940,-15, -7, 0, 1, 0, -2, 2, 1
1503945999955,2, 2, 0, 0, -4, -5, -3, -4
1503945999978,-2, 4, 6, 5, 4, -4, -7, -18
1503946000000,-6, -5, 7, 4, 1, -3, 3, 7
1503946000020,0, -10, -12, -11, -12, -3, -1, 7
1503946000037,-4, -1, -3, -3, -5, 1, -2, -5
1503946000060,4, 3, 19, 33, 19, 6, 7, 18
1503946000075,-3, 1, 8, 35, -1, -8, -4, 0
1503946000098,15, -4, -11, -22, -5, 1, -1, 0
1503946000120,-4, -2, 0, 21, 58, 7, 1, -2
1503946000135,-16, -9, -20, -20, -15, -6, -3, -9
1503946000158,31, -1, -7, -12, -9, -4, -3, -1
1503946000180,-41, -7, -7, -12, -17, -25, 0, -13
1503946000203,-21, -3, -6, -12, 4, 5, -2, -5
1503946000218,-1, -5, -5, -11, -19, -2, -1, 25
1503946000241,-7, -3, 1, -1, -9, 2, 0, 0
1503946000260,-5, 0, 0, 0, 2, 3, 2, -5
1503946000278,38, 14, 15, 1, 2, 3, 2, -3
1503946000300,14, 8, -3, 2, 2, 14, 0, 7
1503946000315,-2, 11, 5, -3, 11, 6, -2, -8
1503946000337,21, -4, -11, -6, -30, -6, 1, -6
1503946000361,0, -3, -6, -3, -3, -4, -1, -5
1503946000375,-15, -7, -7, -7, -1, -5, 0, 7
1503946000397,9, -8, 0, -3, -8, -2, -3, -6
1503946000420,9, 1, -2, 5, -2, 5, 3, 1
1503946000435,-17, -11, 0, -6, 0, -3, -1, 0
1503946000458,-11, -4, 0, -1, 0, 9, 0, 6
1503946000480,13, 0, 1, 2, 16, 6, -4, -4
1503946000496,-19, 4, 4, 2, 1, -5, -2, -1
1503946000518,5, 0, -7, 2, -6, -8, -1, 1
1503946000540,-14, -9, 2, 2, -2, -1, 2, 0
1503946000558,-5, 5, 4, -1, 0, -4, -3, -7
1503946000577,8, -7, -6, -5, -1, -7, -3, -5
1503946000600,-13, 2, 2, 0, -3, 0, 1, 1
1503946000615,-3, 4, -1, -2, -2, 0, 1, 3
1503946000638,6, -4, -5, -3, -12, -1, -5, -6
1503946000660,-2, 7, 4, 11, -10, -6, 1, 1
1503946000675,7, 3, 7, 4, 3, 3, -1, 1
1503946000698,-2, -2, -2, 2, 4, -2, 2, 6
1503946000722,7, 3, -6, -10, 1, -3, 0, -1
1503946000735,-8, -2, -3, -4, 3, 2, -3, -2
1503946000758,-6, -2, -3, -3, 1, -2, -3, -2
1503946000780,7, 0, 0, 2, 0, 0, -2, -3
1503946000803,-8, -5, 1, 4, 5, 0, -2, -5
1503946000818,-6, -3, -3, -3, 1, -1, 1, -1
1503946000841,-28, -6, -3, -3, -4, 1, 0, -3
1503946000863,-6, -4, -4, -3, -4, 1, 0, -2
1503946000871,-3, -3, -3, -2, -3, -1, -1, 0
1503946000893,6, 3, 3, 2, -1, 3, -1, 0
1503946000908,6, 2, 2, 3, -1, -2, -2, 1
1503946000932,-3, -1, -1, 0, -4, 0, 0, -1
1503946000953,-12, -5, 2, 0, 3, 0, -4, -6
1503946000968,7, 6, 7, 4, -1, 2, 1, 1
1503946000992,-4, -4, -4, -4, -2, -1, -1, -1
1503946001013,-10, -3, -2, -1, -2, -1, 0, 0
1503946001028,12, -3, 0, 1, 0, -1, 0, 4
1503946001051,12, 9, 3, -5, 15, 2, -1, -1
1503946001073,-4, -2, -6, -3, -10, -3, -7, -6
1503946001096,-1, -3, -1, -2, -3, 1, 0, 1
1503946001119,11, 3, -12, -7, -3, -2, -1, 1
1503946001140,4, -2, 0, -3, 12, -23, -5, -1
1503946001163,3, 3, 1, 0, -2, 6, 0, 2
1503946001177,4, -1, -2, -3, -3, 1, 0, 2
1503946001200,1, -1, 1, 1, -1, 1, -2, 0
1503946001222,-7, -6, 1, -2, -3, 2, -1, -3
1503946001237,0, 1, 2, 2, -1, 3, 0, 1
1503946001261,6, 7, -1, -1, -1, 0, -1, -3
1503946001282,-5, -3, 2, -1, 2, 1, -1, -2
1503946001298,4, 1, -1, 3, -6, -20, -9, 1
1503946001320,-18, -9, -18, -3, -1, 8, 4, 0
1503946001349,6, -3, -2, -2, 4, 2, 1, 0
1503946001372,-13, -2, 8, 6, -7, 2, -9, -13
1503946001380,6, 0, 4, -3, -4, 2, 6, 2
1503946001403,22, 3, -1, 1, 3, 0, 2, -1
1503946001418,-11, -11, -18, -3, 2, 0, 2, -1
1503946001440,-2, -3, -2, -1, 9, 1, -2, -2
1503946001463,-24, -2, 0, -6, -6, -3, -1, 0
1503946001478,27, 5, 8, 2, -3, 2, -1, 1
1503946001500,1, 6, 18, 5, 1, 0, 0, 1
1503946001522,-2, -5, -5, -3, 16, 1, 2, 0
1503946001538,0, -4, -6, -2, -13, -2, 0, -1
1503946001561,-20, 4, 1, -4, -6, 0, -2, -4
1503946001582,5, 3, -2, 0, 0, 0, -5, -1
1503946001591,-2, 3, 0, -3, 1, -3, -2, -4
1503946001613,10, -3, -5, 1, -1, -1, 1, 0
1503946001628,-19, -4, -10, -10, -2, -2, -4, -8
1503946001651,-6, -10, -9, 2, 5, -1, -1, -2
1503946001673,-4, -3, 2, 1, 14, -2, -3, -1
1503946001688,1, -1, 3, -3, -9, 1, 1, -4
1503946001710,6, -4, -2, 1, -4, -1, -4, -4
1503946001733,0, 2, 2, -3, -3, -2, 1, 1
1503946001755,0, 2, 2, -1, -10, -2, 0, -1
1503946001771,-4, -8, -6, -2, -3, -2, -2, 0
1503946001792,-2, -1, 0, -2, -2, 0, -1, 1
1503946001800,-21, 2, -3, -1, 3, -1, 0, 0
1503946001822,2, 10, -1, 2, 9, 2, 1, -2
1503946001845,-3, -7, -2, -4, -7, -1, 0, -5
1503946001860,-3, -5, -3, 0, -1, -1, -1, 1
1503946001882,8, 2, 0, 1, 8, -4, 0, 0
1503946001905,0, -5, -3, -8, -9, 1, 0, -1
1503946001920,-9, -8, -2, -2, 3, 0, -6, -7
1503946001943,-3, -3, -5, -5, -9, -5, -1, -4
1503946001965,9, 3, 6, 13, 4, 3, 3, 8
1503946001980,0, -1, 1, -4, -4, -2, -3, 0
1503946002003,1, -6, -4, -1, -2, 0, 5, 4
1503946002025,0, 0, -4, -5, 7, 2, 3, 4
1503946002040,-8, -4, -2, -2, -12, -2, -6, -7
1503946002064,-7, 2, 5, 9, 3, 0, -2, 0
1503946002085,-2, -1, 1, -3, -9, 0, 0, 1
1503946002100,0, -1, -1, 8, 9, 1, -1, -5
1503946002122,5, 5, -5, -14, -6, -5, 4, 0
1503946002145,7, 7, 1, 0, 7, 1, -2, 4
1503946002160,-32, -7, -2, -4, -12, -1, 0, -8
1503946002182,5, -3, -1, 16, 13, 1, -3, -1
1503946002205,17, 6, 6, -1, 8, 0, -6, 4
1503946002220,5, 4, -1, -23, -44, -9, -7, -6
1503946002243,-6, -9, -6, -19, -15, -3, 1, 6
1503946002266,5, -6, -6, 7, 2, 0, -1, -6
1503946002274,16, 1, -1, -7, -22, -3, -3, 0
1503946002295,17, 4, -6, -11, -18, -6, -9, -10
1503946002311,-14, -3, -1, -17, -9, -4, -15, -9
1503946002334,3, 6, 5, -6, 7, 0, 11, 20
1503946002362,-4, -5, -1, 2, 6, -1, 0, 2
1503946002371,9, 5, 14, 9, -4, 1, -1, 2
1503946002393,-8, -7, -7, -10, -23, -1, 1, -5
1503946002415,3, 1, -5, 14, 3, 4, 2, 5
1503946002430,-16, -7, 4, 5, 23, -1, -2, -8
1503946002453,1, 24, 18, 8, 6, -2, -1, -4
1503946002475,-16, -29, -21, -12, -20, -1, -2, -7
1503946002490,-4, -6, -4, -12, -16, -5, -2, -5
1503946002513,35, -15, -2, -2, 3, 0, -5, -8
1503946002535,-29, 7, -4, -4, 2, -6, -3, -4
1503946002550,-11, -5, -3, 9, 14, 3, 1, 1
1503946002573,4, -3, -11, -4, 28, -1, -2, -7
1503946002595,-10, 6, 0, -7, -2, 0, -1, 2
1503946002611,13, -3, -3, -1, 3, 2, 5, 3
1503946002636,14, 2, -1, 3, -2, 1, 2, 6
1503946002655,-10, -7, -7, -4, -4, -3, -2, -2
1503946002678,1, 4, 1, 3, -5, -1, -8, -9
1503946002693,-9, 2, 1, -7, -7, -4, -3, -1
1503946002715,-5, -13, -4, 17, -7, 2, -2, -6
1503946002738,4, 2, -10, -6, 0, -1, -1, 1
1503946002753,-24, -14, -21, -15, -3, -4, 0, 1
1503946002777,4, 4, 1, 0, 5, -2, -14, -12
1503946002798,-4, -8, 13, 2, -1, 2, 7, -9
1503946002813,-20, 7, 21, 5, 0, -1, 3, 14
1503946002844,2, 6, 3, -1, -1, 0, -8, -13
1503946002865,0, -11, -10, 0, 1, 2, 1, 9
1503946002887,23, 14, 8, 12, -18, 18, 6, 13
1503946002909,-10, -5, 3, -9, -6, -6, -3, -8
1503946002918,-10, -6, -4, -7, -10, -4, -11, -11
1503946002933,3, 13, -2, -5, 0, -4, 2, 3
1503946002955,6, -14, -6, 0, -9, -2, 1, 3
1503946002978,-1, 13, 8, 1, 0, 2, -5, -1
1503946002994,0, 6, 1, 3, -3, 1, 4, 4
1503946003015,13, -9, -6, -9, -5, -28, -2, 1
1503946003042,-17, -10, -4, -15, -4, 3, -1, 0
1503946003053,-13, -5, -4, -3, -2, 4, 0, -1
1503946003076,-2, 1, -6, -11, 7, -4, -8, -13
1503946003098,13, 8, 5, 6, 35, 2, 4, 8
1503946003113,14, -1, -2, 0, -10, 7, 0, 2
1503946003135,-1, -3, -3, 5, 2, -1, 1, -2
1503946003157,-8, -4, -2, 21, 17, 1, 0, -6
1503946003175,5, 3, 2, -8, -40, 2, 9, 9
1503946003195,30, 11, 2, -11, -10, 0, -9, 6
1503946003224,10, 0, -2, -3, -3, -1, 0, -7
1503946003233,-17, -4, 12, 3, 2, 3, 8, 8
1503946003255,10, -3, -1, 4, -5, -4, -2, -1
1503946003278,11, -4, 3, -4, -3, -1, -5, 0
1503946003293,-20, 18, 8, 2, -1, 0, 3, -4
1503946003315,-19, -20, -12, -5, 0, -1, 1, 0
1503946003341,-6, 2, -6, 18, 42, 12, -5, -10
1503946003353,22, 1, -3, -13, 1, 2, 0, 7
1503946003375,-4, 7, 12, 7, -8, -6, -5, -5
1503946003397,0, -2, -8, -11, -15, -6, -4, -3
1503946003413,-19, -8, 4, 10, 4, 0, -1, -6
1503946003435,-7, 3, -12, -8, -6, 0, 5, 8
1503946003458,-1, -11, -6, 0, -5, 0, 1, -1
1503946003474,-24, -4, 2, -2, -6, 2, -3, -6
1503946003495,0, 5, -3, -3, -1, 4, -1, -2
1503946003517,25, 2, 17, 6, 22, -5, -5, -6
1503946003533,-8, 0, -1, 2, -14, -3, 1, -2
1503946003555,-8, -3, -1, -10, -4, -6, -6, -2
1503946003579,0, 1, -7, -8, -7, -3, 0, -4
1503946003600,1, -9, -3, -3, 13, 0, -13, -6
1503946003610,3, 8, 0, -7, 4, -3, 0, 3
1503946003629,-1, -8, 8, -1, -3, -2, -6, 0
1503946003652,-7, -6, -30, -13, -5, 5, 20, 0
1503946003675,19, 12, 6, -3, -3, -4, -2, 0
1503946003689,-10, -10, -2, -2, 0, -2, -3, 2
1503946003705,10, 4, 0, -3, 2, 0, -2, -8
1503946003726,23, 14, -7, 1, 1, -4, -4, 0
1503946003749,-22, -15, 4, 22, 16, 4, 4, 5
1503946003765,-15, -10, -1, -15, -4, 5, 0, 1
1503946003787,7, 17, 17, -2, 3, -2, -7, -5
1503946003809,1, 0, -4, -4, -5, -2, 0, 1
1503946003825,22, -4, 3, 13, 29, -1, 0, -3
1503946003848,6, 7, -2, -11, -18, -4, -2, 1
1503946003869,-21, -11, -7, 5, -11, 1, -6, -17
1503946003885,-10, -5, -6, -2, 10, -4, 4, 6
1503946003907,-7, -2, -6, -7, -14, -1, -4, -8
1503946003929,3, 4, 1, -3, -3, 1, 1, 2
1503946003945,-11, -5, 3, 57, 59, -17, 5, -8
1503946003967,1, -1, 1, -23, -38, -1, -7, -1
1503946003989,3, -1, 0, -10, -7, 1, -4, -1
1503946004005,20, 0, 1, -6, -13, 0, 3, 8
1503946004027,-9, 3, -2, -12, 10, 4, 1, 5
1503946004049,-8, -20, -15, -14, -15, 13, 2, 4
1503946004065,-12, -10, -6, -4, -6, -7, -10, -9
1503946004087,-3, 14, 11, 3, 3, 2, 2, -7
1503946004095,-2, 2, -2, 5, 5, -2, -2, -2
1503946004118,5, 9, 7, 1, 14, 17, 4, 4
1503946004140,15, 7, -1, -8, -14, -1, 2, 9
1503946004155,-11, 3, -10, -7, -4, -6, 4, 11
1503946004180,3, -4, -5, -2, -1, 2, 2, -10
1503946004200,0, -3, -3, 7, 1, -8, 1, 0
1503946004216,7, 1, 1, 0, 39, 7, -8, -1
1503946004237,16, 0, 1, -5, -21, -4, 1, -18
1503946004260,-13, 0, 7, 6, -1, -5, -6, -5
1503946004275,7, 1, -3, -2, 2, -4, -1, -2
1503946004297,-1, 5, 4, 4, 1, -2, 4, 0
1503946004320,8, 0, -2, -6, -10, 3, -1, -3
1503946004335,-18, -4, -3, -2, -2, -10, -11, 4
1503946004358,-9, -5, -3, -6, -6, 0, -1, 1
1503946004380,7, -3, -3, 9, 2, 0, 1, -1
1503946004395,-15, -6, -3, -10, -9, -23, 6, 30
1503946004418,-12, 0, -2, -1, -2, 11, -4, -11
1503946004441,-41, -10, 0, -1, 0, -3, 2, -4
1503946004457,-1, 0, -4, -19, -25, -3, -1, -10
1503946004486,18, 3, 1, -2, 2, 20, 1, 10
1503946004500,7, 6, 1, 0, 4, 0, 3, -29
1503946004524,-18, 18, 13, 6, 1, -15, -11, -3
1503946004538,23, -7, -9, 0, 7, 1, -1, 18
1503946004561,8, -3, -1, 1, 4, 2, 1, 4
1503946004567,0, -1, -3, 0, -3, 7, 6, 7
1503946004597,-6, -3, -4, -1, 1, 0, 2, -20
1503946004620,28, 3, -3, -3, 1, -1, 9, 12
1503946004642,8, -1, -5, -3, 2, -11, -5, -2
1503946004658,-14, -11, -17, -3, -1, -2, -1, -4
1503946004680,26, -7, -6, -2, -2, 6, 8, 26
1503946004702,-9, 0, 1, -1, -2, 2, 7, 9
1503946004724,26, 23, 12, 6, -1, 3, -7, 6
1503946004740,-21, 2, 2, 1, -2, 3, -1, -16
1503946004762,9, -3, 1, 0, 4, 3, -1, 1
1503946004777,-2, -6, 4, -2, -3, -1, -2, -16
1503946004800,-20, -27, -18, -7, -5, 1, -2, 1
1503946004822,-5, -9, -4, -12, 1, -2, -3, 8
1503946004837,-22, 4, 6, -3, -9, -2, 0, -12
1503946004860,6, 4, 4, 5, 4, -2, -3, 10
1503946004885,-10, 1, 5, 3, 0, -1, 6, 1
1503946004897,12, 8, -5, 4, -3, -5, -10, -1
1503946004920,41, 13, -1, -2, -2, -1, 0, 9
1503946004942,-11, -12, -4, 1, -4, 2, 3, -3
1503946004959,-19, -1, 0, -2, 0, 7, -9, -3
1503946004980,0, 6, 7, 23, 23, -2, -1, 9
1503946005002,-12, -6, -8, -12, -8, 2, 4, 6
1503946005019,-5, -9, -1, 2, 4, 15, -7, -10
1503946005040,-27, -5, -2, -9, -9, -15, -8, -14
1503946005062,22, 9, 2, -2, -4, -3, -4, 12
1503946005077,-7, 0, 2, -2, 0, -10, -3, -14
1503946005100,-41, -9, 4, 5, -4, -3, 8, 18
1503946005123,5, -5, 2, 0, 10, 1, -4, -3
1503946005137,12, -1, -2, -7, -10, 0, -11, -26
1503946005161,-60, -5, -5, -3, 0, 0, 5, -8
1503946005182,9, -4, -4, 1, -5, 5, -2, 1
1503946005197,8, -3, -3, -8, -8, 6, 6, -10
1503946005220,48, 11, 0, -1, 6, 2, 2, 12
1503946005242,32, -1, 2, -4, -2, -20, -3, 9
1503946005258,34, 3, -3, 0, 0, 16, 2, 4
1503946005280,-24, 0, -1, -4, -4, -16, -6, -5
1503946005303,-5, -12, -6, -5, -6, 3, 8, 27
1503946005325,-3, 14, 12, 7, -2, -7, 1, -4
1503946005340,-18, -7, -1, 10, 13, 1, 11, -1
1503946005367,-11, -3, -4, -2, -5, 0, -9, -18
1503946005377,24, 4, -2, 2, -4, -32, -4, -2
1503946005400,-39, 8, 9, 0, 4, 11, -9, -4
1503946005422,13, 4, 0, 0, 0, 4, -1, -7
1503946005445,-8, -10, -6, -5, -6, -19, 6, 13
1503946005460,-11, -7, -7, -5, 0, 5, -3, -12
1503946005482,16, 1, -7, 8, 8, 9, 2, 7
1503946005505,2, -6, -7, -3, -4, 0, -10, -22
1503946005522,-5, -3, -4, -2, 0, 0, 4, 7
1503946005542,-57, -1, 2, 1, 1, 21, 0, 4
1503946005565,14, -9, -4, -5, -3, 10, 5, 30
1503946005580,18, 8, 9, 3, 6, 13, -8, -5
1503946005602,16, 0, 9, 9, 18, 3, 6, 0
1503946005632,40, 4, -4, -5, -12, -13, -1, -4
1503946005640,7, -2, -4, -1, -4, -3, 10, 12
1503946005662,-9, 27, 31, 10, 5, -5, 1, -7
1503946005685,-9, -10, -6, 5, -7, -1, 4, -15
1503946005700,-4, -1, -3, -8, -8, -6, -11, -1
1503946005723,-14, -6, -6, -5, -4, -41, -1, 3
1503946005745,-2, -3, -5, 1, 2, 6, 2, 1
1503946005760,1, -17, 0, -4, -15, 19, 2, -3
1503946005782,-8, 8, 5, 1, 8, 9, 2, -2
1503946005805,-7, 0, -5, -3, -3, -2, -6, -29
1503946005820,36, 6, 3, -1, -1, -4, -7, 8
1503946005842,17, 14, 6, -3, 0, 2, -7, -16
1503946005865,-12, -6, -7, -7, -6, 0, 1, 8
1503946005880,43, 4, 6, 4, 5, -2, 1, -6
1503946005902,-10, -16, -11, 0, -2, -3, 5, 9
1503946005925,-19, -1, -2, 0, 0, 3, 20, 55
1503946005947,-40, -15, -15, -6, 2, 0, 3, 10
1503946005962,23, 9, 6, 0, -2, -6, -5, -2
1503946005985,20, 3, -13, -2, 0, 6, -2, -23
1503946006000,46, -3, 5, 4, 3, -4, 1, 41
1503946006022,-28, -10, -3, -6, -3, -3, -7, -15
1503946006045,-44, -1, -7, -4, -3, -1, -13, -25
1503946006060,-7, -3, 2, 2, 0, -3, -11, -16
1503946006082,8, -13, -13, -4, -3, -4, -5, -25
1503946006105,-10, 6, 3, -1, 0, -2, -1, -4
1503946006120,-1, -8, -5, -5, -2, 2, -1, -16
1503946006142,6, -1, -4, 0, -3, -3, 5, 4
1503946006160,-17, -15, -14, -5, -4, 6, -3, -13
1503946006173,-17, -1, -1, 2, 2, -3, 0, -9
1503946006195,-16, -12, -11, -1, 0, -7, -20, -40
1503946006210,31, 9, 4, 2, -1, 2, 16, 96
1503946006233,-14, 2, 5, 3, 2, 5, 7, -14
1503946006255,-12, 3, -5, -4, -1, -5, -3, -25
1503946006263,8, -9, -3, -2, 1, 6, -3, -6
1503946006285,0, 1, 0, 1, -2, 2, 1, 25
1503946006300,-4, -23, -6, -2, -1, -1, -3, -31
1503946006322,11, -8, -10, -5, -2, 14, 0, 17
1503946006345,15, 6, 3, -4, 8, -4, -4, 0
1503946006371,-13, 3, 6, -2, -4, 4, 4, -3
1503946006383,12, 3, -4, 0, 0, -3, 9, 12
1503946006405,-30, -5, -1, -6, -3, -4, -6, -3
1503946006430,5, 3, 8, 49, 30, 3, -5, -6
1503946006457,19, -17, -14, -9, -7, -2, 2, 11
1503946006473,33, -5, 1, -5, -3, 16, 5, 2
1503946006496,-29, 2, -1, -2, 0, 2, -5, -8
1503946006517,-25, -11, -12, 0, 1, -10, 14, -11
1503946006533,-45, 14, 12, 5, 1, -4, -1, -9
1503946006555,37, -8, -13, -7, -5, 18, -5, -29
1503946006577,-20, -9, -2, -1, -1, -1, -7, -17
1503946006593,26, -3, -9, -2, 4, 4, 10, 2
1503946006615,0, -13, -2, -1, -5, -11, -3, 16
1503946006638,34, 17, 1, 3, 1, -9, -14, 5
1503946006653,-25, -17, -7, -6, -3, -5, 8, 1
1503946006682,18, 6, 3, 4, 1, -20, -10, 1
1503946006698,-38, 6, 3, 1, 0, 4, -1, 20
1503946006713,25, 5, 1, 1, 1, -1, 2, 15
1503946006736,-19, 8, 12, 1, -1, 1, -4, -15
1503946006757,-3, 0, 6, 1, -3, -1, -9, -18
1503946006773,-35, -8, -10, -2, -2, 3, 0, -5
1503946006803,-13, -14, -17, -4, -3, 0, 5, 11
1503946006825,-7, 6, 5, -2, -1, -7, -5, -20
1503946006847,-11, -6, -3, -1, 1, 1, -5, -11
1503946006867,-28, -10, 6, 6, 2, -1, -12, -27
1503946006885,17, -12, -7, -1, -1, -1, -1, -8
1503946006907,17, 8, 5, 2, -1, -3, 0, -7
1503946006922,-40, -16, -3, -1, -8, -32, -3, 2
1503946006945,18, -7, -9, -3, 0, 7, -4, -1
1503946006967,-18, -18, -9, -3, -2, 6, 3, -6
1503946006982,2, -3, -8, -3, -2, 2, 4, 16
1503946007005,-3, -5, 1, -2, 1, 0, 3, -1
1503946007027,17, 6, 8, 3, -1, -11, -6, -17
1503946007042,-11, -6, 1, -3, 1, 5, -3, -1
1503946007066,-1, -1, -7, -3, -2, 11, 0, 1
1503946007087,7, 2, 5, 1, 4, -1, 0, -2
1503946007102,-5, 10, 1, -5, -4, 2, -4, 1
1503946007125,-5, 1, -13, 13, 9, 10, 1, -3
1503946007147,-7, 5, -1, -8, -4, -4, -7, -18
1503946007162,-10, 16, -4, -4, -6, -2, 4, 3
1503946007185,7, 1, 9, -3, -2, 21, 8, -1
1503946007208,24, 8, 5, 0, 3, 3, -7, -10
1503946007222,8, 8, 4, -1, 5, -1, -17, -25
1503946007245,3, -5, -2, -1, 0, -8, 7, 20
1503946007268,-2, 6, 4, 2, -6, -8, -1, 0
1503946007282,-19, -9, -7, -2, 12, -8, -12, -66
1503946007305,9, 0, 4, 1, -7, -4, 6, 23
1503946007327,5, -6, -3, -2, -6, -2, -1, 7
1503946007350,13, -4, 0, -1, -1, -34, 3, 42
1503946007365,10, -2, -7, -3, -2, 11, 8, 43
1503946007387,-2, 3, 5, 1, -2, 3, 3, 19
1503946007410,-18, -1, 0, 0, -3, 3, -3, -16
1503946007425,-15, 3, 3, 8, 4, 2, -5, -20
1503946007447,7, 5, -2, -7, -5, 4, -1, -5
1503946007470,-1, -2, 1, -2, -2, -43, -7, -15
1503946007486,-15, -7, -8, 0, -2, 8, -1, -5
1503946007507,17, 9, 2, -5, -3, 10, 5, 8
1503946007530,-9, -2, -4, 2, 4, 7, 4, 10
1503946007545,0, -17, 4, 5, 0, 6, 6, 41
1503946007570,-5, 5, -6, -3, -2, 5, -17, -43
1503946007590,6, 3, 3, 2, 4, 22, 3, 2
1503946007605,8, -3, -5, -7, -5, 11, 0, -7
1503946007627,-31, -4, -12, -12, -10, -11, -8, -16
1503946007650,-14, 0, 3, 2, 2, -4, 1, -23
1503946007665,-12, -2, 3, 2, 1, -3, -1, -13
1503946007687,31, 15, 9, 1, -1, -5, 7, 24
1503946007710,7, -1, 3, 4, 2, -4, 1, 5
1503946007724,-32, -9, -4, 2, 0, -14, -1, -15
1503946007741,13, 2, 0, 1, 0, 8, 4, 17
1503946007755,-6, -4, 0, -2, -3, 4, -2, -9
1503946007778,0, -6, -2, 2, 0, 5, 1, 38
1503946007800,-7, -10, -10, -4, -3, 6, 11, -1
1503946007815,6, 10, 11, 3, 0, 1, 2, -4
1503946007839,-3, 0, 2, 2, -4, -45, -9, -17
1503946007860,25, 4, 1, -3, -1, 11, -3, 26
1503946007875,-12, -4, 4, 3, 1, 1, 2, -16
1503946007898,0, 3, -7, -5, 0, 7, 1, 6
1503946007920,-4, -2, -7, 0, 0, 2, 0, -2
1503946007935,1, 8, -3, -1, 0, 28, 0, 3
1503946007958,-9, -14, 0, 0, 0, 6, -2, -12
1503946007980,-2, 0, 7, -2, 1, -1, 1, -1
1503946007995,-2, 0, -5, -3, -1, -5, 0, -4
1503946008018,1, -5, 0, 4, -5, -4, -2, 0
1503946008040,-2, 12, -1, -4, -2, 0, 3, 2
1503946008055,-13, -8, 0, -1, -3, -2, -4, -10
1503946008078,-4, 0, -7, -10, -10, -4, 0, -2
1503946008100,6, 1, 6, 2, 4, -2, 0, -2
1503946008116,-23, 7, 5, 1, -4, 1, 1, -5
1503946008145,4, -3, -3, -2, -1, -3, -3, 3
1503946008160,1, -7, -9, -12, -3, -3, -1, -3
1503946008176,-74, -8, -5, 0, 6, -1, -2, 2
1503946008198,38, 8, -4, 1, -4, 2, 1, 5
1503946008220,6, -7, 4, -2, -22, -3, -1, -6
1503946008244,9, 0, -8, -3, 12, 1, 0, -1
1503946008258,4, 1, -2, -4, -5, -7, -2, 0
1503946008280,66, -2, 3, 1, 1, 2, 0, -8
1503946008302,-16, 4, 5, 6, 5, 1, 1, 1
1503946008318,-2, 4, 4, 6, 9, 1, -3, -3
1503946008332,-28, 5, 13, 3, -5, 0, -7, -14
1503946008347,66, -5, 6, -2, -6, 0, -2, 6
1503946008370,-19, -24, -11, -3, -7, -6, 1, 0
1503946008391,8, 5, -4, 1, 5, -1, -1, 2
1503946008408,-51, 4, -6, 1, -8, 3, 0, -3
1503946008429,-8, 2, -4, -3, -5, -1, -1, -4
1503946008451,-2, -8, -11, -12, -5, -3, 3, -3
1503946008467,25, -2, 30, 14, 6, 3, 4, 2
1503946008489,-52, -2, -4, -3, -1, -1, -1, 1
1503946008512,19, 0, 12, 5, 0, 1, 2, 3
1503946008527,12, 5, -9, -2, -5, -3, -4, -6
1503946008550,2, -2, -1, -4, 8, 1, 0, -1
1503946008571,3, -23, -12, -2, -1, -1, 4, 9
1503946008587,47, 1, -8, -3, -6, -4, -6, -3
1503946008610,-2, 4, -4, -7, 3, -1, -1, -1
1503946008631,-13, 5, 8, 3, -4, 1, 0, 3
1503946008648,-17, -5, 1, -1, -1, -2, 1, 6
1503946008670,11, 3, 18, 8, 6, 4, 2, 7
1503946008692,-3, 1, 0, -6, -5, -4, -3, -5
1503946008707,-17, -1, -10, -1, 6, 0, 1, 2
1503946008729,12, 2, 3, -3, -18, -1, 1, 3
1503946008738,-7, -1, -8, -2, 1, -1, 2, -2
1503946008759,13, 10, -1, -1, -3, 1, -1, -1
1503946008782,-18, -3, 22, 6, -1, 1, 0, -1
1503946008798,22, -1, -6, -3, -4, -1, -8, -4
1503946008816,22, 1, -6, -1, -9, 1, -4, -4
1503946008827,-3, -3, -9, -6, -6, -1, -1, -2
1503946008850,15, 0, 6, 4, -2, -1, 0, 0
1503946008871,-6, -6, -9, -6, 0, -2, 1, -2
1503946008888,-27, -6, -1, 1, 0, -2, -1, -3
1503946008913,10, 4, -6, 0, 5, 0, 2, 3
1503946008932,8, 2, -10, -4, -1, -3, -3, -3
1503946008948,-14, -9, 0, 0, 1, -2, -1, -3
1503946008962,5, 8, 1, 3, 2, -1, -8, -4
1503946008980,-12, -3, -9, 0, -2, 2, 2, -1
1503946008999,10, 3, 11, 1, -1, 2, 2, 3
1503946009007,29, 2, 4, 0, 2, -2, 0, -1
1503946009029,-6, -3, -1, 1, 3, -2, -2, -2
1503946009051,-3, 7, 1, 2, 2, 0, 1, 1
1503946009060,-15, -7, 10, 1, 3, 2, 3, 5
1503946009082,28, 7, -2, -2, -4, -1, -3, 0
1503946009098,7, -7, -3, -2, 2, -2, 2, 4
1503946009120,0, 0, -2, -2, -1, 0, -1, 1
1503946009142,8, -4, 5, 0, -1, 1, 0, -2
1503946009165,22, -1, -22, -4, -1, 0, 0, -2
1503946009181,-5, -11, -4, -9, -2, -4, -2, 1
1503946009202,-13, -4, -3, -3, -2, -1, 0, 0
1503946009225,0, -2, 0, 2, 0, -1, -1, 0
1503946009240,-5, 0, -2, -1, 2, 0, 0, -3
1503946009263,-5, 7, 13, 6, -2, 0, 2, 4
1503946009285,20, 11, 4, 2, -1, 0, -2, -1
1503946009300,12, 5, 4, 1, 1, -1, -1, -1
1503946009322,-13, -8, -6, -1, 0, -2, -1, 0
1503946009350,-2, -1, 2, -1, -2, -2, 0, -3
1503946009362,8, -2, -3, -2, -2, -1, -1, -3
1503946009382,-4, -1, -4, -3, -5, 0, 1, 1
1503946009405,-2, -4, 1, 2, 2, 1, -1, -1
1503946009420,-2, 3, 8, -1, 0, 0, -3, -3
1503946009442,-12, 6, -3, -1, -3, -2, 1, 5
1503946009465,-12, -5, -5, -2, -1, -2, -2, -3
1503946009479,-12, -9, -2, 1, 1, 1, -1, -2
1503946009503,-7, -9, -7, -4, -1, 0, -5, -5
1503946009525,25, -2, -11, -4, -2, -1, -1, 3
1503946009539,-1, -4, 2, 4, 0, -1, -1, 0
1503946009562,6, 5, 0, 0, -2, -1, -2, -4
1503946009585,3, 1, 4, -3, -2, -1, 0, -1
1503946009607,11, 5, -6, -5, 0, -2, -1, -3
1503946009623,-7, 3, 6, 3, 0, -1, 1, 2
1503946009645,-19, -7, -2, -1, -2, 0, 0, -3
1503946009660,1, -8, -16, -2, 1, -1, -1, -2
1503946009684,-1, 14, 39, 11, 4, 2, 4, 3
1503946009711,-5, -1, -1, -1, -2, -2, 0, 1
1503946009721,-5, -5, -4, -1, -3, -3, -5, -4
1503946009742,-3, 2, 5, -2, -1, -2, -3, -3
1503946009765,3, 4, -4, 0, 0, 1, -1, 2
1503946009780,-6, -6, 10, -2, 0, 0, 0, 0
1503946009802,-2, 6, -1, -1, 0, 0, 2, 5
1503946009825,2, 3, -3, -1, 1, 0, -1, 2
1503946009840,17, 8, -3, -1, -1, -2, -2, -2
1503946009862,-20, -1, 4, 6, 1, 0, -1, -7
1503946009892,8, -3, -7, -1, -3, -2, -1, 1
1503946009914,8, 12, 10, 2, 0, 0, 1, 6
1503946009929,-10, -8, -6, -2, 0, -2, -2, -1
1503946009945,-19, -2, -2, 1, -1, -1, 0, -2
1503946009960,14, -1, -5, 0, -1, -2, 0, 3
1503946009982,-9, 4, 2, 0, -1, 1, -2, 0
1503946010005,-2, 5, 1, -3, 1, -1, -1, -7
1503946010025,-30, 0, 0, -1, -1, 1, -1, 0
1503946010043,34, 6, -1, -1, -3, -1, 0, -1
1503946010065,-16, -15, -9, 0, -1, -1, -2, -4
1503946010088,-9, -2, 1, -2, -2, -2, 1, 1
1503946010102,-3, -3, 0, -4, 0, -2, -2, 1
1503946010125,0, 6, -4, -2, -3, 0, 4, 6
1503946010132,-16, 2, 9, 1, 0, 1, -1, -1
1503946010156,-2, 0, -2, -1, -3, -1, -1, -2
1503946010177,-6, -3, -7, 0, 0, 0, -2, 0
1503946010192,16, 0, -7, -3, -2, -3, -1, 1
1503946010214,-11, 0, -2, -1, 0, 1, 1, 4
1503946010236,8, 3, 0, 1, 0, -2, 1, 1
1503946010253,25, 5, 1, -1, 2, -1, -4, -5
1503946010274,1, -2, -5, 0, -1, 0, 1, 0
1503946010297,-3, 1, 1, -1, 0, -1, -1, -1
1503946010313,-8, 3, 0, -1, -3, 2, -1, 0
1503946010335,-23, -2, -2, 0, 0, -2, -2, -3
1503946010359,-9, -4, -6, -3, -3, -3, 0, 1
1503946010372,-29, -6, -3, 1, 0, -2, -2, -1
1503946010389,-4, -7, -7, -5, -2, 0, -3, 0
1503946010402,-12, -6, -2, -2, -1, -2, -2, -7
1503946010425,-24, 4, 3, 0, 2, 0, -1, -5
1503946010447,19, 2, -1, -1, -1, -1, 0, 2
1503946010462,13, 8, 11, 1, 1, 0, -1, 1
1503946010485,28, -1, -5, 0, 0, -2, -5, -9
1503946010507,6, 0, -7, -2, 0, 0, 2, 5
1503946010523,-8, -3, -1, -1, -1, 1, 0, 4
1503946010544,-6, -2, -4, -2, 0, -1, 2, 1
1503946010567,14, 8, 9, 1, -2, -1, 0, 3
1503946010582,-25, -15, -7, -6, -4, -1, -4, -2
1503946010605,1, 2, -6, 0, -1, -2, 0, 3
1503946010627,2, 0, 3, 0, 0, 0, -2, -3
1503946010642,5, 2, 0, -3, -2, -3, 0, -1
1503946010666,-9, -6, -8, -2, -1, -1, 0, -2
1503946010687,1, -12, -2, -1, -1, -2, -4, -5
1503946010702,11, 10, -4, -3, -2, 0, 0, 3
1503946010725,-6, 0, 8, 1, 0, -1, 1, 4
1503946010747,-10, -6, -4, 1, 0, 0, 2, 2
1503946010763,4, 3, -1, -1, 0, 1, -3, 0
1503946010784,-14, -6, -2, -1, -2, -4, -2, -3
1503946010801,-24, -9, -3, 3, 1, -1, -2, -6
1503946010815,44, 11, 2, -2, -3, -3, -6, -7
1503946010838,-16, -4, 4, 0, 0, 1, 0, 2
1503946010861,-10, 0, 7, 1, 0, -1, 0, -2
1503946010875,8, 18, 4, 2, 1, 2, -1, 2
1503946010899,1, -7, -3, -1, -2, -1, 0, 2
1503946010905,-27, -3, 0, 2, 1, 0, -1, -5
1503946010929,12, -4, -1, -2, -1, -1, -2, -3
1503946010942,6, 3, -2, -3, -1, -1, -1, 6
1503946010965,11, -5, -3, -2, 0, 0, -1, -5
1503946010987,-11, -8, -7, -2, -1, -1, -2, 2
1503946011002,-4, -2, -5, -3, -2, 1, 1, 2
1503946011028,-1, 1, 4, -2, 1, -1, -1, -1
1503946011047,14, 0, 9, 0, -1, -1, -1, 1
1503946011070,-14, -6, -4, 1, -2, -2, -1, -1
1503946011084,-6, 0, -3, 0, -2, -1, 0, -2
1503946011107,-11, 6, 6, 5, 1, 1, 0, -3
1503946011130,-2, 1, -1, -2, -1, -1, -1, 0
1503946011144,16, -2, -8, -4, 0, 0, -1, 0
1503946011167,23, -2, -8, -2, -1, -3, -3, -3
1503946011190,-11, 6, -3, 1, 0, -2, 1, -2
1503946011205,-7, -5, 1, 1, -1, 1, 2, 2
1503946011228,1, 0, -2, -2, -3, -2, 2, -3
1503946011250,-7, 0, 8, 1, 0, 0, -4, 0
1503946011266,8, -9, -4, -4, -2, -1, 6, 7
1503946011287,23, 13, 16, 0, -1, -2, -4, -5
1503946011310,-11, -5, -5, -2, -1, -1, -1, 1
1503946011326,-6, 5, -2, 1, 1, -2, -2, -2
1503946011347,-7, 2, 18, 3, 1, 0, -2, -1
1503946011374,3, -1, -8, -3, -1, 0, -3, -4
1503946011385,-7, -4, -6, -2, -4, -2, 0, 0
1503946011408,2, -6, -2, 1, 2, -1, -3, -1
1503946011430,1, -2, -4, -2, -1, -1, 0, 2
1503946011460,9, 3, -8, -1, -3, -5, -11, -11
1503946011475,-7, -2, 2, -2, 0, -2, -1, 2
1503946011499,-25, -6, -6, -2, -1, -1, 2, -3
1503946011520,-30, -7, 0, -1, -1, -2, 0, -1
1503946011535,-16, -10, -3, 2, -2, 1, 5, 2
1503946011557,-2, -8, -2, 3, 0, 1, 2, -3
1503946011580,1, -3, 3, -2, 0, 1, -1, -1
1503946011597,6, 1, -1, -2, -1, -3, -3, 0
1503946011610,-20, 0, 6, 7, 3, -1, 7, 10
1503946011624,-11, -8, -8, -5, 6, -2, 4, -3
1503946011647,-6, -1, -4, -2, -1, 0, 0, 5
1503946011670,7, 4, -1, 0, -3, 1, 0, -5
1503946011678,-8, -3, -2, -2, -4, -1, 1, 2
1503946011700,5, -4, -7, -3, 7, -1, 2, 3
1503946011715,13, 2, 6, 0, -5, -2, -4, -3
1503946011738,10, 4, -8, -4, -2, -3, -6, 34
1503946011760,-20, -4, -4, -3, 0, -1, -2, -12
1503946011775,-30, -16, -6, -4, -4, -2, -3, -12
1503946011800,3, 6, 3, -1, 1, -1, 1, 0
1503946011820,-5, 4, -1, 4, 11, 0, -3, -41
1503946011835,11, -1, -1, 0, -5, 0, 1, 3
1503946011850,1, -10, 2, 0, -2, -1, 0, 0
1503946011866,-39, -6, -5, -13, -41, -3, -1, -2
1503946011887,-22, -6, -8, -4, 11, -2, -1, -5
1503946011910,14, 3, 0, -2, 1, -2, 2, -2
1503946011924,0, 8, -18, 0, 1, 1, -8, -16
1503946011947,-1, 1, 1, -8, 26, 0, 5, -6
1503946011970,12, -2, 3, 7, 16, 1, -3, -1
1503946011992,2, 1, 6, 1, 4, -1, -1, 0
1503946012007,15, -3, -3, -1, -7, -2, -3, 14
1503946012029,7, 3, 5, 0, -16, -19, -11, -14
1503946012052,0, 2, 4, 1, 48, 4, -4, 6
1503946012068,-3, -1, -2, -8, -36, -1, 2, 10
1503946012090,1, 1, 0, 3, -2, 1, 2, 0
1503946012112,16, 5, -1, -3, -15, 0, 0, -8
1503946012127,27, 3, 3, 6, 11, 5, 9, 35
1503946012150,-5, 7, 0, 0, -13, 0, 4, -3
1503946012173,-7, -2, -2, 3, -5, 7, -2, -2
1503946012187,-14, -7, -5, -2, 8, 0, 5, 8
1503946012210,-2, -5, 0, 0, -6, 2, -3, -9
1503946012232,-13, -2, 0, -3, 3, -5, -2, -5
1503946012247,-14, -3, 0, 6, 32, 16, -3, -5
1503946012270,5, -2, -1, -8, 3, -8, -6, -1
1503946012292,-12, 3, -2, -1, -12, -1, -1, -6
1503946012308,-9, -14, -2, 1, -7, -3, 0, 5
1503946012329,-35, -4, 3, 2, 12, 2, -1, 3
1503946012339,-1, -5, -3, -6, -3, -4, -6, 7
1503946012366,0, 3, 6, 6, 3, 1, -8, -4
1503946012382,-9, -4, -2, -1, 17, 1, -9, -15
1503946012398,-22, -6, -3, -2, -4, 3, -2, 9
1503946012421,32, 5, 1, -2, -10, -3, 1, 8
1503946012444,-5, 3, 0, -1, -4, 1, 2, -4
1503946012458,29, 3, 4, 2, 5, 9, 2, -23
1503946012474,3, 0, 2, 1, 0, -7, -2, 2
1503946012487,7, -1, 1, -1, 1, 10, 3, 16
1503946012510,-24, -1, -2, -2, -2, 3, 0, 6
1503946012532,43, 6, 9, 8, -4, -9, -5, 13
1503946012547,32, 5, 1, 0, -2, -9, -2, 6
1503946012562,-6, -10, -5, 4, 23, -1, -3, 3
1503946012578,0, -3, -1, -4, -14, 20, -4, 3
1503946012608,-4, -9, -5, -3, 0, 4, 3, 3
1503946012629,1, 11, 5, 1, 3, 15, 25, 20
1503946012652,-45, -2, 4, 2, -11, -10, -5, -15
1503946012667,-37, -4, -7, -2, -6, 5, -11, -44
1503946012689,24, -1, -11, -6, 1, -2, -3, 0
1503946012712,-18, 0, 0, 0, -3, -17, 1, 18
1503946012727,26, 4, 4, 1, 2, -6, -7, -6
1503946012749,-42, -9, -7, -5, -7, 4, -12, -25
1503946012758,-23, 6, -5, -1, 1, -1, -14, -84
1503946012781,10, 3, -4, -1, -3, -3, 5, 24
1503946012802,-10, -6, -4, -5, -5, 6, -10, 4
1503946012818,14, -10, -6, -6, 15, -19, -5, 11
1503946012846,2, 7, 2, 0, -7, 12, -1, -8
1503946012862,-44, -10, -3, -2, -4, 7, 6, 23
1503946012878,0, -7, 2, 0, -29, -6, 0, 11
1503946012900,7, 14, 0, -2, 1, -3, -4, 5
1503946012922,10, 4, 3, 0, -3, -5, 4, 5
1503946012945,11, -4, -13, -5, -2, -5, 0, 3
1503946012960,-13, -4, -6, 0, 7, 1, 0, 0
1503946012982,6, 0, 0, 3, 7, 1, 3, 12
1503946013005,-1, 16, 21, 4, -2, 15, 6, 3
1503946013020,1, -2, 1, 1, 1, 2, -3, 5
1503946013042,-7, -11, -3, -2, -1, -3, 3, -5
1503946013064,2, 0, -7, -1, -3, -10, -2, 1
1503946013080,5, -1, -7, -1, 3, -5, -5, -5
1503946013102,1, -6, -10, -8, -2, -8, -12, -25
1503946013124,6, -13, -6, -3, -1, 2, 4, 14
1503946013144,17, 3, 3, 4, 0, 0, -6, -11
1503946013162,50, 6, -1, -3, -3, -5, -2, 4
1503946013184,-14, 0, 6, 4, -4, -2, -2, -15
1503946013200,-7, 0, 1, 0, 9, -1, 0, 14
1503946013222,-11, 2, 0, 1, 1, 0, 1, -2
1503946013245,-47, -5, 1, 0, -2, 1, -3, -8
1503946013260,22, -3, -2, -5, -19, -29, 3, 19
1503946013282,-6, -2, -3, 3, 3, 13, 20, 3
1503946013304,0, 1, -2, -4, 1, 4, -5, 0
1503946013320,7, 3, 3, 1, 6, 3, -2, -6
1503946013345,-28, -5, -5, -4, -3, 15, -3, 4
1503946013365,-7, -6, -4, 2, 7, 9, 8, 43
1503946013380,-3, 3, -2, -7, -3, -10, -6, -12
1503946013402,13, -6, -2, 1, 3, -7, -3, -15
1503946013424,-21, -6, -6, -6, -18, -3, -8, 1
1503946013440,41, 26, -6, -2, -5, -8, -6, 22
1503946013462,15, -7, -1, -3, -2, -34, 1, -17
1503946013485,7, -3, 2, 4, 5, 20, -4, -5
1503946013500,-8, -2, -3, 1, 1, 5, 0, 5
1503946013522,-17, 8, 3, -3, 3, 0, 0, -14
1503946013545,9, -13, -7, 2, 8, 2, -2, 2
1503946013560,-18, -6, -2, 1, 1, 1, -1, -9
1503946013582,2, 8, 9, 4, 0, -8, -1, 1
1503946013589,6, -9, -16, -5, -1, -3, -3, -19
1503946013613,-1, 9, 5, 1, 0, -3, -7, 1
1503946013621,-35, -17, -2, -1, 1, 9, -2, -13
1503946013650,-9, 6, 15, -1, -3, -6, -5, -13
1503946013672,-5, -10, -8, -5, -4, -6, -1, 3
1503946013694,-15, 3, -10, 0, 1, -4, -3, 11
1503946013712,5, -10, -2, -2, -4, -2, -1, -2
1503946013732,0, -1, 1, 2, 0, -2, 1, 1
1503946013754,-6, -6, -6, -7, -54, -5, -2, -14
1503946013769,11, 13, 4, 2, 10, 0, 0, 11
1503946013792,6, -3, -7, -2, 8, -1, 3, 5
1503946013814,8, -7, 1, 4, 7, 11, -2, -4
1503946013836,36, 4, 6, 1, 18, 8, 3, 3
1503946013852,-18, -9, -7, 3, 10, -7, -3, -8
1503946013882,6, 5, 2, 0, 0, -5, 3, 4
1503946013896,-29, 4, 2, -3, -3, -6, -5, -8
1503946013914,25, -10, -7, -13, -3, -2, 0, 6
1503946013934,-3, 0, -1, -3, 1, 14, -3, -7
1503946013957,-13, -5, 2, 6, 10, 3, 1, -1
1503946013972,47, 5, -1, -1, -1, -7, -1, 1
1503946013995,-25, -8, 14, 11, -1, -2, 1, -4
1503946014016,-1, 2, -4, -3, -2, -4, -2, 3
1503946014032,-5, 4, 2, -1, -7, -7, -3, -7
1503946014054,-14, -8, -8, -4, 0, 9, -3, -5
1503946014077,-8, -2, -4, -1, -3, -5, -7, 7
1503946014092,-4, -9, -7, -2, 1, 5, 4, 4
1503946014114,2, 3, 1, 0, 0, -5, 2, -10
1503946014136,0, -3, 1, 1, -2, -3, 0, 6
1503946014152,-1, -1, -4, 3, 12, -3, 0, 5
1503946014174,-8, -4, -5, -4, -8, -32, 2, 0
1503946014197,-15, -5, 1, 1, -1, 8, -8, -14
1503946014212,-4, 6, 5, 1, 1, 1, -6, -15
1503946014234,7, 0, 2, 4, 2, 3, 3, 3
1503946014258,11, 2, -2, -1, -5, 0, -3, -6
1503946014272,14, 14, 6, -4, -2, 5, -4, -4
1503946014301,-9, -9, -6, -5, -4, -1, 4, 9
1503946014317,29, -7, 0, -6, -5, 3, 8, 25
1503946014332,-9, -7, -14, -8, -5, 2, 4, 9
1503946014355,-5, -7, -9, -5, -3, -1, -3, -9
1503946014378,-6, 2, 1, 5, -1, -20, -5, -11
1503946014392,0, -3, -2, 1, 2, 22, -3, 8
1503946014418,-23, 7, -3, -3, -3, -1, 1, 14
1503946014437,8, -2, -9, -3, -3, -5, -7, -10
1503946014452,-8, -6, 1, 0, 3, 3, 8, -8
1503946014474,-6, -2, -2, -3, 0, -2, -2, 1
1503946014496,-7, 2, 3, -1, -2, 5, 2, 7
1503946014512,19, 6, 4, 6, 0, -4, 1, 4
1503946014534,-16, -7, -1, -3, 0, -5, -1, -6
1503946014556,10, 2, 11, 9, 6, 2, 5, 3
1503946014572,3, 5, 1, 2, 3, 1, 4, 3
1503946014594,0, 4, 1, 0, -4, 0, 4, 24
1503946014620,0, 7, 3, -4, -2, -1, 7, 14
1503946014624,-8, 13, 3, 4, 0, 3, -1, -13
1503946014647,-2, 6, 1, 2, -1, 1, 1, -5
1503946014662,-1, -5, -9, -5, -6, -5, 1, 8
1503946014687,2, -9, -4, -3, -1, 23, 0, -2
1503946014707,2, 0, 4, 9, 5, -2, -2, -4
1503946014724,-1, -8, -8, -5, 0, -2, 0, -2
1503946014744,-3, -8, -5, -4, 0, -8, -1, -3
1503946014767,27, 10, -7, 7, -2, -4, -3, 3
1503946014792,14, 0, -4, 6, -10, -7, 1, 2
1503946014804,1, 8, 8, 35, 2, -5, -4, -5
1503946014828,-18, -8, -16, -26, -1, 2, 0, -2
1503946014849,-2, -5, -19, -19, 0, -8, -5, -20
1503946014864,6, -9, 11, 3, -2, 0, 2, 18
1503946014889,4, -4, 2, 1, -6, -2, -6, 4
1503946014896,9, -11, -8, 0, 6, -1, 1, -1
1503946014916,-34, -11, -13, -1, 2, -1, -3, -4
1503946014939,18, 13, 2, 0, -3, -2, 2, 5
1503946014955,69, 4, -9, 1, -1, -1, -1, -6
1503946014976,-18, -3, 2, -5, -41, 3, -1, 5
1503946014999,-37, -2, 1, 1, -5, 0, 0, -11
1503946015014,29, 24, 9, 2, 2, -2, -2, 3
1503946015036,-9, -8, 8, 13, 15, -3, -6, -8
1503946015060,-15, -8, -10, -8, -1, -3, -3, 2
1503946015074,-9, -9, -2, -2, 5, 3, 3, 0
1503946015098,-26, -14, -7, -1, 0, 5, 0, -5
1503946015118,-17, -4, 0, -2, -5, -3, 2, 1
1503946015134,-16, 3, -4, -5, -4, -3, 0, 0
1503946015172,27, 10, -10, 1, -2, 1, 1, 3
1503946015189,5, -19, -29, -16, -8, -4, 1, 0
1503946015209,-3, 7, -5, -4, -3, -2, 0, -3
1503946015224,-9, 3, 11, 2, -1, 1, -2, 2
1503946015247,27, 4, 13, 5, 2, -1, -2, -4
1503946015269,-1, 14, 15, 3, 0, -1, 1, 3
1503946015284,-3, 2, 2, 0, 0, 1, -1, -6
1503946015307,1, -5, 22, 5, 0, 0, 2, 3
1503946015329,8, -9, -14, -5, -2, -2, -3, -2
1503946015352,0, -2, -1, 1, 0, -1, -1, 2
1503946015367,4, -7, -7, 0, 1, 1, 0, -2
1503946015393,-18, 14, 22, 3, -1, -1, 0, -1
1503946015404,-18, 9, 8, -2, 0, -1, -5, -8
1503946015427,-3, -6, -5, -2, -2, 0, 0, 0
1503946015449,7, -6, -6, -1, 1, -1, 0, 0
1503946015460,17, 4, 1, -1, -1, -1, 1, 3
1503946015479,-5, -4, -10, -1, 1, 1, -1, -3
1503946015495,-18, -6, 0, -3, -2, -2, -3, -2
1503946015516,7, 2, 6, 1, 0, -2, 1, 1
1503946015539,17, 4, 2, 0, -1, 1, 0, 0
1503946015554,-31, -2, -5, -1, 2, -3, -3, -7
1503946015576,-6, 4, 6, -1, 3, 1, 1, 3
1503946015600,3, -1, -3, -4, -3, 0, 0, 0
1503946015622,5, 0, 8, 4, -1, 0, 0, -1
1503946015637,5, 9, -2, 1, -1, 1, 0, 1
1503946015660,4, -2, -2, -2, -2, -1, 0, 0
1503946015682,-4, -8, -2, 2, -1, -1, -1, -1
1503946015697,6, 0, -4, -2, -2, -1, -2, -1
1503946015720,-2, 3, -1, 0, 0, 2, 0, 1
1503946015742,13, -12, -7, -5, -1, -1, 2, 0
1503946015759,-3, -3, 6, 2, 0, -5, -3, -7
1503946015780,9, 1, 0, -1, -2, 2, -1, 3
1503946015803,-2, 3, -1, -2, -2, -2, -2, -1
1503946015817,0, -2, -3, 0, 0, -3, -2, -1
1503946015840,-30, 6, 1, -4, -2, -2, -2, -3
1503946015869,-32, -3, 2, -2, 0, 1, -1, -3
1503946015896,11, 2, -2, -1, -1, -1, 0, -2
1503946015907,11, 7, -3, -4, -2, -2, 0, 0
1503946015931,-4, 1, -1, -3, 0, 0, -2, -1
1503946015952,14, -3, -5, 0, -2, -3, 1, -2
1503946015974,-6, -4, 0, -2, 0, 0, 0, -3
1503946015989,-4, 1, 4, 0, -1, 1, 0, -2
1503946016012,-1, -11, 0, 3, -1, -2, -2, 0
1503946016031,12, 0, 11, 1, -2, -1, 0, -3
1503946016049,-2, -1, -4, -3, -1, 0, 1, 10
1503946016072,-8, 2, -5, -5, 0, -2, -1, 1
1503946016087,-2, 10, 5, 4, 2, 1, -1, 0
1503946016109,-18, -5, -1, 0, -1, 1, -2, -2
1503946016133,6, -10, -6, -2, -2, -2, -4, -5
1503946016147,10, 3, 2, 3, 1, -1, -5, -10
1503946016169,-22, -4, -15, -5, -1, -1, 0, 0
1503946016192,12, 3, 0, -2, -2, 1, 0, 1
1503946016207,-19, 4, 16, 3, -1, -1, 0, 2
1503946016230,9, -1, -2, 0, 0, 0, 0, -2
1503946016238,20, -2, -5, 1, 0, -1, -1, -2
1503946016260,-2, -6, -5, 0, 0, 0, -3, -1
1503946016282,11, 3, -4, -3, -1, -1, -1, -3
1503946016300,14, 3, -2, -1, -2, 0, 2, 0
1503946016320,-16, -4, -3, 0, -1, 0, -1, 4
1503946016342,-9, 2, 1, -1, -1, -4, -1, -2
1503946016357,0, 0, 5, 0, -1, 3, -1, -2
1503946016380,-2, 3, -9, -4, -2, -1, -1, -1
1503946016402,10, -1, -1, -2, -1, 1, 1, -4
1503946016417,1, -6, -2, 1, 1, -1, 3, 5
1503946016447,-16, -1, 4, 0, 0, -1, -2, 0
1503946016465,1, 4, 2, -1, -2, 0, -2, -3
1503946016478,-5, 1, 8, 1, -2, -1, 0, -1
1503946016502,6, -2, -4, 0, -1, 1, -1, 1
1503946016522,6, 0, 0, -5, -3, -4, -7, -3
1503946016538,-12, -1, 0, 3, 26, 3, 4, 12
1503946016560,3, 2, -3, 4, 7, 3, -2, -10
1503946016569,3, 0, 0, -8, 16, 3, 2, 19
1503946016590,-2, -6, -2, 1, -19, -2, -4, -17
1503946016612,7, -3, -3, -10, -13, -12, -12, -3
1503946016637,6, -5, -7, -1, 0, -2, 0, -12
1503946016649,-4, 3, 0, 5, 4, 15, 14, 48
1503946016680,-8, -2, 0, 2, 0, -6, -5, 3
1503946016711,-10, 1, 2, 5, 15, 4, 3, 14
1503946016734,57, 17, 1, -2, 8, -10, -5, 11
1503946016754,29, -4, 5, 1, -6, -4, -18, -64
1503946016770,-35, -9, -3, -1, -24, -6, -3, -11
1503946016792,-3, -6, -5, -5, -16, 1, -6, 15
1503946016814,-10, 0, 1, 9, -22, -5, 6, -1
1503946016829,-13, 1, -4, -3, 18, 0, -5, -4
1503946016852,-15, -4, -7, -6, -6, 0, -1, 10
1503946016874,-7, -7, -6, -4, 2, 4, -23, -7
1503946016889,-42, -4, -4, -8, -13, -6, 0, -60
1503946016912,17, 0, 0, -2, -6, -6, -1, 21
1503946016935,-10, 0, -2, -1, 0, -1, 1, 6
1503946016949,-19, -8, -3, 0, -7, 1, 2, -8
1503946016972,12, -2, 2, 4, 15, -5, 1, 43
1503946016994,6, 2, -1, -4, 3, 3, -3, 0
1503946017010,14, 6, 8, 1, 2, 0, 5, 10
1503946017032,-7, -12, -6, -3, -2, -2, -2, 27
1503946017054,-1, -1, -5, -4, 2, 1, 9, -1
1503946017069,-81, -8, -5, -3, -1, -3, 2, -38
1503946017092,24, 9, 14, 10, 5, -4, -8, -5
1503946017121,8, -3, -6, -4, 2, -3, -1, 4
1503946017129,16, -3, -4, 2, -2, 1, 0, -3
1503946017152,-1, -5, -2, -3, 1, -3, -10, -9
1503946017175,10, 6, -5, -2, 3, 3, 0, -7
1503946017189,10, 3, 1, 0, -4, -2, 3, 4
1503946017212,9, 6, -1, -4, 0, -4, -4, -16
1503946017237,0, 5, 14, 3, -3, 3, 0, 2
1503946017249,-15, -3, -13, -2, -3, -1, 2, 17
1503946017272,6, 5, 5, 2, 2, -23, -3, 5
1503946017295,-2, 6, 20, 6, 2, 8, 1, 0
1503946017310,-4, 4, 1, 0, 0, 3, -2, -5
1503946017346,29, 11, 14, 3, -1, 2, -1, -2
1503946017354,0, -4, -29, -7, -1, 2, -1, -1
1503946017373,-17, -2, -2, -4, 0, 5, -2, -11
1503946017392,-22, -37, -11, -2, -3, -1, -4, -7
1503946017415,2, 1, -10, -5, -3, 0, 0, 5
1503946017429,2, 2, 0, 4, 1, -1, -3, 2
1503946017452,-16, -14, -7, -3, -2, -1, -1, -6
1503946017476,-16, -9, 1, -2, -1, 0, -1, -1
1503946017489,31, 17, 5, 1, -1, -1, -1, 5
1503946017512,7, 1, 1, 4, 2, 1, 1, 3
1503946017534,23, 9, 7, 0, 1, -3, -1, 0
1503946017557,-19, -10, -9, 1, -1, 0, 0, -4
1503946017573,22, 14, 3, -4, -3, 2, -1, -1
1503946017594,12, 7, 5, 0, -2, -1, 0, 3
1503946017617,-9, 7, -1, -5, -1, -2, -1, 2
1503946017632,8, -1, -5, -3, -3, -3, 0, -1
1503946017655,-11, -6, 0, 1, -2, 0, -3, -14
1503946017677,4, -1, 16, 1, 1, 1, 0, 5
1503946017691,-4, -6, -2, 1, -3, -1, -1, -10
1503946017707,17, 1, 0, -2, -3, -1, 1, 4
1503946017723,-9, -2, 2, -1, -1, -1, -2, 2
1503946017745,-6, 14, 46, 15, 2, -1, 0, -1
1503946017767,-12, -19, -18, -8, -4, -3, -2, -3
1503946017782,1, 4, -7, -2, 0, -2, -1, 9
1503946017808,31, 6, -9, -3, -1, -1, 0, 9
1503946017827,-11, -6, -12, -1, -3, -3, -1, -6
1503946017842,-15, 2, 5, -3, 0, 0, -2, -1
1503946017865,-9, -5, -3, -2, -2, 0, -2, -4
1503946017887,10, -4, -10, -3, -1, -2, 0, -4
1503946017902,11, 2, -4, 0, -2, -2, -1, -3
1503946017917,22, 4, -2, -3, -2, 0, 0, 5
1503946017932,8, -2, 5, 1, -3, -1, 0, 0
1503946017954,7, 2, -2, -1, 1, -1, 1, -2
1503946017979,-16, 7, 8, 1, 1, -1, -1, -2
1503946017992,-1, 0, 0, -3, -2, 0, -1, -3
1503946018015,-16, -1, -3, -2, -2, 0, -1, -1
1503946018037,15, 2, 4, 2, 0, -1, 0, 4
1503946018052,9, 0, -2, -1, -3, -2, 0, -7
1503946018076,-15, -9, -5, -3, -1, -1, -2, -4
1503946018097,-5, 0, -5, -2, 1, -1, -2, 1
1503946018112,-21, -7, -8, -2, -3, 0, 1, -3
1503946018135,7, -2, -4, 1, -2, -1, 0, -2
1503946018157,-6, 2, -3, -2, 0, -1, -2, 2
1503946018172,0, -2, 2, 0, 0, -2, 0, -3
1503946018194,2, 1, 3, 1, 0, 0, -1, 3
1503946018217,-5, 6, 7, 0, 1, -1, 0, 1
1503946018232,0, 2, -3, -2, -1, 1, 0, 0
1503946018254,-20, -6, -3, 3, 1, 0, -1, -2
1503946018277,5, 1, 0, -3, -2, -3, -1, 0
1503946018292,-16, -1, 12, 1, 1, 0, 1, 0
1503946018314,6, -1, -6, -3, -3, -2, -1, -5
1503946018337,4, -3, -3, -3, 0, -3, -1, 1
1503946018353,5, 2, -2, -1, -2, 0, -1, -2
1503946018367,13, 4, 0, -1, -1, -1, 2, 2
1503946018382,-12, -4, 0, -1, 1, 0, 1, 1
1503946018405,-9, -2, 0, 1, 0, 0, 0, 1
1503946018427,-7, 5, 2, -1, 0, 0, -1, -4
1503946018444,-4, -6, 0, 2, -1, -2, 0, -1
1503946018465,2, 7, 10, 4, 1, 1, -1, -1
1503946018487,23, -2, 14, 4, 1, 0, -1, 1
1503946018509,-12, -3, -8, -3, -2, -4, 0, -2
1503946018525,-1, 1, -3, -3, -1, 0, 0, 0
1503946018547,-4, -3, -7, -1, -1, 0, -3, 1
1503946018569,12, 0, 6, -3, -5, -4, -4, -2
1503946018580,-7, -1, 0, 0, 0, 2, 2, 1
1503946018599,-9, -3, -3, -4, -2, -4, -2, -4
1503946018614,4, -2, -1, 1, 0, 2, 1, 0
1503946018637,1, 0, -1, -2, -1, 0, -2, -2
1503946018659,-7, -3, -1, 1, -1, -2, 1, -2
1503946018674,20, 10, 6, 0, -1, -1, -1, 3
1503946018697,9, -1, -4, -3, 0, -1, -1, 1
1503946018719,-11, -7, -3, -1, 0, 1, -2, -3
1503946018736,17, 4, 0, -3, -2, -2, 0, -2
1503946018757,-4, -1, -3, 0, -1, 1, -1, 0
1503946018782,-13, 5, -2, -2, -1, -1, -3, -3
1503946018794,3, -2, -1, -1, -3, 0, -1, 3
1503946018817,-2, -2, 0, 0, 0, 0, -2, -4
1503946018839,1, -4, 1, 0, -1, 0, -2, 1
1503946018854,-9, 12, 6, 0, 0, -2, 0, -4
1503946018877,-3, -3, -4, 1, -1, 0, 0, -2
1503946018899,-3, 2, 4, 2, 2, -1, -4, -4
1503946018915,-27, -7, -4, -2, -2, 0, 0, 0
1503946018937,9, -4, 0, -2, -1, -2, 2, 5
1503946018959,4, -3, -3, 0, -1, -3, 3, 4
1503946018974,10, -3, -10, -1, 0, -1, -1, 0
1503946018997,5, 1, -4, -3, -2, 1, -2, -1
1503946019021,0, -4, -4, -1, -2, -2, 0, 0
1503946019034,10, 4, 4, 2, 0, -1, -1, -3
1503946019058,-30, -1, 8, -1, 0, 0, 0, -3
1503946019078,13, -5, -2, -1, -1, 1, -1, -2
1503946019094,2, 3, 1, -2, -1, 0, -1, 0
1503946019117,2, -1, -1, -1, -1, -1, -2, 0
1503946019139,10, -2, -8, -2, -2, -1, 0, -1
1503946019154,-3, 3, -3, -1, -2, 0, -1, -1
1503946019169,-2, -4, -3, 0, 1, -2, -2, -1
1503946019185,-1, 2, -2, 0, 0, 0, 0, -3
1503946019206,-1, -7, 2, -4, -2, -2, 1, -1
1503946019214,15, -3, 2, -1, 0, -1, 2, 4
1503946019237,-1, -3, -3, -3, -1, -1, 1, 0
1503946019259,-10, -6, 0, -1, 0, -2, -1, -2
1503946019274,0, -1, 2, 1, -1, -2, -2, -2
1503946019297,-8, 0, 1, 0, 1, -1, -1, -2
1503946019319,19, 5, 4, 1, 0, -1, -1, -2
1503946019334,-5, -3, -1, -1, -1, 3, -3, -3
1503946019357,-12, -4, -6, -1, -2, -1, -3, -3
1503946019379,4, 4, 3, 1, 1, 0, 0, 0
1503946019394,-3, -2, -1, -3, -1, 2, -1, -1
1503946019419,-4, 0, 0, 0, 0, 0, 1, 2
1503946019438,16, 2, 14, 2, 2, -2, -1, 1
1503946019465,-4, -1, -1, 1, -1, -2, -1, -1
1503946019477,-3, 2, -9, -3, -2, 0, 0, 0
1503946019498,-5, -3, -3, -1, -1, -1, -1, -2
1503946019521,5, 3, 0, -2, 0, -2, -2, 1
1503946019537,-7, 0, 8, 7, 0, 0, -2, -3
1503946019559,-2, -1, -8, -5, -2, 1, 0, -1
1503946019581,-1, 0, -5, -2, -2, -1, -1, -1
1503946019597,-4, -1, -2, -1, 0, 0, -1, -2
1503946019620,0, -6, -3, 1, 0, -2, -1, 0
1503946019641,4, -1, -2, -4, -3, -2, -2, 0
1503946019657,20, 0, -4, 0, -2, -3, -2, -4
1503946019679,-8, 2, 5, 1, 3, -1, -2, 0
1503946019701,-5, -5, -5, -4, -4, 0, -1, -1
1503946019717,-17, 2, 1, 1, 0, -1, -2, -6
1503946019738,-7, -6, -1, 0, 1, 0, -1, 1
1503946019761,-2, -2, -2, -3, -4, 2, -1, 1
1503946019777,1, 0, 3, -2, -4, -3, -5, 1
1503946019799,-2, -1, -5, 1, 0, 0, 1, 1
1503946019823,12, -2, 1, 1, -1, 0, 0, -4
1503946019837,-16, -3, -3, -1, 0, -2, 0, -2
1503946019861,13, -1, -2, -3, -2, -3, 2, 6
1503946019881,-2, -2, 0, -1, 2, 1, 0, -2
1503946019897,-24, -1, 2, 0, -1, -4, 0, -1
1503946019921,8, 2, 1, 2, -3, -2, 0, -3
1503946019941,7, 0, 1, 0, 1, 1, -2, -7
1503946019957,-16, 1, 2, -1, -3, -1, 1, -4
1503946019979,-6, -3, 0, 7, -8, -28, 9, 1
1503946020001,4, -1, -4, -5, -6, 9, -2, 0
1503946020017,-1, 1, -2, -1, -6, 5, -4, -1
1503946020039,9, 3, -2, -3, 1, 1, -2, 2
1503946020062,-7, -3, 2, 0, 8, 2, -3, 3
1503946020077,15, -3, -1, 3, 6, 5, -3, -2
1503946020099,-2, -1, -2, -6, 1, -2, -1, 1
1503946020125,6, 1, -5, -3, 2, -2, 1, 2
1503946020137,-11, -4, -1, -2, -12, 1, 1, -5
1503946020159,-8, -4, -2, -5, 1, -1, -1, 16
1503946020181,-3, 1, -5, -5, -8, -1, -1, -3
1503946020197,5, -1, 1, 3, 3, -1, 1, -7
1503946020219,-4, 0, 4, 0, 5, 0, -6, -3
1503946020248,4, 5, 3, 3, -8, 1, -7, -2
1503946020259,9, 8, 1, -1, -6, 3, 0, 5
1503946020278,-18, -3, 0, -6, -3, -1, -4, 10
1503946020294,-1, -2, -4, -1, 5, 1, -5, -6
1503946020309,0, 5, 1, 0, 4, 1, -3, -10
1503946020332,6, 2, 2, 4, 0, 0, -2, -1
1503946020354,4, -2, -1, -9, -5, -11, -4, -3
1503946020369,9, -3, 0, -2, 3, 3, 1, 1
1503946020393,16, 0, -3, 1, -2, 0, -1, -5
1503946020414,-6, -2, 3, -1, 3, 0, 1, 21
1503946020429,-10, -7, -6, 2, 2, -3, -7, -9
1503946020460,-15, -5, -2, -3, -11, -3, -3, -17
1503946020474,-45, -7, 15, 9, 6, 0, 1, 5
1503946020489,-48, -6, 1, -5, -5, 3, 5, 5
1503946020512,29, 13, -3, -1, 0, 5, -4, -25
1503946020534,12, 1, -3, -2, 5, 2, -4, 6
1503946020549,2, -3, -7, -4, 2, 0, -10, -4
1503946020571,38, 4, -1, -1, 21, -5, 1, 4
1503946020594,-2, 0, 1, -1, -16, -2, 3, 9
1503946020609,-3, -2, 0, 2, -2, -26, -4, -13
1503946020632,-5, 0, 3, 2, 2, 7, 4, 11
1503946020654,5, 1, 0, -2, 3, 5, 2, 2
1503946020669,-5, -4, -2, 0, -4, 0, 3, 6
1503946020694,5, 1, -4, -1, -20, 3, -2, -10
1503946020714,-10, -3, -3, -4, 3, -3, -1, 11
1503946020729,-5, -12, -19, -9, -1, -4, -2, -6
1503946020751,14, 6, 1, -3, 0, 4, 5, 12
1503946020774,15, 0, 0, -3, -9, -6, 9, 26
1503946020789,-36, -1, 2, -1, 1, -1, -9, -26
1503946020812,1, 6, 7, 3, 4, 19, 2, 4
1503946020835,17, 3, 3, 1, 3, -1, -3, -2
1503946020849,15, 7, 5, 3, 3, 3, -3, -17
1503946020872,-16, -8, -7, -3, -4, -6, -5, -9
1503946020895,10, 3, -2, -2, 19, 6, -5, 8
1503946020909,1, 7, -5, -4, -2, -4, 1, -3
1503946020932,-7, 3, 7, 4, -2, -4, 2, -2
1503946020954,24, -7, -3, -2, -3, 16, 6, 21
1503946020970,-9, 1, 6, 5, 2, -3, -2, 2
1503946020992,-15, -2, -7, -6, -13, -5, -5, -8
1503946021014,3, 0, 9, 0, -5, -6, 2, 4
1503946021030,14, -3, -5, 0, 2, -4, 0, 7
1503946021051,-2, -4, -6, -2, 0, -6, -7, -25
1503946021074,18, -3, -9, 0, -1, 0, 1, -4
1503946021089,-9, -2, 7, 1, -5, -25, -2, -3
1503946021111,0, -4, -6, -1, -3, 0, -10, -1
1503946021134,-34, -2, 1, 1, 1, 4, 3, -6
1503946021149,20, -5, -8, -4, -12, 0, -1, -8
1503946021172,-13, 1, 2, 0, -1, 4, -2, -1
1503946021194,-7, 1, 0, -1, 9, 5, 4, 10
1503946021209,-14, -3, -1, -1, -6, 0, 0, -2
1503946021232,11, -1, -1, 0, 2, 0, -1, -13
1503946021254,-12, -1, -4, -4, 1, -2, 7, -2
1503946021269,-3, 7, 6, 0, -10, 1, 1, 3
1503946021292,-24, 3, 14, 4, 8, 13, -5, 1
1503946021314,-12, -10, -4, -6, 1, 0, -1, 2
1503946021337,14, 7, 8, 0, -1, -2, 0, 11
1503946021352,0, 5, 21, 9, 4, -4, -2, -9
1503946021375,16, -3, -14, 3, 1, -4, -3, -6
1503946021399,19, 0, -12, -9, -4, -2, 1, 1
1503946021411,-2, 14, 23, 14, 9, -1, 0, 5
1503946021434,-12, 7, -11, -5, -10, -2, -3, -9
1503946021457,-11, -15, -11, -11, -4, -5, -3, -7
1503946021472,0, 2, -6, 0, 5, -1, 1, 1
1503946021494,2, -9, -9, -3, -1, -14, 2, 1
1503946021517,8, 7, 2, -3, -4, 5, 1, 4
1503946021535,-3, -6, -3, -2, -10, -2, -2, 1
1503946021554,10, -1, 2, 6, 30, -8, 4, 6
1503946021576,0, -5, 3, -1, -2, 0, -1, 2
1503946021593,29, -7, -7, -1, 7, 21, 3, 69
1503946021614,-24, -22, -9, -5, -10, 6, 2, -23
1503946021638,4, -1, -5, -7, 10, -5, -4, -13
1503946021652,23, 5, 4, 4, -2, -4, -5, -3
1503946021668,-15, -6, 0, 1, -3, 5, -1, -3
1503946021682,36, 6, -4, -5, -6, 5, -1, 11
1503946021705,9, -8, -1, -2, 2, 13, 11, 18
1503946021727,2, 0, 1, -1, 35, 1, -2, -2
1503946021749,10, -3, -5, -3, 2, -6, 1, 7
1503946021757,-26, -2, 0, 1, -4, -15, -16, -31
1503946021772,-16, 1, 4, 2, -2, -6, 2, 22
1503946021794,-7, 6, 4, 0, -4, -7, -2, -28
1503946021817,9, 16, 6, 2, 1, 4, 9, 10
1503946021832,-14, 1, -9, -5, -1, 0, -6, -21
1503946021854,7, -4, -8, 0, -1, 8, 4, 7
1503946021877,-15, -3, -15, -9, -6, -3, 0, 8
1503946021892,35, 9, 3, 0, -2, 0, 0, 1
1503946021914,13, -2, 4, 2, 2, 0, -10, -2
1503946021937,-21, -13, 1, 2, -3, -2, 2, 0
1503946021952,-8, -16, -10, -7, -2, 2, 5, 2
1503946021989,-26, -9, -1, 1, 5, -8, -4, -11
1503946022005,-28, -3, -2, -3, -5, -11, -1, -17
1503946022027,-9, 13, 10, 5, 2, 2, -1, -22
1503946022049,37, -3, -12, -3, -2, -5, 6, 2
1503946022057,-5, -2, 1, 2, 3, 7, 3, 3
1503946022072,-12, -4, 11, 6, 6, 5, -4, -2
1503946022094,-7, 3, -2, 1, 1, 5, 3, 0
1503946022117,-32, -21, 1, -3, -5, 2, -6, -11
1503946022131,6, 8, 9, 4, 0, 11, -1, -3
1503946022154,-39, -3, 10, 7, 2, -7, 2, -3
1503946022180,-5, -8, -15, -6, 11, 4, 0, -3
1503946022191,15, 3, -5, 0, -5, -4, 0, 5
1503946022214,0, 12, -3, -3, -2, -2, 1, 15
1503946022242,-12, 26, 13, -1, -1, -5, -4, -8
1503946022259,-8, -1, -8, -3, -5, -1, 1, 2
1503946022278,-8, -6, 2, 1, 1, 20, 3, -6
1503946022297,22, -17, -19, -4, -3, -4, -3, -4
1503946022319,-15, -15, -8, -3, -2, -2, -5, -40
1503946022336,-1, 0, -3, 2, -4, -5, 0, 7
1503946022357,-5, 4, 0, -4, 1, -6, -4, -3
1503946022381,-54, -1, 2, 2, -2, 0, 4, 4
1503946022394,17, 18, 14, 0, 0, -1, 0, 2
1503946022417,34, 2, -2, -4, -3, 0, -1, 7
1503946022439,-6, -12, -7, -1, 0, -5, 0, 7
1503946022454,-1, 8, 6, 3, 2, -5, 0, 12
1503946022477,23, -9, -6, -1, -5, 3, -2, -5
1503946022499,-9, -1, -3, -3, -2, 0, 0, 3
1503946022508,22, 3, -2, -2, -2, -5, -1, 3
1503946022529,3, -2, -1, 2, -3, 1, 0, 3
1503946022545,6, -29, -10, -6, -4, -5, 0, 9
1503946022567,-28, -7, 3, 2, 1, 4, -3, 5
1503946022589,-10, 3, -1, 0, 0, -1, -3, -11
1503946022605,-2, 3, -2, -2, -3, -3, -2, 2
1503946022627,9, 2, -1, -2, -3, -1, -2, -2
1503946022650,4, -9, -9, -4, -5, -1, 6, -1
1503946022664,-15, 5, 6, -3, 0, -3, -3, -13
1503946022687,-7, 4, 0, -1, 0, 9, -5, -9
1503946022709,-24, -4, -2, -2, -1, -5, 0, -4
1503946022724,-21, -6, -4, 1, -3, -37, -4, -7
1503946022747,-16, -4, -1, -4, 3, 11, 0, 4
1503946022769,22, 10, 9, 7, 2, 4, 0, 0
1503946022785,10, 5, 0, 1, -2, 2, 2, 0
1503946022809,-8, -5, -5, -6, -5, 4, 4, 11
1503946022836,-12, -7, -6, -2, -1, 5, -1, 2
1503946022846,7, 0, -1, 0, 0, -13, -2, -3
1503946022867,12, 11, 4, -1, 0, 10, -2, 9
1503946022889,4, 7, 2, 0, -2, 0, -2, 2
1503946022905,4, -6, -5, 2, 0, -2, -2, 1
1503946022927,13, -6, -3, 2, 2, -1, -4, -8
1503946022949,9, 0, -3, -2, -1, 3, 0, -4
1503946022964,13, 0, 2, 1, 1, 2, 2, -2
1503946022987,-2, 4, 1, -2, 0, 5, 1, 2
1503946023012,-11, -5, 0, 1, -1, -2, -3, 6
1503946023025,-35, -3, 2, 4, 1, -3, -7, -17
1503946023047,16, 0, -8, -12, -9, 0, 8, 17
1503946023069,-1, -3, -6, -3, -3, -6, -4, -2
1503946023084,-2, 0, 2, 0, 0, -9, -5, -5
1503946023107,13, 1, -2, 0, 2, 1, -2, -12
1503946023129,-69, 8, 10, 6, 3, 3, -6, -14
1503946023151,3, -3, 5, 1, 2, 5, 0, 1
1503946023159,-6, -3, -7, -6, -1, 20, -3, -9
1503946023182,10, 0, 1, 1, 2, -6, 4, 8
1503946023196,9, 0, 2, 2, -1, -2, -4, -15
1503946023220,-8, -7, -5, 1, -2, -6, 0, -6
1503946023241,3, 2, 3, 1, 0, -5, 11, 5
1503946023257,2, 7, 2, -1, 0, -4, -5, -1
1503946023280,11, 0, -2, 1, -3, -13, -6, 1
1503946023302,-9, 5, 4, 9, 4, 2, 0, 0
1503946023317,-22, -8, -6, -11, -4, 11, 0, -4
1503946023339,9, 4, -2, 4, 9, 1, 3, -2
1503946023361,4, 0, 6, -3, -7, 1, 0, 0
1503946023369,6, -2, 1, 0, -1, -42, -1, 0
1503946023392,-37, -5, 5, 4, -1, 10, -3, -8
1503946023407,-42, -1, 2, 1, 20, 8, 1, 5
1503946023429,23, 0, 3, 3, 7, 5, 1, 3
1503946023452,21, 4, -3, -4, -7, 4, 0, 3
1503946023467,5, -14, 4, 1, 4, 7, 0, -7
1503946023491,28, 11, -6, -1, -1, 2, 0, -3
1503946023517,-3, -2, -5, 1, 1, -10, 2, -1
1503946023527,35, 7, -5, -3, -6, 4, -4, 3
1503946023550,0, -3, -3, -2, -2, 2, 1, 5
1503946023578,-7, 0, -7, -6, -1, -2, -1, -5
1503946023587,18, 3, 4, 4, -1, 3, -2, 0
1503946023609,-21, 3, 4, 8, 10, 2, -3, -5
1503946023631,-7, 1, -1, -4, -8, -2, -4, -5
1503946023651,8, -9, -10, -4, 1, 1, -1, 0
1503946023670,-6, -1, -6, -4, 12, 2, -1, 4
1503946023691,-27, 3, 5, 0, -3, -1, 0, -4
1503946023707,-8, 3, -2, 2, -1, -2, 0, 0
1503946023729,-9, 4, 5, 1, 5, 5, -2, -1
1503946023736,-7, -2, -2, 0, 0, 2, -1, -2
1503946023759,12, -2, -4, -2, -2, -2, -1, -5
1503946023782,-6, -1, -4, 2, -1, 1, 0, -1
1503946023796,19, 0, 2, -1, -9, -1, 2, -3
1503946023819,-14, -6, -7, -4, -2, -3, -1, -1
1503946023841,-26, -6, 4, -1, -3, -2, -3, -7
1503946023857,-17, -7, -13, -3, 0, -2, -3, 1
1503946023879,5, 2, -1, -1, 3, 1, -1, 1
1503946023901,-8, 0, 0, 1, 3, 0, 3, 4
1503946023933,-1, -6, -4, -2, -1, -1, -1, 0
1503946023947,-11, 2, 6, 3, 2, 1, -7, -7
1503946023969,-46, 0, -5, -2, 1, -2, 1, 1
1503946023992,2, 5, 1, -1, -3, -3, 0, 1
1503946024007,-4, -3, 4, -1, 0, -1, -5, -5
1503946024029,17, -6, -3, 0, 0, 0, 3, 1
1503946024052,8, 0, 3, 1, -2, -1, 1, 3
1503946024074,-14, 6, -2, 0, -1, 0, -1, 0
1503946024084,-42, -5, 2, -1, 0, 1, -1, -3
1503946024103,26, 7, 4, -3, -2, -2, -1, 1
1503946024126,15, 2, -2, -1, -2, -1, -1, 1
1503946024148,4, -3, -3, 0, 0, 0, -1, -2
1503946024164,-8, -3, -1, -1, -2, -1, 1, 0
1503946024179,-14, -1, 0, -2, -1, -2, -1, 0
1503946024201,-1, -2, -7, -2, -1, 1, 2, 1
1503946024223,-18, -6, 3, 0, 0, -2, -3, -4
1503946024239,40, 1, 5, 0, -4, -3, -3, -4
1503946024261,-4, -1, -3, 0, 1, 1, 1, -1
1503946024284,6, 6, 4, -2, 1, -1, -1, -1
1503946024299,-6, -1, -1, 1, -2, -2, 1, 0
1503946024322,3, 0, -5, -1, -3, 0, 0, -1
1503946024330,4, -3, 3, 2, 1, 0, 0, -1
1503946024354,-1, -5, -3, -3, -2, -2, -2, -3
1503946024374,-11, 2, -4, -2, -1, -1, 0, 1
1503946024389,4, -1, 0, -2, -1, -3, 0, -3
1503946024426,-11, -6, -1, 0, 1, 1, -2, -1
1503946024441,-15, -1, -3, 1, 2, 0, -1, -1
1503946024463,15, -3, -4, -2, -3, -1, -2, -1
1503946024471,4, 1, -1, -1, 0, -2, 1, 0
1503946024495,-13, -1, 1, -1, -1, -1, -1, -1
1503946024502,-2, 1, -6, 1, 1, 1, 1, 0
1503946024524,2, -6, -3, -3, -2, -3, -6, -4
1503946024539,-6, 3, 1, 0, 0, 0, 2, 1
1503946024562,7, 7, -3, -1, -1, 0, -1, 2
1503946024583,-17, -2, 1, 1, -2, 1, 1, 0
1503946024599,0, 0, -1, -2, 0, -2, -1, -2
1503946024622,3, -4, 2, -2, 0, -2, -1, -1
1503946024643,1, -4, -3, -2, -2, -2, 1, 0
1503946024659,7, -5, -3, -1, 0, 1, -3, -1
1503946024681,-5, -5, -6, 0, -1, -1, 0, 2
1503946024703,-2, 0, 0, -1, 0, -1, -1, 0
1503946024719,-6, 2, 1, -2, -3, -1, -2, -1
1503946024741,8, -1, -1, 0, -1, -1, -1, 1
1503946024766,-9, -4, -5, -1, -1, -3, -1, -3
1503946024779,-13, -4, -1, -2, 2, 0, 0, -3
1503946024802,4, 5, 2, 0, -2, -2, -1, -1
1503946024823,0, 1, -2, -2, 1, -1, -2, -2
1503946024831,28, 5, 7, 1, -2, -2, 0, 0
1503946024855,21, 2, 2, -3, -1, -1, 0, 2
1503946024862,10, 2, -1, -2, 0, -2, -2, 2
1503946024883,2, 3, -1, 0, 1, -1, -5, -2
1503946024899,0, -4, 1, -1, -1, 0, 0, -3
1503946024923,-5, -5, -2, 0, -2, -1, 1, -1
1503946024943,4, 0, 1, 0, 0, 1, 1, 3
1503946024959,8, 0, -2, -2, -2, 0, 2, 2
1503946024981,7, -1, -2, -1, -2, -1, 1, -1
1503946025003,-28, -6, -7, -2, -1, -2, -3, -2
1503946025026,-3, 6, 2, -1, -1, 0, -2, -2
1503946025041,15, 3, 2, 0, 1, -2, -2, -2
1503946025064,-4, -2, 1, 1, 0, 0, -3, -2
1503946025086,7, 0, -3, 0, -1, -1, 0, 0
1503946025101,-18, -2, 1, 1, 0, -2, -1, -4
1503946025125,3, -4, -3, -1, -1, 2, -2, 1
1503946025146,-21, -2, 1, -1, -3, -3, -1, -4
1503946025162,-24, 2, 2, 0, 1, -1, 2, 1
1503946025183,14, 1, 1, 1, -1, 0, 0, -1
1503946025206,10, 7, -2, -1, 0, 0, 0, -1
1503946025221,4, -4, 2, -3, -2, -1, -1, 0
1503946025243,1, 1, -4, -2, -1, -2, 0, -2
1503946025266,8, 2, -3, -2, -1, 0, -1, 0
1503946025282,6, -3, -6, -1, -1, 0, 0, 1
1503946025303,-3, -1, 0, 4, -2, -3, -1, 0
1503946025326,-8, -5, -1, 0, 0, -1, -1, 0
1503946025341,13, -6, -3, -2, -3, 0, 1, 0
1503946025363,-7, 0, 2, -2, 0, 0, -2, -3
1503946025386,7, -2, -2, -4, -2, -1, -2, 0
1503946025408,1, 7, 1, 2, 0, -1, 0, 0
1503946025439,-8, -4, 2, 0, 1, 0, -2, -2
1503946025446,9, -1, 2, -1, 0, 0, -2, -4
1503946025461,0, -1, -2, -3, -2, -2, -1, -4
1503946025483,-1, 0, 1, 0, 0, -1, 1, 4
1503946025506,-11, -1, 1, -1, -1, -2, 0, -3
1503946025522,-3, -4, -6, 0, -1, 0, -2, 0
1503946025543,20, 7, -2, -2, -2, 0, 0, 6
1503946025566,-7, -6, -7, -3, 0, -1, -1, -2
1503946025581,7, 0, 1, -2, -1, -2, 0, 1
1503946025603,-8, 0, 4, 0, 1, -1, -1, -4
1503946025626,7, 5, -4, -1, 0, -2, 0, -1
1503946025641,2, -2, 2, -1, -1, -1, -1, -1
1503946025663,-13, 1, 0, 2, -1, -1, -3, -2
1503946025686,2, -3, -4, -1, -2, 0, 0, -1
1503946025701,15, -1, 2, 1, 0, -1, -2, -3
1503946025723,3, -2, 1, 0, 1, -2, 1, 0
1503946025732,-9, -5, -1, -3, -1, 0, 1, -1
1503946025754,-19, -6, -3, -1, -2, -2, 0, 0
1503946025777,0, 1, 2, 1, 0, -1, -1, -6
1503946025791,-8, -8, -3, -2, -1, 3, -1, -3
1503946025814,-1, 2, 3, -1, -2, 0, 0, 4
1503946025837,12, -1, -2, 1, 0, -2, 1, 2
1503946025851,-4, 4, 1, -1, 1, -1, -2, 1
1503946025874,-9, 0, 2, -1, -2, -1, -3, -6
1503946025897,4, -2, -1, 1, -2, -1, -2, 1
1503946025911,-5, -5, -4, -3, -4, -1, 0, 5
1503946025934,-25, -6, -4, -2, -1, -1, 0, -2
1503946025956,11, 4, -4, -3, -1, 0, 1, 0
1503946025979,9, 0, 1, 2, 1, 0, -2, 1
1503946025999,20, 3, -1, -1, -1, -2, 0, -2
1503946026017,0, 1, 0, 1, 1, 0, -3, -2
1503946026040,-1, 6, 7, 2, 0, -1, 0, 0
1503946026054,-9, -8, -6, -1, -1, -1, -2, -2
1503946026076,-15, -1, -1, -1, 0, 1, 1, 1
1503946026099,9, 4, 4, -1, -2, 0, -1, -3
1503946026114,9, -1, -3, -2, -2, -1, -2, -2
1503946026138,-29, -5, -2, 0, 0, -1, 0, 0
1503946026159,5, -4, -1, -1, -1, -3, 0, 0
1503946026175,19, 5, 1, 2, 0, -1, -2, 3
1503946026197,11, 1, -1, 0, -2, -1, -3, 2
1503946026219,9, 0, -2, -2, -1, 0, 0, -1
1503946026235,-17, -4, 1, 0, 0, 2, 2, 0
1503946026257,-1, -3, -6, -2, -1, -2, -1, 1
1503946026279,1, -1, -5, -3, -3, -3, -1, -1
1503946026294,-18, -6, 1, 0, 0, 2, 1, -3
1503946026316,16, 4, 0, -1, 0, -2, -2, 0
1503946026340,11, 5, -1, -1, -1, 0, 0, -1
1503946026359,-2, -1, -1, -2, -1, -2, -3, 1
1503946026376,-17, -2, -1, -1, -1, -1, 1, -2
1503946026401,19, -1, 1, 0, 1, 0, -5, -1
1503946026414,-9, -7, 0, 1, -1, 0, 2, -3
1503946026438,6, 2, 4, -2, 2, -3, 0, 1
1503946026459,10, 3, 0, 0, -3, 0, -2, 0
1503946026474,7, 3, -2, -2, -1, -1, 0, 0
1503946026496,-15, 0, 4, 1, -1, -2, -1, -1
1503946026519,-10, -1, -5, 0, 0, 2, 1, -1
1503946026539,5, -2, -2, -1, -1, -2, -4, -1
1503946026556,-12, -6, -1, 1, 0, 1, 0, -2
1503946026579,-4, -4, -6, -1, 0, -2, -1, -2
1503946026594,-12, 3, 1, -1, 1, 2, -2, -1
1503946026616,3, -2, -1, 0, -3, -3, -1, 0
1503946026639,-3, 4, -1, -1, -1, 0, 0, 2
1503946026654,-2, -2, -6, -1, -1, 0, -2, 0
1503946026677,1, -7, -4, -1, -3, 0, -1, -3
1503946026699,1, -1, 0, -2, 0, -4, -2, -3
1503946026715,2, 0, 2, 0, -1, 1, 0, -1
1503946026737,16, 3, 3, -1, -1, -1, 0, -2
1503946026759,-12, -5, -4, -2, -1, -4, -1, 1
1503946026774,-3, -2, -3, 1, -2, 0, 0, -2
1503946026796,18, -1, -1, -2, -3, 2, -2, -5
1503946026819,-2, 3, -1, -3, 2, -2, 1, 1
1503946026839,1, -1, -3, -2, -1, 0, -2, 1
1503946026856,2, -3, -4, 0, -1, 1, -1, 0
1503946026879,21, 1, -1, -2, 0, -2, 0, 0
1503946026908,-13, -3, 3, 0, -1, 0, -4, -1
1503946026916,-27, -3, -4, 0, -1, -2, -2, -3
1503946026941,-6, 3, 4, 0, -1, 1, -2, 0
1503946026961,-2, 3, -1, 0, 0, 1, 1, -1
1503946026977,12, 1, -7, -3, -3, -3, 1, 0
1503946026999,3, -3, 1, 0, -1, 0, 1, 5
1503946027021,-10, -2, 0, 0, 1, 0, 0, 1
1503946027038,10, -2, -2, 0, -1, 0, -4, -4
1503946027059,-10, -4, 0, -1, -1, -1, -2, -4
1503946027081,10, -4, -2, -1, 2, 0, 1, 1
1503946027096,15, 1, 2, 1, -2, -1, 3, -2
1503946027119,-24, -2, -2, 1, -1, 1, -2, -1
1503946027148,-3, -2, -3, -3, -1, -1, -2, -2
1503946027156,-8, 1, 1, -1, -2, -1, -1, -1
1503946027179,1, 2, -2, 1, -2, -3, 0, 0
1503946027201,-7, 3, 2, 0, -1, 0, 0, -2
1503946027216,-9, 1, -2, 0, 1, -1, -2, -2
1503946027239,-2, -1, 0, 0, -1, 0, 0, -2
1503946027261,17, -2, -3, -1, -1, -1, -1, -2
1503946027277,-14, 2, 6, 1, -2, 0, -2, 0
1503946027299,-7, -6, -4, -2, -1, 0, -1, 0
1503946027321,5, -3, -4, -2, 0, -2, -1, -2
1503946027337,4, 6, 1, -1, -1, -1, -1, 2
1503946027359,-22, 4, -2, -1, -1, -1, -2, -2
1503946027381,1, -2, 0, -2, 0, -1, 1, 0
1503946027397,9, -1, -2, -1, 0, 0, -2, -1
1503946027419,1, -5, 4, 1, 0, -1, -1, -2
1503946027442,-2, -3, -2, -1, -2, -2, -2, -3
1503946027456,-32, -2, 4, 1, -4, -1, 0, -2
1503946027479,4, -1, -3, -1, -1, 1, 0, 0
1503946027501,5, -1, -3, -2, -1, 1, -2, 0
1503946027517,4, -1, -2, 0, 9, -1, 0, -1
1503946027541,1, -3, 2, 0, -1, 1, 1, -1
1503946027561,15, 1, -4, -3, 0, -3, -1, 0
1503946027577,-1, -1, -3, -2, 0, -3, -1, 0
1503946027599,2, -1, 4, 2, 12, -1, 0, -3
1503946027621,5, 0, 3, 3, -10, 3, 2, 0
1503946027636,-1, 2, 2, 1, -2, -1, 0, -2
1503946027659,0, -3, -4, -9, 1, -8, -6, 0
1503946027682,-2, -2, -5, -6, -8, -2, 0, -2
1503946027696,-27, -4, 0, -1, -7, 2, -1, -2
1503946027719,-8, -2, 1, 0, -3, -1, 0, 3
1503946027743,-3, -2, -2, 2, 18, -2, -1, 1
1503946027757,14, 3, 1, 1, -8, 3, 1, -6
1503946027779,9, 1, -3, -3, -27, -1, -1, -5
1503946027801,-28, -3, -3, -2, 3, -1, -4, 0
1503946027824,13, -4, 0, 3, 4, -1, -4, 0
1503946027839,13, 2, -4, -1, 0, -1, 0, 2
1503946027861,8, 0, 1, -1, -1, 1, 0, 3
1503946027885,5, 6, -2, 3, 15, -2, -2, 1
1503946027899,-9, -1, -3, -1, 0, -2, 1, -2
1503946027921,-17, -3, -1, -1, -3, 1, 2, -3
1503946027951,13, 4, -3, -2, -4, -1, -2, 0
1503946027960,4, 1, 2, 2, 0, 2, 1, 0
1503946027983,6, -5, -4, -4, -3, -1, -3, -4
1503946028004,-2, -4, 0, -3, 9, -1, -3, -2
1503946028020,3, -3, -4, -1, -3, -4, 0, 0
1503946028041,27, 5, 1, -3, -17, -1, -1, -2
1503946028064,-12, -4, 0, -2, 3, -1, -2, -1
1503946028079,-5, -5, -2, 0, 2, -1, 1, 3
1503946028101,-8, 1, 2, -3, 9, 1, 0, -1
1503946028124,-11, -1, 5, 1, -6, -3, 1, -5
1503946028139,7, 10, 2, -1, -4, -1, 2, 7
1503946028161,12, 7, 6, 2, -3, -1, 2, 0
1503946028184,-21, -10, -5, -2, 1, 2, -2, -3
1503946028200,0, -5, -4, 1, -6, 11, 1, 1
1503946028222,-4, 0, 0, -2, 0, 3, -3, -3
1503946028244,-4, -5, -6, -11, -22, -4, -2, -1
1503946028259,3, -1, 0, 0, 14, -3, -1, 2
1503946028281,-3, 2, 10, -1, -2, -4, 2, 0
1503946028304,27, 8, -11, -6, -4, -5, -6, -18
1503946028320,-9, -5, -2, 2, 1, 1, 4, 5
1503946028341,-2, -3, -2, 3, 11, 3, -1, 2
1503946028364,4, -1, 2, 2, -1, -3, -1, 1
1503946028381,-5, -6, -2, 2, -1, 0, -1, 0
1503946028401,-10, -9, -8, -3, -4, -4, -6, -5
1503946028424,8, 8, 2, 1, -3, -2, -3, 0
1503946028439,4, -3, -3, -1, 3, 8, 1, 14
1503946028461,3, -3, -11, -4, -3, -5, 1, 7
1503946028485,-17, -7, -1, -2, 2, 4, -7, -11
1503946028499,-32, -8, 1, 4, -3, -2, 2, -1
1503946028522,5, 14, 10, -2, -2, -5, -2, -10
1503946028544,-47, -20, -8, -3, 1, -7, -7, -15
1503946028559,25, 7, -5, 1, 10, -2, 3, 5
1503946028583,16, -4, 1, -1, 0, 1, 0, -4
1503946028604,-2, -2, 13, 3, -4, 0, 1, 8
1503946028620,13, 4, -4, -1, -3, -1, 0, 3
1503946028641,-2, 2, 1, 0, -2, -3, -1, 14
1503946028664,10, 3, 2, 4, -1, 2, 1, 5
1503946028679,-9, -6, -4, -4, -9, -2, -4, -16
1503946028701,-17, -1, 1, -1, -12, -3, 3, 0
1503946028724,14, 2, -4, -3, 1, 1, 2, -6
1503946028745,-2, -3, -2, -3, -3, 12, -4, 4
1503946028754,17, 2, 0, 4, 8, -1, 2, 3
1503946028776,-11, -5, -4, -5, -1, 3, 1, -23
1503946028792,-40, -10, -3, -2, 0, -1, -6, -8
1503946028814,1, -1, -1, 1, 4, 0, -2, -55
1503946028836,9, 2, 0, -3, -10, -4, -6, 8
1503946028852,7, 0, 1, -1, -4, 16, 5, 0
1503946028874,16, 0, -4, -1, 4, -13, -4, 6
1503946028897,6, 10, 6, 2, 2, 0, 2, 9
1503946028912,-1, -4, -3, -3, 6, 0, 2, 12
1503946028934,18, 6, 13, 6, 11, 0, 8, 0
1503946028958,9, -2, -6, -7, -27, 7, -2, -7
1503946028972,-2, -1, -3, -1, 6, -5, -4, -2
1503946028994,5, -7, 4, 3, 0, 2, 1, 14
1503946029017,-1, 2, -1, 2, -4, -3, -1, 14
1503946029027,-11, -2, -3, -3, 0, -1, -2, -17
1503946029045,-3, 0, -2, 1, -11, 0, -1, -1
1503946029061,18, 1, 3, 0, 36, -6, -1, -6
1503946029086,-3, -1, -1, 2, 2, -2, -1, -6
1503946029105,-21, -4, 4, 2, -5, 5, 0, 2
1503946029122,24, -6, -3, 0, 4, 0, -6, 6
1503946029144,2, 4, 0, -2, -3, 2, 3, 25
1503946029166,-12, 0, 1, 0, 1, 16, 0, -17
1503946029181,12, -5, -4, -2, -1, -24, -3, 6
1503946029204,17, 2, -2, -2, -4, 5, 0, 1
1503946029226,-13, 1, -3, -5, -12, -8, 0, 2
1503946029248,0, 0, 2, 1, -1, 4, 1, 0
1503946029270,-18, -2, -2, -1, -4, 1, -2, 1
1503946029272,-5, -6, -7, -3, 17, -1, 7, -10
1503946029294,-12, -3, -5, -2, -5, -35, -8, 2
1503946029316,-22, -7, -2, -3, -11, 4, 2, 3
1503946029332,10, 2, -3, 0, -2, 2, 1, -2
1503946029354,-1, 0, -3, -3, -9, -4, 2, 7
1503946029376,-50, -7, -2, -2, 22, 19, -3, -3
1503946029392,18, 3, 2, 0, -3, 4, -3, -5
1503946029414,15, -1, -3, 0, -6, 3, -2, -3
1503946029436,3, -4, -4, -2, -5, -5, 0, 2
1503946029452,19, 12, 8, 5, 6, 27, -4, 4
1503946029474,-27, -7, -8, -9, -22, -18, -1, -2
1503946029498,1, -12, -6, -1, -3, -4, 11, -11
1503946029512,22, 12, 7, 5, 3, -2, -5, -6
1503946029534,7, -2, -4, 2, 0, -7, -3, 7
1503946029557,-4, -2, -1, -3, 0, 6, 4, 5
1503946029572,-1, 1, -1, -1, -1, -11, -4, -9
1503946029594,-22, -6, -5, -2, -3, 8, -3, -5
1503946029616,-4, -5, 2, 0, 1, 1, 1, 4
1503946029632,18, 0, -3, 1, 3, -2, -2, -2
1503946029654,-9, -5, -1, -3, 1, -5, -4, -7
1503946029676,-14, 3, -1, -1, -4, -3, -3, 0
1503946029699,4, -2, 0, -3, -6, -1, -1, 4
1503946029714,9, 3, -6, -5, -24, -37, -7, -8
1503946029736,2, 3, 3, 5, 3, 16, 4, 5
1503946029759,1, 0, 0, 0, 4, 5, 3, 1
1503946029774,4, 3, 3, 0, 8, -1, 1, 0
1503946029797,4, 0, 1, 2, 4, 1, -3, 1
1503946029819,-3, -3, -3, -3, -19, 1, -2, -3
1503946029834,-4, -1, -2, -3, -2, 0, 0, 2
1503946029859,4, -1, -6, -5, 1, 3, 0, -1
1503946029879,42, 3, 2, 1, 11, 5, -1, 2
1503946029894,-1, -2, -4, 1, 4, 12, 1, 0
1503946029916,1, 6, 6, 0, -1, -2, 0, 3
1503946029939,-35, -11, -6, -4, -3, -1, -5, -8
1503946029954,-11, -2, -2, 3, 10, 12, -3, -4
1503946029976,-70, -9, 5, 0, -3, -4, 3, -4
1503946029999,30, 9, -5, -4, -4, -7, -6, -3
1503946030014,2, 12, 10, 3, -1, -5, 0, -6
1503946030036,-16, -9, -7, -6, -2, -2, -2, -15
1503946030043,-2, 3, 5, 5, 4, 5, -2, 0
1503946030063,20, -4, -5, -4, -2, -3, 2, 9
1503946030074,-22, 4, -5, -3, -1, 2, 4, 11
1503946030098,-21, -5, -3, 0, -2, 0, 0, 3
1503946030119,-2, -6, 1, 4, -1, -9, -3, -12
1503946030135,10, -7, 1, -2, 12, 11, -1, -9
1503946030156,28, -2, -12, -1, -3, -8, 0, 0
1503946030179,8, 14, 4, -2, -3, -3, 0, 4
1503946030194,-18, -4, 4, 4, 2, 3, -2, -11
1503946030216,-6, -5, -3, -3, -4, -26, 1, 4
1503946030239,1, 0, 8, 4, -1, 16, 0, 5
1503946030254,-28, -4, 2, 0, -1, -1, 0, 12
1503946030283,3, -6, -12, -4, -4, 0, -1, 0
1503946030299,1, 1, 3, -1, -1, 0, -2, 4
1503946030314,5, -11, -8, -2, -2, 4, -1, -6
1503946030336,9, 3, -3, -5, -5, -40, -4, 2
1503946030361,6, 3, -2, -1, 0, 12, 0, -5
1503946030374,1, -3, 1, 1, -1, 6, -3, -4
1503946030397,-11, 0, 2, 1, 2, 5, 2, 1
1503946030419,8, 1, -4, -4, -2, 3, 0, -7
1503946030429,9, -2, -1, -4, -8, -4, 2, 6
1503946030448,-9, -12, -3, -1, 1, 1, -2, -2
1503946030464,-8, 2, 4, -1, 3, 1, 0, -1
1503946030486,3, -4, -1, 1, 1, -2, 3, 1
1503946030508,-3, 1, 1, 1, 1, 2, -1, 6
1503946030546,-41, -18, -7, -1, 0, -1, -1, -4
1503946030554,8, -2, 0, -5, 6, 8, 3, -1
1503946030576,-7, 0, -2, 1, -9, -3, -3, -5
1503946030599,-20, -7, -5, -1, -6, -7, 0, 0
1503946030621,9, 3, 1, -2, -1, -2, -1, -1
1503946030637,25, 0, -3, -2, 0, -1, 1, 4
1503946030659,27, 3, 1, 3, 11, -1, -1, 7
1503946030681,-9, 3, -1, -3, -5, -10, 0, -1
1503946030697,0, -1, -5, 0, 2, 3, -3, -6
1503946030719,-5, 4, 1, -2, -3, -1, -6, -6
1503946030741,12, 4, 3, 2, -2, -1, 0, -3
1503946030757,48, 10, 0, -5, -1, -3, -1, 7
1503946030779,-25, 0, 0, 0, -2, -2, -5, -10
1503946030801,-5, -4, 0, -3, -18, 12, -1, 0
1503946030816,-11, -6, -6, -1, -5, -3, 0, -3
1503946030839,1, 0, -1, -1, 1, -3, 0, 2
1503946030864,-26, -10, -6, -3, 1, -6, -2, -10
1503946030877,7, 0, 4, 0, 3, 5, 3, 6
1503946030900,-10, -11, -10, -6, 1, -2, 4, 12
1503946030921,-6, -5, -2, 1, 0, -4, -3, -5
1503946030932,-6, 7, 13, 7, 2, -2, -8, -9
1503946030950,5, 12, 6, 0, -2, -2, -2, -3
1503946030966,1, 1, 2, 1, 2, 1, 1, 21
1503946030988,1, -12, -10, -4, -3, 0, -2, -2
1503946031011,1, -10, -14, -10, -7, 1, 5, 8
1503946031026,-20, -9, -3, -2, 0, -3, 2, -7
1503946031048,-2, -9, -4, -3, -2, -1, 0, 8
1503946031071,-4, -1, -8, -9, -5, 3, -2, -1
1503946031086,3, -1, -1, 4, 3, 22, -1, -5
1503946031108,7, 6, 3, 0, -2, 2, 2, 2
1503946031130,-4, -4, -5, -4, -2, -5, -2, -12
1503946031146,-5, 8, 6, 3, 1, 6, 1, 3
1503946031168,-7, -4, -15, -4, -3, -11, -4, -2
1503946031190,-5, -8, -7, -2, -3, -8, -7, -18
1503946031206,-2, 7, 8, 4, 2, -8, -1, -17
1503946031228,7, 6, 7, 3, 0, -1, -2, -3
1503946031250,-4, -1, -1, -3, -2, -12, -1, -2
1503946031268,0, -2, 2, -1, -2, 3, 1, 6
1503946031288,4, 3, 4, 2, 4, 2, -1, 4
1503946031310,5, -2, -5, -12, 12, 3, -1, 4
1503946031326,-8, -8, -3, -5, -9, 1, 5, 7
1503946031348,-8, -11, -4, 2, 6, 1, 0, 2
1503946031371,-2, 5, 5, 2, 3, -4, -3, -7
1503946031386,3, 3, -8, -8, -14, 1, 1, 2
1503946031408,40, 6, -5, 2, 1, -1, -1, 0
1503946031430,-3, -18, -8, 2, -4, 0, -1, 1
1503946031454,-11, 7, 6, 4, -2, 23, 0, 2
1503946031475,17, 7, 1, -1, -12, -3, -3, 1
1503946031492,-11, -4, -6, -4, 3, -4, 1, -3
1503946031514,-8, 13, 11, 4, 2, -6, -2, -1
1503946031537,-41, 5, 11, 5, 2, -6, -1, -9
1503946031552,12, -9, -7, 4, 7, -3, 2, 11
1503946031575,23, 4, 1, -7, -8, -2, -1, 1
1503946031598,11, -6, -8, -6, -2, 11, 0, -6
1503946031612,-58, 0, 3, -3, -1, -4, -2, -2
1503946031619,-24, -15, 4, -1, -9, -1, -1, -4
1503946031641,36, 9, 1, 12, 8, -3, -3, 1
1503946031664,-45, -36, -9, -8, -4, -1, -1, -4
1503946031679,-7, 1, 1, -1, 4, 3, -1, -4
1503946031701,-23, 5, 1, 0, 0, -1, 2, 3
1503946031723,5, -16, -28, -7, -3, -2, -6, -7
1503946031732,-16, -6, -9, -4, -1, -3, 0, 3
1503946031754,-9, -1, -12, -7, -1, 0, -1, -2
1503946031780,6, -1, -3, 1, 1, -3, -5, -13
1503946031799,1, 4, -10, -2, -3, -3, -2, 5
1503946031815,-7, -2, -12, 1, -2, -1, 0, 4
1503946031839,6, 3, 12, 2, 0, -1, 0, 2
1503946031852,5, -4, -6, -6, -3, -3, -1, 2
1503946031859,7, 1, -6, 0, 0, 0, -1, 0
1503946031881,-29, -14, -10, -5, -2, -2, -2, -1
1503946031906,-5, -22, -3, -3, -3, -2, 1, 1
1503946031919,2, 4, -11, -3, 0, 0, 1, -3
1503946031941,6, 1, -6, -5, -3, -2, -3, -1
1503946031964,-2, 1, -1, -1, -1, 1, -3, -1
1503946031979,36, -1, -5, -3, 1, -2, -3, 1
1503946032001,-17, 2, 4, 5, 0, 1, 3, 4
1503946032024,-12, -1, -3, -3, -2, -1, 0, -2
1503946032040,-9, -1, 3, 0, 0, 0, -2, -1
1503946032061,72, 21, 0, -7, -5, -5, -3, 0
1503946032084,1, 0, 8, -3, -2, -2, -3, -4
1503946032099,-20, -8, -4, -2, 0, 0, 1, 3
1503946032121,-18, 1, 0, 1, 1, 2, 0, -1
1503946032144,7, -7, 7, 2, -2, 0, -5, -7
1503946032152,12, 9, -1, -3, 0, 2, 1, -3
1503946032176,3, -4, -2, -2, -4, -2, 2, 1
1503946032189,3, -1, -9, -3, -1, 1, 0, 1
1503946032212,-3, -5, -4, 1, -1, 0, -1, 1
1503946032234,1, 3, -4, -5, 0, 0, -4, -3
1503946032250,-3, -3, 3, -1, -2, -3, -1, -1
1503946032272,4, 0, 2, 2, 0, -2, -3, -4
1503946032294,-30, 0, 6, 1, 1, -2, 0, 4
1503946032311,-1, 0, 0, 0, -2, 0, 1, -2
1503946032332,14, 7, 2, -1, 0, 0, -1, -1
1503946032358,5, -5, -8, 1, -2, 2, 2, 5
1503946032376,6, -3, 1, 0, 1, -2, -1, -4
1503946032392,5, 0, -4, -2, -2, -1, -2, -3
1503946032415,-8, -8, 0, -1, 1, 2, 0, 3
1503946032429,-14, -2, 3, 4, 1, -1, -2, -3
1503946032452,9, 3, 3, -2, -1, 0, 0, -1
1503946032478,-2, -9, -1, -3, 0, -1, -1, -2
1503946032496,-8, -1, -5, -1, 0, -1, 2, -1
1503946032512,12, 0, -3, -1, -1, -3, 0, -1
1503946032534,-2, -5, -4, -1, 0, 0, -1, -3
1503946032557,10, 7, 2, 1, -1, 1, -4, 0
1503946032572,-5, -6, -1, -2, -3, -2, -2, -2
1503946032594,-12, -7, 4, -1, -2, -2, -4, -2
1503946032617,-18, -2, -5, -2, -1, 1, 0, 0
1503946032632,-1, -1, -4, -1, 0, -1, 1, 3
1503946032654,9, 5, 3, 1, -1, 0, -1, -1
1503946032679,4, -2, 1, 0, 0, -1, 0, -1
1503946032692,-29, -6, 0, -3, -1, 0, 0, -1
1503946032715,9, 1, -1, -2, -1, -1, 1, 0
1503946032736,4, 0, 2, 2, -1, -3, -1, -3
1503946032754,4, 3, 3, 2, 0, 0, -1, -1
1503946032774,-8, -7, -5, -2, -1, -1, -1, 0
1503946032782,-11, -3, -6, -1, -1, -1, -1, 0
1503946032804,0, 0, 0, -3, -2, 0, 2, 0
1503946032826,0, 0, -2, 0, -2, -2, -4, -4
1503946032841,12, 0, -1, -2, -1, -2, -2, -2
1503946032863,6, 1, -6, 0, 0, 1, 1, 0
1503946032887,6, -2, 2, -1, 0, -2, 0, 2
1503946032901,-15, -6, -4, 0, -1, 0, 0, -1
1503946032924,7, -3, -2, 0, -1, -1, 0, -1
1503946032946,-7, 2, -1, -1, -2, 0, -2, -1
1503946032961,9, 1, 0, 0, 0, 1, -3, -4
1503946032985,5, 0, -3, -2, -1, -1, -2, 0
1503946033006,7, 2, 8, 0, 0, -2, -1, -2
1503946033021,-8, 2, -3, -4, -2, -1, 0, 1
1503946033046,-8, -4, -2, -1, 0, -1, -3, -2
1503946033066,-11, -4, -1, 0, -2, 2, 0, 1
1503946033097,-17, -5, -4, 0, -2, 0, -1, -2
1503946033112,-3, -2, -4, -2, 0, -1, 0, 0
1503946033134,0, 1, 1, -2, 1, 0, -2, -3
1503946033156,-4, 4, -6, -2, -1, 0, 0, -2
1503946033172,2, -4, -2, 0, 0, -1, -2, -3
1503946033194,26, 10, 1, 1, -2, 0, 2, 3
1503946033217,-8, 1, 6, 3, 2, 1, -1, -1
1503946033232,-12, -5, -1, -1, 0, -2, -2, -3
1503946033255,-13, -4, -1, -2, -3, 1, -1, 1
1503946033276,8, 0, -3, -3, -3, -3, 0, -1
1503946033292,-3, 1, -5, -2, -1, 0, -1, 0
1503946033314,-2, 9, 3, 0, -1, -1, 1, 2
1503946033336,10, -2, 0, 0, 1, -1, -4, -2
1503946033344,-16, -5, 0, -3, 0, -1, -2, -1
1503946033366,32, 0, -5, -5, -3, -3, -4, -5
1503946033381,-4, -1, 2, 1, 0, -1, 0, -1
1503946033403,6, 6, 0, 1, -1, 0, 0, 0
1503946033419,-8, -2, -1, 3, 1, 1, -1, -2
1503946033434,9, -1, -2, -2, -4, -1, 0, -1
1503946033456,4, 2, 4, 0, 2, -3, -1, -3
1503946033478,17, 12, 2, 2, 1, -1, -2, -10
1503946033494,1, -1, -4, -3, -1, 1, -2, 2
1503946033516,-3, 2, 4, 1, -1, 0, -2, 0
1503946033538,1, 2, -5, -2, -4, -1, 0, -2
1503946033554,-4, -6, -2, 1, -1, -1, 0, -2
1503946033577,-5, -8, 0, -1, 1, 0, 3, 0
1503946033599,-3, -8, -2, -2, 0, -3, -1, 1
1503946033615,2, 3, 1, 1, 1, -1, 0, 1
1503946033636,-21, 6, 0, -3, -1, -1, -3, -1
1503946033659,11, 1, -6, -3, -2, -2, -2, -9
1503946033674,-35, -12, -8, -2, -3, -1, 0, 1
1503946033696,1, -6, -1, -1, -1, -3, 2, 4
1503946033719,4, 14, 5, 2, -1, -1, -4, -3
1503946033734,0, -4, 0, 0, -1, -1, 0, 1
1503946033757,5, -4, -4, -1, -1, 0, -2, 1
1503946033778,12, 10, 3, -1, -1, 1, -1, 0
1503946033794,-20, -6, 1, -3, 0, -2, 2, -3
1503946033817,10, -1, 2, 1, -1, -1, -1, 3
1503946033839,0, -5, -2, -3, -1, -2, -1, 0
1503946033854,-44, -10, -3, 1, 0, -2, 0, -1
1503946033877,12, -5, -4, -3, -1, 0, -3, 0
1503946033898,19, 6, 5, -1, -1, 0, 0, -2
1503946033914,9, -2, -3, -1, -1, -2, -2, -2
1503946033943,2, 3, -1, -2, 1, 1, -1, -3
1503946033959,4, 8, 1, -2, 0, -3, -1, 2
1503946033974,4, -4, 1, -2, 2, -1, 0, -2
1503946033997,-3, -8, -3, 1, -1, 0, 0, -1
1503946034019,4, 7, -3, 1, -2, 0, 1, 0
1503946034034,-36, -5, 3, -2, -2, 0, -1, -3
1503946034057,-15, 1, -1, 0, -1, 0, -1, -3
1503946034078,4, -8, -4, -3, -1, -3, 0, 3
1503946034094,8, -6, -3, 0, -3, -1, -2, -3
1503946034124,-1, 1, -1, 2, 1, -1, 1, -1
1503946034146,16, -1, -1, -2, -2, -1, -5, -4
1503946034168,-3, -4, -1, 0, -3, 0, 0, -2
1503946034185,4, 6, -4, -1, 1, 0, 0, -1
1503946034206,6, -1, -3, 0, -1, -1, 0, -1
1503946034228,3, -1, 4, 0, 2, 0, -4, -4
1503946034236,3, 4, -1, 0, -1, -3, -2, 0
1503946034259,10, 0, 1, -1, 0, -1, 1, 4
1503946034274,11, 7, -2, 0, -3, -1, -1, 2
1503946034297,-6, -5, -2, -2, -1, 0, -2, -2
1503946034319,13, -3, 1, -1, -3, -2, -1, -3
1503946034341,-2, -1, 4, -4, -2, 0, -2, -3
1503946034370,1, -1, -1, 1, 0, 0, -1, 4
1503946034386,-1, 0, -2, 0, -1, 0, -1, -1
1503946034408,25, 5, -6, -3, -3, -2, -3, -2
1503946034430,-14, -8, -1, -3, 0, -2, 1, 1
1503946034446,-6, -3, 6, 3, 1, 0, -1, -2
1503946034468,5, 2, 1, -1, -1, 2, 1, 0
1503946034490,5, 2, -4, 0, -1, -1, 1, -2
1503946034506,-20, -6, 4, -2, 11, 0, -2, -1
1503946034529,-34, -2, 0, -2, -6, -1, 2, -4
1503946034550,10, 0, -1, -1, -1, -1, 0, 1
1503946034566,13, 2, -3, -3, -1, 1, 1, 2
1503946034589,-10, -6, -2, 0, -3, -2, -2, 1
1503946034597,-22, 7, 0, -1, -2, 0, 0, 0
1503946034620,23, 4, -3, 0, -1, -1, -1, -2
1503946034641,-2, 1, 0, -4, -11, -1, -1, 2
1503946034657,1, -6, 0, -1, -2, 0, -1, -7
1503946034678,8, -5, -5, 0, 2, -1, 0, 3
1503946034701,1, 5, -2, -2, 3, -2, -2, 0
1503946034716,-3, -2, 1, -1, 1, 1, 0, -3
1503946034738,-3, -1, 1, 1, 2, -1, -1, 0
1503946034761,-8, -3, -2, -2, -2, -2, -1, 1
1503946034777,0, -2, -2, -1, -3, -1, -3, -3
1503946034799,0, -6, -3, 0, 3, -1, 1, -1
1503946034826,5, 1, 0, -2, 0, 1, 0, 0
1503946034837,-3, -2, 0, -1, -1, -1, 0, -1
1503946034861,-4, -2, 0, -2, 0, -1, 0, -2
1503946034881,1, -4, -4, 1, 1, -2, -3, -1
1503946034897,8, 2, -1, -2, 1, -4, 0, -1
1503946034918,15, 6, 1, 1, -2, -1, 0, 1
1503946034941,4, 3, -1, -2, -3, -1, -3, -2
1503946034960,-11, -5, -1, -4, -15, 1, -2, -1
1503946034978,-7, 1, 10, 2, 1, 1, -4, 0
1503946035001,-6, 1, 0, -1, 2, -1, -1, 2
1503946035016,-17, -4, -5, 0, 3, -3, -2, -3
1503946035039,-7, -6, -5, 0, 4, 1, 1, -1
1503946035061,6, 2, 5, -1, 1, 0, 0, 1
1503946035076,-1, 0, -3, -2, 4, -1, 1, -4
1503946035099,2, -1, -1, 0, -5, -1, 1, 1
1503946035122,0, -6, -1, 0, 4, -1, -1, -4
1503946035136,3, 4, 3, 1, -5, -4, 0, 2
1503946035159,-9, 1, -1, 2, 0, 0, -2, 7
1503946035181,4, -1, -1, 0, 8, 0, 2, 3
1503946035197,6, -3, -2, -2, 0, -1, -3, -2
1503946035219,7, -2, -4, -1, 0, 3, 2, -3
1503946035241,6, 1, -1, -1, 4, 0, -3, -5
1503946035264,-6, -2, -2, -2, -5, -1, -1, -6
1503946035278,15, 5, -2, -3, -15, -1, -1, 2
1503946035301,16, 2, -2, -1, 1, -1, -1, 0
1503946035324,-27, -7, -1, -3, -14, -20, -2, -10
1503946035338,-2, 2, 2, -2, -5, 3, 0, 6
1503946035361,-11, -3, 4, 0, 6, 5, 0, -3
1503946035383,3, -3, -1, -1, 3, -5, -3, -12
1503946035406,-11, 2, 1, -2, 3, 1, 2, 2
1503946035421,-2, -2, -2, 3, 2, 4, -1, -1
1503946035429,-4, 10, 8, 3, 2, -2, -3, -3
1503946035450,11, -1, -2, -1, 1, -2, 0, 3
1503946035473,5, 1, 1, -1, 3, 3, 4, 0
1503946035488,-1, -3, 1, 5, -3, -2, -2, 6
1503946035510,3, -2, 5, 4, 4, -2, -4, -7
1503946035533,15, 2, -5, -5, -2, 3, -2, -3
1503946035548,-8, -5, -3, 1, 4, -2, -1, 1
1503946035571,6, 0, 0, -3, -5, 11, -2, -4
1503946035594,-2, -2, 1, 1, -7, 1, 0, 1
1503946035608,-15, -2, 0, -3, 1, -2, -2, 9
1503946035638,-1, -3, 0, -1, 5, 3, 1, -3
1503946035653,11, -3, 10, 6, 3, -4, -2, 2
1503946035668,-5, 0, -7, -2, -3, -7, -1, 25
1503946035693,9, 0, -4, 0, -2, 2, 8, 1
1503946035699,-6, 1, 0, 1, 1, 5, -5, 2
1503946035721,-16, -10, -2, -3, -10, 4, 3, 3
1503946035743,-9, -2, 4, 3, -4, 4, 1, 3
1503946035761,-21, 1, 4, 3, 3, -5, 3, 11
1503946035781,0, -3, -4, -2, 3, 1, -1, -6
1503946035804,-10, -4, -1, 2, -3, 4, 2, -10
1503946035819,3, 1, 0, 2, -11, 0, 7, -1
1503946035841,-16, 3, 2, -4, 0, 1, -1, 0
1503946035863,12, 2, -6, 0, -3, 0, -5, -1
1503946035879,-18, -5, -6, -7, -2, -24, -8, -6
1503946035902,36, 3, 0, -2, 3, 10, 2, -9
1503946035924,-5, -5, -1, -1, -1, 4, 0, 0
1503946035939,6, 3, 1, 0, 8, 7, -1, 0
1503946035953,-4, -3, -6, 0, -10, -4, 1, -7
1503946035969,10, 1, -1, -2, 5, -7, 1, -1
1503946035999,-19, 0, 3, -1, -2, 0, -3, -11
1503946036013,7, 3, -3, 0, -1, -2, 2, -7
1503946036044,-47, -3, 3, 0, -2, -17, 0, 5
1503946036072,22, -1, 1, -1, 0, 1, -4, -14
1503946036081,15, 2, -5, -3, 1, 3, -1, -3
1503946036104,8, 0, -4, -2, 0, 8, -3, -22
1503946036118,-14, 10, 17, 4, 0, 4, 6, 7
1503946036141,15, -1, -3, 2, -2, -6, 0, 5
1503946036164,3, 2, 2, -1, -1, -4, -2, 16
1503946036178,22, -4, -5, 0, 0, -1, 1, 10
1503946036201,-5, -1, 2, -2, 1, 0, 0, -9
1503946036223,6, -1, -6, -1, -3, 0, 0, 1
1503946036246,12, -6, -5, -1, -2, 1, -2, 9
1503946036262,11, -2, -5, -4, -1, -5, -3, -6
1503946036283,-5, 0, 0, -3, 2, 12, -4, -4
