1503944237835,2, 2, -1, -1, -1, 0, -4, -4
1503944237858,-3, 8, 1, 0, -2, 0, 0, 4
1503944237873,22, 2, -1, -1, 0, -2, 1, 0
1503944237900,11, 9, -1, -1, -3, -1, -4, -1
1503944237914,-18, -10, -1, 1, 0, -1, 1, 3
1503944237933,-12, -4, -3, -1, 0, -2, 2, 1
1503944237955,10, -1, -2, -1, -1, 1, 0, 10
1503944237971,10, 1, -1, -5, -2, -2, -1, -8
1503944237993,-16, -3, -1, 1, 1, -1, -2, 2
1503944238015,-15, -2, -1, -2, 0, -1, -1, -2
1503944238039,-30, -11, -1, 2, 1, -1, -1, -7
1503944238053,3, 4, -1, -2, -2, -2, 0, -1
1503944238075,4, -3, -3, -3, -2, 2, -4, -4
1503944238098,18, 8, -1, 1, -3, 2, 1, 7
1503944238113,-2, -2, -1, 0, 3, -2, -1, -3
1503944238136,-2, 0, 3, -1, 2, -2, -1, 2
1503944238158,10, -1, -3, -2, -4, 2, 0, -4
1503944238173,-18, 0, 4, 0, -1, 0, 0, 2
1503944238195,7, 4, 0, 0, 2, -1, 0, -1
1503944238218,-4, -4, -3, 0, 0, 0, 3, -4
1503944238233,-21, -9, -3, -2, 0, -1, -3, -3
1503944238248,-28, -7, 0, 0, -2, 2, 2, -6
1503944238263,10, 6, -2, 0, -1, -2, -1, 0
1503944238284,2, -9, -5, -5, -1, 0, -3, -5
1503944238307,7, 3, 1, -2, -1, -3, 2, 6
1503944238323,8, 0, -5, -3, -1, 0, -1, -4
1503944238345,2, -8, 0, -3, 0, 1, -1, -5
1503944238375,-10, 2, 2, 2, 0, -1, -5, 5
1503944238383,-15, -6, 0, 0, 2, 0, 3, -6
1503944238405,0, 3, -2, 1, -3, -2, -1, 2
1503944238427,14, -1, 0, 1, -3, 0, 0, 1
1503944238445,3, 1, 2, -2, 1, -1, 1, 1
1503944238465,-3, -3, 0, 0, 0, 1, 1, -2
1503944238487,3, 4, -2, -1, -2, -3, -1, 0
1503944238505,0, 3, -1, -4, 0, 1, -2, -1
1503944238524,9, 1, 1, -1, 0, -1, -1, -1
1503944238547,-16, -5, -2, -2, -1, 0, -1, -2
1503944238563,-11, -8, -2, -3, -4, 1, -1, -3
1503944238584,3, -2, -1, 2, 0, -4, 0, -2
1503944238607,-4, -8, -2, 0, 0, -2, -1, -1
1503944238630,-7, -3, -2, -1, -2, 2, -1, -4
1503944238645,11, 7, -1, -3, 0, 1, -2, 2
1503944238667,-6, 0, 0, -1, 0, -3, -1, 0
1503944238683,9, 2, 2, 0, -1, -1, 0, 1
1503944238706,-12, -6, -3, -2, -2, 0, -1, -3
1503944238727,2, 1, -1, 1, 0, 0, 0, -4
1503944238743,-2, -3, 0, 1, -2, -2, -2, -3
1503944238773,-7, 0, 2, 1, -1, -3, 0, 4
1503944238787,11, -5, -3, -1, 0, 0, 0, 0
1503944238803,-16, -3, 1, 0, -2, 2, -2, -5
1503944238824,-17, 8, -2, -4, 1, -4, -1, 0
1503944238833,-22, -3, 0, -1, -4, -1, -1, -6
1503944238855,-15, -3, 0, -2, -2, -3, 0, 1
1503944238878,2, 5, -2, -1, -2, -5, -2, 4
1503944238893,6, 1, -1, -1, -1, -1, -2, -3
1503944238915,3, -2, -2, 1, 0, 1, 0, -2
1503944238939,25, 18, 2, -2, 0, -2, -4, -4
1503944238945,3, 5, 0, -1, -3, 0, -1, -3
1503944238967,-26, -6, -3, -1, -2, -2, -1, -1
1503944238989,-7, -6, -1, -2, 0, 0, -2, -2
1503944239007,-10, -1, 0, 1, -4, -3, -2, 0
1503944239027,-7, -3, 0, 3, -1, -1, -2, -1
1503944239050,-9, -4, 0, -3, 1, -1, 1, -1
1503944239064,7, 10, 2, -2, -1, 3, 0, 2
1503944239095,29, 3, -2, 4, 0, 0, -2, -2
1503944239118,7, -11, -3, -2, -3, -1, -3, -7
1503944239142,-14, -10, -4, -2, -2, -4, 2, -2
1503944239155,23, 14, 2, -1, -1, -4, -1, -1
1503944239178,7, -1, -2, -2, 0, 2, -2, 3
1503944239200,-6, 3, -2, 0, -2, -2, -1, -2
1503944239215,-12, -9, -3, -2, 3, -2, 1, -7
1503944239238,-8, -3, -1, -2, -2, 0, -2, -4
1503944239261,-2, 2, 1, 1, -1, 1, -1, 5
1503944239276,3, 2, 0, 1, -1, -1, -2, 4
1503944239298,19, 2, -1, 0, 0, -1, 1, 0
1503944239320,-10, 6, 2, 0, 0, -1, 0, 2
1503944239335,-2, 1, 0, 1, -4, 2, 0, 2
1503944239358,11, -5, -2, -2, -3, -4, -3, -5
1503944239380,14, -1, 0, 0, 1, 2, 0, -3
1503944239395,-28, -11, -6, -1, -2, -2, -2, -14
1503944239418,1, 1, 1, -1, 0, 1, -2, 0
1503944239440,-16, -7, 0, -1, 1, -3, 2, 3
1503944239455,-7, -1, -2, -1, -2, 0, 0, 5
1503944239478,-4, 1, 1, -1, -1, -2, 0, -2
1503944239500,-31, -6, -2, 1, 0, 0, 0, -1
1503944239515,-5, -2, 0, -2, -4, -1, -1, 0
1503944239538,-7, 2, -1, 1, 2, -1, 0, 8
1503944239560,-8, 2, 0, -2, -1, -3, -2, -5
1503944239575,20, 8, 2, 2, 1, 1, 1, 0
1503944239597,-22, -5, 1, 0, 0, -2, -1, 1
1503944239620,7, -4, -4, -1, -3, -2, 0, -2
1503944239635,-8, -6, -4, -2, -1, -1, -5, -5
1503944239658,6, 5, 2, -1, 1, 0, -2, 0
1503944239680,1, -4, 1, -2, -1, 1, 1, -4
1503944239695,8, -5, -2, 1, 0, 0, 2, 1
1503944239719,-2, -1, -2, -3, -1, 1, 0, -3
1503944239740,8, 8, 1, -1, -3, 1, 1, 0
1503944239755,16, 2, 0, 2, 1, -1, -2, 0
1503944239779,-10, -3, -3, -3, -1, -2, -2, 0
1503944239800,13, -11, -2, -4, -2, -1, -3, -3
1503944239823,7, 4, -1, 1, 1, -3, 0, 0
1503944239838,15, 15, 1, -2, -1, -1, -3, -5
1503944239854,-1, -7, -2, -2, 2, -1, 3, 4
1503944239868,-8, 2, -4, -3, -2, 0, -4, -7
1503944239891,9, -3, 0, -1, -1, 0, 0, 4
1503944239914,-7, -5, 1, 0, -1, -1, 2, 0
1503944239928,-3, 6, 0, -2, 1, 0, -4, -2
1503944239951,-3, 0, -4, -1, -6, -3, -2, -3
1503944239973,7, 0, -1, 1, 3, 1, -3, -4
1503944239989,-22, -7, 0, 2, -1, -3, 1, 0
1503944240011,-3, -3, 1, -2, 1, 1, 1, -2
1503944240033,12, 1, -2, 0, -2, -2, -2, 5
1503944240048,-27, -6, 2, -2, -2, 0, 1, -1
1503944240072,10, 3, -1, 0, 0, 1, 1, 1
1503944240093,10, 7, -2, 1, 0, -3, 0, -2
1503944240108,-4, 1, 2, 0, -1, 0, -2, -3
1503944240131,5, 1, 0, -2, 0, -2, -1, -6
1503944240153,2, -9, 0, 0, -1, 2, 3, 2
1503944240168,-4, 0, -2, 1, -1, -3, -4, -5
1503944240192,-27, -6, 0, 0, -1, 1, 0, 0
1503944240214,5, -2, -1, -1, 2, 0, -2, -2
1503944240236,-9, 8, 1, 0, -3, -2, 0, -1
1503944240251,11, 0, 0, 0, -1, -2, 0, -5
1503944240273,-14, -5, -4, -3, 0, 2, -4, -1
1503944240288,6, 0, 1, 0, -3, -2, -2, 2
1503944240311,-13, -6, -2, 0, 0, 1, 0, -1
1503944240340,22, 0, -1, -2, -1, -2, 0, 3
1503944240350,7, 2, -1, 0, -2, 1, -2, 1
1503944240371,6, -2, 0, 0, -1, -1, -2, -1
1503944240393,-13, -1, 0, -1, -1, 1, 2, 3
1503944240408,11, -2, -1, -1, -1, -3, 0, -6
1503944240431,-24, -4, 1, -1, 2, -3, -1, 1
1503944240454,29, 3, -2, -1, -3, -2, -3, 1
1503944240468,-5, -8, -3, 0, 0, 1, 1, 0
1503944240491,8, 4, 0, -1, 0, 2, -2, -2
1503944240513,5, 7, 0, -1, 2, -2, 0, 2
1503944240528,-12, -10, -2, 0, -3, -2, -2, 0
1503944240551,-18, -2, -1, 0, 2, -1, 2, 1
1503944240573,-20, -3, 0, -2, -3, -2, 0, -2
1503944240589,-5, 6, 2, -1, 1, 0, -1, -3
1503944240611,33, -7, -3, 0, -4, -1, -3, -8
1503944240633,14, 6, 1, -4, 0, 2, 1, 5
1503944240648,-15, -3, 0, 0, -2, -1, -2, -4
1503944240671,10, -1, -4, -1, 0, -1, 1, 6
1503944240693,-23, -3, 1, 0, -1, 0, -3, -7
1503944240708,9, 2, -1, 0, 0, -2, 1, 2
1503944240731,-13, -7, -1, 0, -3, 0, -3, 0
1503944240754,3, -2, -2, -2, -1, -2, -1, -2
1503944240768,7, 2, 2, -1, 1, 0, 0, 7
1503944240791,-13, -3, 0, 0, -1, 1, -1, -1
1503944240813,-15, -2, -1, 0, -1, -1, 0, -4
1503944240835,25, 4, -4, -1, -2, -1, -1, -1
1503944240854,6, 0, 1, -1, -1, -3, -1, -7
1503944240865,-1, -1, -1, 0, -1, -1, 0, -3
1503944240880,-12, -8, -1, 1, -1, 1, -1, -3
1503944240903,0, -1, -2, -1, -2, -1, -1, 9
1503944240926,10, 3, 0, 1, 0, -2, -2, -3
1503944240940,-2, -1, 2, -1, 0, -2, 1, -3
1503944240963,0, 2, -2, -4, -1, -2, -1, -1
1503944240989,14, 9, 0, -1, -2, 3, -1, -1
1503944241000,-11, -5, -1, 0, 1, 0, 3, -1
1503944241025,-22, -9, -1, -2, 1, 0, 1, 2
1503944241045,-7, -2, 1, 2, -3, 0, -2, -2
1503944241060,1, -11, -5, -4, -1, 1, 0, 1
1503944241083,-8, -5, -2, -2, -3, -1, -4, -3
1503944241105,-11, 6, 2, 3, 0, -4, 0, -3
1503944241122,-5, -2, 0, -2, -2, -1, -1, 3
1503944241143,3, 1, -2, -3, 3, -1, -1, -1
1503944241165,7, -5, -1, 0, -2, 3, -2, -1
1503944241180,5, 5, -2, 0, -4, -4, -1, -3
1503944241203,-2, 3, -2, -1, 1, -2, -1, -3
1503944241225,-4, -5, -4, -3, -3, -2, 0, -4
1503944241240,18, 3, 1, -1, 2, 1, -2, 0
1503944241263,-3, -5, 0, -1, -2, 0, 1, 2
1503944241285,-16, -6, -2, -1, -1, -1, 1, 3
1503944241300,7, 3, -2, 0, -3, 0, -2, -2
1503944241323,-3, -7, 0, 0, 0, -1, -4, -5
1503944241345,1, -2, -3, -2, -2, 0, -2, 1
1503944241361,8, 2, -1, -1, -3, -2, 2, -3
1503944241383,-12, 5, 3, 1, 2, 0, 1, 3
1503944241406,14, 13, 1, 2, 2, -3, -2, 1
1503944241420,-9, -4, -4, 1, -1, 2, 0, -1
1503944241443,-18, -12, 0, -1, -4, 0, -2, -2
1503944241451,-13, -4, 0, 1, -2, 2, -1, 1
1503944241473,-12, -1, -4, -2, -2, -1, 0, 0
1503944241496,40, 16, 3, 3, 0, 1, 0, -1
1503944241518,-8, -9, -2, -1, 1, -1, -2, -1
1503944241533,4, 0, -2, -1, -2, -3, 0, -3
1503944241558,10, 1, 1, -1, 0, 1, -1, 1
1503944241563,12, -3, -1, 3, -2, -1, 1, -3
1503944241585,-37, -8, 0, -1, 0, 3, -1, -1
1503944241600,3, -7, -2, -2, -3, -1, -2, -2
1503944241625,1, 0, -1, -2, 0, -1, 0, -2
1503944241645,9, 4, -3, -1, -3, -3, -2, 1
1503944241660,10, -1, 0, 2, 1, 0, -1, 1
1503944241683,9, 8, 0, -4, -2, 1, -1, 0
1503944241705,14, 1, -4, -4, -3, -4, -2, -2
1503944241727,-12, -4, 0, 0, 1, -1, -2, 7
1503944241743,0, -6, 1, 1, 0, 1, 2, 3
1503944241765,11, 3, -2, -2, -2, -2, -4, -4
1503944241787,7, 5, 0, 2, 2, 0, 1, 4
1503944241803,-24, -4, 2, 0, 2, 0, 0, -5
1503944241827,15, -3, -2, -1, -1, -4, -2, -4
1503944241847,33, 11, -1, -2, -3, 1, -2, 5
1503944241864,6, -4, -3, -1, 1, -1, -2, -8
1503944241885,-18, -7, -1, -2, -2, -1, -1, -3
1503944241907,-13, -3, 0, 0, 1, 0, -1, 0
1503944241923,-3, -2, 0, -2, 0, -1, 0, 2
1503944241945,6, -6, -2, -4, -5, -3, -2, -6
1503944241967,-14, -5, -1, -2, 0, 0, 4, 1
1503944241983,7, 5, 0, 0, 0, -1, 0, 5
1503944242005,18, 6, -1, -2, -1, 0, -2, -3
1503944242028,-8, 8, 2, 4, -3, 0, -2, 0
1503944242042,10, -2, -6, -4, 0, -4, -1, -1
1503944242057,-15, 0, 0, -1, 0, 0, 1, -2
1503944242073,14, -10, -2, -2, 1, -1, 1, 2
1503944242096,-5, -5, 0, -3, -2, -2, -3, -1
1503944242117,-8, 1, -2, -1, -2, -4, 0, -12
1503944242133,8, 5, -1, -2, 2, 2, -1, -1
1503944242155,26, 6, -1, 0, 0, 0, -2, 5
1503944242177,6, 2, 2, 0, -5, 0, 0, 1
1503944242195,15, -4, -4, -1, -1, -3, 1, 1
1503944242207,-9, 1, 1, 1, 0, -1, -1, -1
1503944242222,13, 1, -1, -2, -1, -3, -1, 3
1503944242245,-18, -1, 1, 1, -2, 0, -1, -1
1503944242267,16, -4, -2, 1, -1, 1, 0, 0
1503944242282,-2, -1, -1, 0, 0, -1, 0, -1
1503944242305,23, 2, 0, -1, -1, 0, 0, 2
1503944242327,-22, -6, -1, -4, 0, 2, -2, -4
1503944242343,-2, -1, -1, -1, 2, 0, 0, -2
1503944242365,0, 2, 1, -1, -2, -2, -3, -1
1503944242387,14, -5, -3, -1, -1, -3, -1, 1
1503944242403,-9, 3, -3, -1, 0, -3, 0, -4
1503944242426,-2, -4, 2, 0, 0, -1, 1, 7
1503944242447,6, -2, -1, -1, -2, 1, -2, 1
1503944242471,-23, -6, -2, -2, 1, -2, -2, -3
1503944242485,23, 8, 1, -1, -2, 2, -1, -1
1503944242507,-25, -7, 0, 1, 3, 1, 2, 1
1503944242522,-28, 1, 0, -5, -5, -3, -2, -6
1503944242545,14, 4, -1, 1, -1, 0, 2, 2
1503944242567,-1, -4, 0, -1, -3, 0, -2, -3
1503944242582,9, 6, -2, 1, -1, 0, -1, 0
1503944242605,6, -5, 0, -2, 0, 1, 0, 0
1503944242627,27, -5, -3, -1, -1, -2, -4, -3
1503944242649,14, 3, 2, 1, 1, 0, 1, 2
1503944242666,-3, 3, 3, -2, -1, 0, -1, -2
1503944242687,-35, -5, -2, 0, -3, -3, -1, 1
1503944242709,19, 4, 1, 1, 1, -2, 0, 11
1503944242725,-8, 2, -2, -4, -1, 1, 0, -4
1503944242755,-7, -4, 1, 1, -2, -1, -1, -9
1503944242777,-6, -4, 1, -2, 1, 1, -3, 2
1503944242801,1, 10, 0, -2, 1, -4, -2, -3
1503944242815,5, 3, -1, -2, 2, -1, 1, 5
1503944242838,-8, -6, -2, 5, -2, 1, -2, 1
1503944242860,1, -3, -1, -4, -3, -1, -2, -2
1503944242876,-10, -3, 0, -1, 1, 1, 1, -1
1503944242897,-6, -9, -2, 4, -2, -1, 0, -2
1503944242920,9, 7, 0, -4, 0, 1, -1, -2
1503944242935,19, 6, -2, -1, -4, -2, 1, 4
1503944242957,-11, 1, -2, -3, 0, -1, 1, 1
1503944242980,3, 3, -1, -1, 2, -2, 0, 4
1503944242996,4, -2, -1, 0, -2, 1, 0, -1
1503944243017,5, -7, -2, -2, 0, 0, 0, 0
1503944243040,-2, -7, -1, 2, -1, 0, -3, -1
1503944243055,-7, 1, 1, -1, 1, -1, 0, 3
1503944243078,-14, -10, -1, 0, -4, -1, -2, -2
1503944243103,15, -3, -3, -3, 3, 0, -1, -2
1503944243115,-5, -2, -2, -1, -2, 0, -3, 0
1503944243138,2, 1, 0, -1, -3, -2, -2, -4
1503944243160,-7, 0, -1, 0, -2, -2, 1, -6
1503944243176,-21, -9, -4, -4, -2, -2, -1, -1
1503944243198,9, 6, 0, -1, 1, -1, -2, -1
1503944243220,-7, -4, -1, -2, -2, -2, -3, -2
1503944243236,-9, -2, -4, -1, 0, -2, -2, -5
1503944243249,-5, -8, 0, -3, -3, 2, 0, -1
1503944243265,25, -4, -3, -1, -3, 0, 0, -2
1503944243287,-21, -5, 0, 0, 1, -2, -2, -2
1503944243309,14, 2, 0, -1, -3, -2, -1, -2
1503944243325,-4, 3, 1, 1, -1, 0, -1, 3
1503944243348,-43, -2, 1, 1, -1, -2, 1, -4
1503944243371,-2, 0, -3, 0, -1, 1, -3, 5
1503944243378,-17, -2, 1, -1, 2, -1, -1, 4
1503944243400,10, -5, -3, -2, 3, -3, 0, -1
1503944243415,16, 1, -1, -2, -3, -1, -1, -1
1503944243438,-16, 0, 0, 2, -5, -1, -3, -6
1503944243460,32, 0, -1, -4, -2, -1, -3, -2
1503944243476,-2, 1, 0, -1, 0, 1, -2, -1
1503944243490,-21, -1, -1, -1, -3, 0, 0, 1
1503944243506,30, -2, 1, -1, -2, -1, -2, -5
1503944243528,26, 5, -1, -1, -1, -2, -2, 1
1503944243550,-11, -2, -2, -4, 2, -1, 0, -9
1503944243565,26, -3, -2, -1, -2, 1, 1, 4
1503944243587,-2, 1, -2, -1, 1, -2, -3, -1
1503944243610,-1, 0, -2, 1, -2, 2, -1, -2
1503944243617,0, -2, -3, 2, 1, -2, -3, 0
1503944243641,2, 0, 2, 3, -2, 1, -1, 0
1503944243663,-19, -6, -1, 3, 3, 1, -1, -2
1503944243677,-15, 0, 0, 3, 3, -1, 1, -1
1503944243692,6, -8, -3, -3, -2, -1, 0, -3
1503944243709,-5, -2, -1, -3, 2, 0, 1, 2
1503944243729,-19, -4, -2, -1, -2, -1, -2, -4
1503944243752,-24, -7, 0, 1, 1, -1, 0, -2
1503944243767,2, 3, -2, -1, -3, 1, -2, -4
1503944243789,65, 21, 2, -2, -1, -3, -2, -13
1503944243814,-23, -5, 0, 0, -2, -1, 0, 1
1503944243827,29, 7, -2, 1, -2, 0, 0, 3
1503944243849,-23, -13, -1, 1, 0, 0, 0, 3
1503944243873,-38, -6, 0, -2, -3, -2, -3, -1
1503944243887,-16, -2, -1, 2, -2, 1, -1, -3
1503944243910,-4, -4, 1, -2, 1, 0, 1, 3
1503944243918,19, 6, 1, 0, -4, -1, -2, -3
1503944243942,-7, -4, 1, 1, 4, 1, 1, 2
1503944243962,13, -2, 0, 0, 0, 0, 1, -9
1503944243979,-9, -7, -1, -4, -4, 1, -1, -3
1503944244000,26, 6, 1, 1, 0, 0, -1, 2
1503944244022,-12, -11, -2, 1, 0, 0, 1, 2
1503944244037,-16, -3, 1, -4, -1, 0, -2, 0
1503944244060,6, 2, -3, 1, -1, -1, 1, 4
1503944244083,4, -1, -2, -1, -4, -2, -3, -1
1503944244097,-7, 0, -2, -1, 3, -1, 1, 5
1503944244120,2, -3, 0, 0, -5, 1, 0, -2
1503944244144,-10, -5, 2, 2, 1, -3, 0, -1
1503944244158,5, 2, 0, -2, -2, 1, -3, -2
1503944244181,0, 5, 0, 0, -2, 0, 0, -1
1503944244212,20, -3, -3, -1, -2, 1, -1, -1
1503944244219,-12, 0, -1, -1, -1, -4, 0, -4
1503944244240,11, -2, -2, -2, 0, 2, -3, -2
1503944244262,-6, -5, -1, -2, 0, -1, -1, 1
1503944244278,0, 6, 2, 0, -1, -1, 0, 1
1503944244300,-12, -1, -1, -2, -4, 0, 0, 1
1503944244322,-1, -1, -2, -1, 1, 0, 0, -3
1503944244345,-8, -4, -2, 2, 0, -1, 0, -1
1503944244360,2, -6, -3, -3, -3, -4, -4, -11
1503944244384,7, 4, 0, -1, 2, 1, 2, 4
1503944244397,9, 3, -2, -1, -1, -1, -3, 0
1503944244421,-21, -8, -2, 1, 2, 1, -2, 1
1503944244446,-3, -2, 2, 4, -11, 1, 3, 0
1503944244457,6, 3, -3, -11, -16, -5, -2, -1
1503944244480,1, -3, 0, 8, 8, -1, -1, -1
1503944244502,2, 1, 5, 9, 33, 3, -3, 0
1503944244525,-1, 1, 3, -7, 3, 0, -1, -3
1503944244540,4, 0, -6, -14, -52, -7, -3, -2
1503944244563,-2, 3, 0, -1, 3, 3, -1, 0
1503944244585,4, 0, 1, 0, 13, -3, 1, 2
1503944244600,-1, 3, 3, 23, 22, 2, 2, -1
1503944244617,-4, -3, -5, -17, -28, -11, -4, -1
1503944244629,2, 3, 9, 22, 16, 0, 0, 3
1503944244653,-1, -4, -3, -12, 3, 0, 0, -3
1503944244676,-1, -1, 1, -8, -6, -2, -1, 1
1503944244699,0, 0, 2, 14, 27, 5, 0, 0
1503944244716,-1, -1, -4, -6, -11, -2, 0, -2
1503944244735,1, -3, -1, -4, 3, 1, 3, 1
1503944244743,-3, -1, 3, -12, -7, -2, -1, 0
1503944244765,0, -1, 1, 9, 10, 2, -2, -3
1503944244781,-1, 5, -6, -11, -5, 0, -3, -5
1503944244796,-5, 1, 1, 1, -4, 6, 3, 4
1503944244821,-3, -4, -6, -7, -13, -11, -7, -7
1503944244833,5, -4, 2, 9, 3, 2, 2, 0
1503944244857,-1, -1, -2, -7, -8, -2, -6, -6
1503944244878,1, 1, 4, 2, 8, 2, 3, 2
1503944244893,5, 0, -2, -5, 17, 1, -2, 2
1503944244917,1, 27, 1, 3, -12, 0, 2, 3
1503944244938,-4, -12, -15, 2, 2, -4, -2, 0
1503944244953,5, 4, -5, -1, 10, 1, -3, 1
1503944244976,-1, 12, -8, -1, -9, -10, -9, -11
1503944244998,-2, 2, 1, -7, 6, 1, 2, -2
1503944245017,10, -13, 11, 11, 0, 2, 5, 3
1503944245036,3, 52, 31, 10, 8, 10, 7, 3
1503944245043,9, -34, -14, 1, -6, -10, -7, -3
1503944245065,-2, 3, 12, 0, -2, 1, 1, 3
1503944245081,-4, -71, 0, -18, -16, -3, -6, 0
1503944245096,2, 19, 22, -17, -28, 1, 3, 0
1503944245118,-3, -12, -25, -12, 4, -3, -4, 0
1503944245133,-24, 0, -33, 11, 11, -2, -2, -1
1503944245157,-1, -82, -18, -40, -48, 11, -4, -11
1503944245178,13, 97, -87, 5, 27, 15, -4, -10
1503944245193,7, 102, 117, 66, 91, 18, 37, 86
1503944245219,-14, -112, -114, -47, -99, -82, -37, -34
1503944245238,-36, -64, -3, 21, 13, -72, -39, -32
1503944245254,11, -98, -1, -19, 29, 64, 13, -17
1503944245276,6, 69, 62, -46, -82, 19, 13, -2
1503944245298,9, 3, -7, -35, -9, -4, 10, 2
1503944245313,0, 7, 16, 27, 47, 33, -7, -11
1503944245321,8, -28, -17, -53, -10, -2, -3, 10
1503944245343,8, 6, -7, -6, 1, 8, 2, 2
1503944245363,-1, 6, 2, 6, 5, -25, -3, -10
1503944245373,6, -21, -3, 9, 19, -1, 4, 7
1503944245396,4, 1, 7, 13, 10, -2, 2, 0
1503944245421,-5, 1, 4, 9, 1, 2, 2, 6
1503944245433,6, 4, 4, -7, -6, 2, 8, -14
1503944245462,-1, 3, 2, 4, 6, -21, 17, 7
1503944245478,0, -1, -2, 0, -1, 4, 1, 3
1503944245494,-3, 0, -4, -5, 1, 3, -1, -4
1503944245515,3, -1, 3, 4, 2, 1, -8, -12
1503944245538,3, 3, 1, 2, -2, -4, -6, 5
1503944245553,-5, 7, 3, -1, 1, 1, -6, -3
1503944245576,1, -3, 0, 3, -4, 1, -4, 1
1503944245598,-1, 0, -2, 2, 0, 2, -2, 0
1503944245613,5, -5, -1, -2, 1, -3, -2, 1
1503944245635,-4, -11, -4, -3, -1, -2, 0, 1
1503944245643,2, 6, 4, -3, 1, 0, -1, -2
1503944245665,-6, 3, 1, 2, -1, -1, 0, -4
1503944245689,1, -1, 2, -1, 2, 0, -1, 1
1503944245703,-1, 2, 3, -1, -2, 1, 0, 1
1503944245726,-2, 4, 4, -1, 1, -2, -2, -1
1503944245747,1, -1, 0, -1, -1, 1, -1, -1
1503944245761,2, 0, -4, -1, 0, 1, -1, -3
1503944245778,-3, -2, -1, 3, -3, -2, -3, -1
1503944245794,0, 3, 5, -1, 2, -2, -1, -2
1503944245816,-6, 1, -2, -2, -1, 0, 0, 0
1503944245838,-3, -3, -1, -3, 0, -1, 0, -4
1503944245856,2, 0, 1, 0, -3, -2, -3, 1
1503944245875,-4, 0, 1, -1, -2, 0, 0, 3
1503944245898,2, 0, 1, -2, 0, -2, 1, -1
1503944245913,-1, -2, -1, 0, 1, 1, -2, 0
1503944245935,-2, -1, -5, -1, -2, -2, -4, 0
1503944245958,-4, -5, -1, 1, -1, -2, 1, -2
1503944245980,3, 2, -14, -4, -1, 0, -1, 2
1503944245996,-3, -17, -1, -2, -3, -1, -2, -4
1503944246018,-1, -5, -5, 0, 1, -4, 0, 0
1503944246034,0, 4, 7, 1, -1, 1, 0, -2
1503944246056,4, 7, 5, 0, -1, -1, 0, 1
1503944246078,3, 1, 0, -1, -3, 1, 0, -2
1503944246093,-2, 1, 2, 7, 8, 1, -1, -1
1503944246115,-2, 0, 0, 0, 11, -6, 0, 10
1503944246138,3, 1, 0, 2, -2, -1, 1, 2
1503944246154,-7, 0, 1, -1, -3, -1, 0, -11
1503944246175,6, 6, 5, -6, -6, 2, -4, -11
1503944246198,-13, -6, -2, -1, -9, -14, 1, 12
1503944246213,12, 1, -1, -2, 5, 3, 0, -13
1503944246235,33, 4, -3, -3, -5, 1, 2, 37
1503944246258,-13, -1, -1, 0, 1, 1, -1, 6
1503944246273,17, -3, 0, 1, 5, 1, 2, 11
1503944246297,-16, 2, 7, 1, 3, -9, 7, -14
1503944246318,-4, -2, -6, -8, -13, -2, -5, 50
1503944246334,-4, -8, -5, 0, 2, -1, -3, -10
1503944246371,44, 5, -6, -6, -1, -7, -8, 3
1503944246385,-9, 3, 6, 7, 4, 1, 0, 14
1503944246407,44, -2, 1, -4, 5, -1, -7, -23
1503944246431,11, 1, -5, -6, -5, -2, 0, -7
1503944246445,22, -5, -1, 1, -3, 5, -3, -8
1503944246469,-21, -4, 28, 8, 4, -2, 1, -3
1503944246493,-22, -7, -12, -1, 1, -3, -7, 11
1503944246521,11, 5, 0, 0, 1, 4, 2, 9
1503944246536,-4, 1, 4, 5, -3, -1, -2, -5
1503944246560,-26, -2, 3, 3, -1, -2, -3, -20
1503944246580,-24, 0, -8, -3, -1, 0, 6, 7
1503944246600,-10, -1, -2, -3, -4, 1, -4, -15
1503944246629,-12, 16, 11, -1, -4, -3, -4, -10
1503944246647,14, 2, 11, 6, -1, -5, -2, 8
1503944246670,3, -7, -8, -3, -1, 0, 1, 16
1503944246685,-14, -1, -4, -2, 3, 0, 0, -10
1503944246708,28, 15, 1, -5, -3, -1, 0, 7
1503944246730,-36, 8, -15, -8, -4, 0, -3, -41
1503944246745,-26, -10, -23, -5, -1, 0, 2, -3
1503944246762,33, 9, 1, -2, -4, -2, -2, 11
1503944246775,-9, -15, -4, -1, -6, -5, -2, 6
1503944246798,-20, 19, 27, 8, 2, 1, 1, -11
1503944246820,-10, 5, -6, -4, 2, 1, 0, 38
1503944246829,23, 47, 15, 4, -2, 3, 0, -15
1503944246850,3, -37, -17, -3, -3, -4, 0, 15
1503944246865,-7, 11, 0, 1, 0, -2, -2, 5
1503944246887,-10, -33, -1, -5, -3, -1, -1, -5
1503944246910,-14, 12, -32, -4, -5, 1, -4, 7
1503944246925,7, 14, 6, 4, 3, -3, 0, 4
1503944246947,1, 3, -3, -6, 0, -2, 1, 6
1503944246971,-14, -4, 17, 2, 0, 0, -1, -9
1503944246985,-5, 27, 10, 4, 1, 1, 0, 7
1503944247007,-3, -13, -17, -5, 1, -1, -2, 3
1503944247030,8, 6, -3, -5, -2, -1, 0, 0
1503944247045,-2, -11, -6, 3, 1, -1, 1, -2
1503944247068,21, -4, 23, 3, 2, 0, 0, 3
1503944247090,-3, 23, 10, 2, 0, 0, -5, -5
1503944247098,-14, -33, -13, -2, 0, -1, 0, -3
1503944247120,2, 10, 14, 4, 1, 0, 1, 1
1503944247136,-31, -7, -1, -1, 0, -2, 0, -6
1503944247158,17, 1, -9, -1, -1, -2, 0, 5
1503944247180,4, 10, -11, 0, 0, -1, 0, 3
1503944247198,-11, -22, -8, -6, -2, 0, 3, -10
1503944247218,-4, 5, -4, -4, -4, -1, -3, 1
1503944247241,7, 58, 12, 1, -2, 0, 4, 4
1503944247256,25, -29, -8, -1, 1, 0, -2, 1
1503944247278,17, 11, 28, 6, 1, -2, -1, -4
1503944247300,-1, -17, -13, -1, -2, 2, 0, 3
1503944247323,-4, -5, -1, 1, 1, -1, -3, 0
1503944247339,-10, -3, 1, -1, -1, 1, -3, -8
1503944247360,6, -1, -1, -5, 0, -4, -2, 1
1503944247382,-15, 1, -2, -4, -2, -1, -2, 1
1503944247401,1, -5, -4, -1, -2, -2, 0, 1
1503944247420,6, 3, 0, -2, -6, -2, 0, 2
1503944247443,-4, -5, 1, 2, 1, 0, -4, -1
1503944247458,0, -1, 2, 0, 1, 1, 3, 3
1503944247480,14, 4, -8, -1, 0, -1, -4, 1
1503944247505,-5, -27, 3, 14, 8, 3, 1, -1
1503944247518,-22, -21, -3, -7, -8, -2, -5, -4
1503944247541,6, 2, 2, -2, -3, -5, -3, 0
1503944247562,16, 16, 2, -4, 4, 0, 1, 0
1503944247578,-7, -22, -9, -2, -1, 2, 1, -1
1503944247601,26, 11, -4, -4, -3, -4, -2, -4
1503944247623,-9, 20, 38, 8, 2, 1, 0, -5
1503944247643,-16, -47, -34, -8, -5, -1, -2, -3
1503944247660,-24, -33, -8, -3, 0, -2, -2, -14
1503944247682,3, 28, 18, 7, 0, 1, 6, 7
1503944247700,-10, 18, -2, -6, 1, -2, -4, 5
1503944247720,-2, -13, -8, -4, -3, 1, 0, -6
1503944247743,-9, 5, -2, -4, -5, -4, -2, 4
1503944247758,10, 22, 0, 2, -1, -2, -2, -1
1503944247780,1, -21, 2, 2, 3, -2, 1, 3
1503944247803,-2, 2, 2, 0, 1, 1, 0, 0
1503944247818,5, 17, -8, 0, 3, 1, 0, -2
1503944247843,-5, 12, 10, 9, 6, 0, 0, 3
1503944247848,4, -30, -6, 0, 2, -2, -1, 1
1503944247871,1, 15, 0, -1, -9, -3, -4, -1
1503944247893,-9, -43, 3, -3, 0, -2, -1, -1
1503944247908,-3, 12, 8, 4, 8, 1, 0, -2
1503944247930,-3, -16, -24, -4, -5, -4, -2, 1
1503944247952,-17, -40, -2, -3, -2, -1, 0, 1
1503944247969,3, 6, -4, -4, -3, 3, -2, -2
1503944247990,5, 10, -5, 0, 2, -1, 1, 1
1503944248012,-12, -18, -12, 1, -1, -1, 0, -5
1503944248027,-5, -10, 10, 0, 1, 0, -2, 0
1503944248050,-9, 16, -1, -2, 2, -6, -5, -9
1503944248072,-3, -2, -1, 1, 1, 1, -2, 2
1503944248087,0, 23, 11, -1, -5, 1, 0, -1
1503944248110,14, 18, 1, -1, -1, -1, 0, 3
1503944248132,-12, -2, -7, -2, -1, 2, 0, -2
1503944248148,5, 3, 0, 3, -1, -3, 0, -1
1503944248171,11, 17, -6, -3, -4, -1, -2, 3
1503944248192,5, -2, -7, -5, 0, 0, 2, 3
1503944248209,-9, -36, 16, 6, 4, 2, 1, -2
1503944248230,-5, -40, -15, -2, -6, 1, -1, 1
1503944248252,30, 42, 7, 3, -2, -2, -2, 7
1503944248275,-2, -2, 1, -4, -1, -2, 3, -2
1503944248290,11, 20, 17, 2, 1, -2, 0, 0
1503944248313,-18, 11, 28, 8, 4, -1, 0, -3
1503944248334,5, -29, -14, -4, -1, -1, -4, -3
1503944248350,-14, 18, 20, 5, 0, -2, -3, -34
1503944248373,-1, 7, -9, -2, 13, 0, -3, 5
1503944248394,-12, 16, -8, -4, -10, -2, -4, -4
1503944248411,-2, 0, -5, -2, -3, 2, 2, -2
1503944248432,-4, -7, -15, -2, 3, 3, 1, -3
1503944248454,9, 15, 9, 0, -2, -3, -4, 6
1503944248470,12, -4, -10, -4, -4, -2, -1, 16
1503944248492,-12, -7, -7, -2, 0, -1, -1, 5
1503944248516,-1, -5, 2, -2, -1, -2, -1, -8
1503944248530,5, -5, 3, -1, -3, -2, -1, -10
1503944248553,3, -16, -4, -1, -3, -4, -3, -6
1503944248574,-22, -9, -9, -2, -1, -2, 2, 0
1503944248597,10, -1, 0, 1, -2, -2, 1, 14
1503944248613,1, 16, 4, 2, 2, 3, -1, -1
1503944248634,13, 3, 2, -2, -3, -1, 1, 1
1503944248650,-2, -7, -4, -3, 0, 1, 3, 0
1503944248677,8, 1, 6, 3, -1, -1, 3, 10
1503944248694,-19, 4, -8, -1, 3, 1, -5, -5
1503944248710,-21, 5, -2, -5, -4, -1, -2, 1
1503944248732,18, -18, -3, -1, -5, -1, 1, 1
1503944248754,-12, -5, -3, 1, 1, -1, 2, -8
1503944248770,-3, -8, 0, -3, -2, -3, -5, 4
1503944248799,46, 5, 0, -1, -3, -2, -2, -5
1503944248814,3, 25, -2, 2, 1, -1, -3, -26
1503944248830,3, -6, 2, -2, 2, -1, -5, -10
1503944248853,-13, 48, 47, 18, 9, 4, 2, 9
1503944248876,-9, -23, -16, -4, -4, -2, -1, 13
1503944248890,-11, 6, -1, -3, 0, 0, -4, -5
1503944248913,-6, 3, -10, -4, 0, 0, 0, -2
1503944248934,7, -17, -7, -1, -4, -2, -2, -16
1503944248950,27, -9, -7, -5, -1, 1, 8, 14
1503944248972,-15, 10, -7, -4, -3, -6, -6, 11
1503944248994,9, -9, 3, -2, 0, 1, -3, -4
1503944249010,3, 7, 3, -1, -3, 0, 1, -1
1503944249025,12, -1, -3, -1, -3, -4, 0, 6
1503944249040,9, 2, 3, 0, -3, 0, -1, 8
1503944249063,-7, 2, -1, -2, 1, -3, -1, -11
1503944249085,-5, -4, -9, -3, -2, 1, 0, 3
1503944249100,-3, 12, 25, 4, 2, -2, -2, -4
1503944249123,-4, -7, -6, 0, -1, 1, -2, -3
1503944249146,-9, -8, -5, -3, -5, 1, 1, -3
1503944249167,-21, -10, -3, -1, -2, -2, -1, 4
1503944249184,3, 16, -18, 0, 3, 2, 3, -1
1503944249205,-22, -21, 10, -1, -3, -2, -3, -9
1503944249227,9, -22, -9, -3, 0, -1, -1, 19
1503944249242,3, 23, 16, 3, 0, -4, -3, -3
1503944249265,1, 16, 9, 2, 2, 0, 0, -6
1503944249287,11, 1, -6, 0, -5, 0, -3, -1
1503944249303,-4, -5, -6, -2, 1, -2, -1, 6
1503944249325,13, 3, -1, -4, -1, -1, 3, 13
1503944249348,12, 10, 25, 6, 3, 1, 2, -5
1503944249363,11, 8, -8, -1, -2, -2, -2, -13
1503944249385,-14, -6, -3, -1, 1, -1, -3, -4
1503944249407,-1, 5, 7, 2, -2, 1, 2, 0
1503944249422,-5, 31, 11, 0, -1, -1, -2, -6
1503944249448,-10, -36, -27, -8, -1, -1, 3, 9
1503944249453,2, 7, 19, 2, -1, 0, -6, 3
1503944249474,-3, -11, -10, -2, -2, -1, 3, 2
1503944249497,9, -15, -5, -3, 1, -3, -1, -4
1503944249515,-1, 15, 12, 3, -1, 1, 2, 2
1503944249534,-1, -12, -16, -4, -1, 1, -1, -3
1503944249557,10, 2, -7, -3, -1, -2, -5, 3
1503944249572,-11, 9, 5, 0, -2, -2, -2, -7
1503944249594,-2, -8, -3, -2, 0, -2, 1, -1
1503944249617,-6, -2, -6, -1, 0, 0, -2, -1
1503944249632,1, -21, -10, -5, -2, 3, 0, 4
1503944249654,-38, -12, -1, 0, 0, 2, -2, 1
1503944249677,11, 7, -2, 1, 0, 0, 1, 4
1503944249692,5, 6, 4, 0, -2, -2, -1, -5
1503944249716,-3, 5, -2, -5, -2, -2, -2, -3
1503944249736,-4, -2, 0, -1, 2, 1, 2, -7
1503944249745,8, -3, -5, 0, -3, -3, 2, 2
1503944249767,-12, 9, 1, 0, -1, 2, -4, -3
1503944249783,-8, -8, 1, -4, -2, 0, -1, -2
1503944249805,17, -1, -6, 0, 1, -1, -3, -11
1503944249827,-4, 1, 2, 1, 0, -2, 2, 7
1503944249851,-11, -2, -7, -4, -1, 0, 1, -4
1503944249865,-8, -18, -10, -2, -2, -3, -2, 8
1503944249887,-19, -9, -10, -2, -1, 1, -2, -5
1503944249903,8, 2, 5, -3, -3, 1, 0, 0
1503944249926,10, 6, -1, 0, -1, 2, 2, 5
1503944249954,6, 16, 15, 5, 0, -2, -1, -1
1503944249962,0, -10, -5, -4, -1, 2, -1, 5
1503944249985,14, -2, 3, -1, -3, -4, -2, -2
1503944250007,-7, 1, 6, 6, 3, -1, -3, -5
1503944250022,-1, 7, -1, 1, -2, 1, -1, -10
1503944250038,-4, 4, -2, -4, -3, 1, -2, -7
1503944250061,-4, -4, -3, -3, -3, -2, -1, 2
1503944250075,-12, -2, -1, -2, -2, -3, -1, -5
1503944250098,17, 7, -4, -6, -4, -1, 0, 2
1503944250122,-12, -5, 0, 2, 1, 1, -3, 5
1503944250128,11, -5, 0, 0, -1, -1, -1, -7
1503944250152,-6, 8, -3, 2, -2, -2, -1, -7
1503944250165,-5, -1, 0, 1, 1, 2, 0, -11
1503944250188,23, 5, -1, -5, -2, -2, -2, 5
1503944250210,2, -8, -10, -4, -3, 0, -1, 4
1503944250225,-1, -4, -5, -1, -1, -2, -1, 2
1503944250247,-3, 26, 10, 3, 2, -1, 0, -1
1503944250270,6, -4, -4, -4, -1, 1, -2, 9
1503944250289,-2, 0, 0, 2, -1, 1, 4, 6
1503944250308,-2, -10, 1, 3, 0, 0, -1, 16
1503944250330,-16, -9, -8, -7, -4, 1, -2, -6
1503944250345,1, 8, -3, -3, 1, -1, -4, -15
1503944250368,1, -6, -1, -1, 1, 0, -1, -8
1503944250391,4, -8, -2, 1, -2, -1, 0, 1
1503944250405,16, 3, -1, -2, -1, 1, 2, -2
1503944250428,22, 3, -2, -5, -5, -3, -3, 12
1503944250450,-24, -14, -9, 2, 2, -1, 3, 0
1503944250466,-4, 8, -5, -3, -3, -1, 2, 10
1503944250488,-12, -2, 4, -1, 0, 0, 0, 3
1503944250510,5, 12, -1, -1, -3, -7, -7, -7
1503944250525,16, -10, -1, 0, 0, 1, -1, 11
1503944250547,11, 4, 7, -5, 0, 4, 11, 28
1503944250570,-3, -4, -4, 1, -3, -4, -3, -19
1503944250585,-24, 11, 8, 3, 0, 1, -4, -11
1503944250607,23, 16, 9, 2, 2, -3, -4, 2
1503944250630,-15, -7, -9, -3, -5, 0, 1, -8
1503944250645,-13, 28, -20, 0, -2, 1, 1, 20
1503944250668,-21, -29, 4, -5, 2, -1, 1, -16
1503944250691,-10, -14, -2, -4, -2, -3, -5, -13
1503944250705,27, 23, 1, 3, 3, 1, 1, 14
1503944250727,-6, -36, 6, 0, 2, -3, -2, -19
1503944250750,4, -4, 18, 7, 2, 2, -4, 6
1503944250765,-23, 11, -6, -3, -4, -1, -3, -22
1503944250789,6, -3, 11, 8, 4, -3, -1, -8
1503944250802,-7, -13, -16, -5, -7, -5, -4, -5
1503944250818,5, -9, 0, -1, 1, 0, 1, 5
1503944250840,-28, 27, 7, 1, -2, 0, 1, 2
1503944250863,4, 15, 3, 1, -1, -1, -1, -4
1503944250878,19, -3, -3, -2, -1, -1, 0, -3
1503944250900,0, 0, -6, 0, 0, -2, -1, -8
1503944250926,7, 15, 6, 1, -1, -4, -1, 9
1503944250938,-13, -4, -5, 1, -1, -1, 0, -11
1503944250961,-3, 4, 10, -2, 1, -1, 0, -3
1503944250983,4, 1, 5, 2, -1, 1, -1, 6
1503944250999,-18, -35, 10, 0, 0, -1, 0, -5
1503944251020,3, -9, -12, -3, -1, 0, -3, 4
1503944251043,9, 3, -1, 0, -1, 1, -4, 3
1503944251058,2, -6, -14, -5, -2, 0, 2, 0
1503944251080,-26, 7, -2, 0, -3, -2, 0, -9
1503944251103,23, 29, -5, 0, 0, 0, -2, 6
1503944251118,1, 24, 23, 4, 1, -1, -2, -7
1503944251141,-17, -10, -7, -3, 1, 0, 0, -4
1503944251163,38, 4, -1, -2, -3, -1, 0, 6
1503944251178,-13, -11, -8, -1, 1, 0, 1, -2
1503944251201,-9, -20, -5, -2, -1, 0, -1, -1
1503944251222,1, -25, -11, -4, -3, -2, 0, -3
1503944251238,-5, -12, 1, 2, 0, -1, -1, 4
1503944251261,-8, 7, 2, 2, -2, 0, 1, -1
1503944251283,2, -1, -1, -1, 3, -1, 0, -3
1503944251298,4, 11, -4, -4, 0, -1, 0, 3
1503944251320,5, 4, 6, 4, 1, -1, 2, 1
1503944251327,18, 9, -3, 0, -4, -5, -2, 2
1503944251350,-7, 5, -4, -2, 2, -1, -3, -3
1503944251372,-15, -4, -2, -3, -1, 0, 0, -2
1503944251387,-18, -11, -1, -4, 0, -1, -2, -1
1503944251403,-20, -6, 0, -1, -3, -2, -2, -5
1503944251418,5, 15, 4, 0, -1, -1, -2, 1
1503944251441,4, -18, -9, -3, -3, 0, -2, -2
1503944251462,3, 7, -1, 1, 2, -1, -1, 2
1503944251470,2, -15, -3, -1, -2, -1, 1, -1
1503944251494,-2, -1, 7, 3, 1, -2, -1, 1
1503944251501,3, 0, -5, -4, -3, 3, 2, 0
1503944251523,-6, -5, 12, 2, -1, -3, -4, -1
1503944251538,-2, -16, -3, -1, 2, -1, -2, -3
1503944251562,2, 25, 2, -3, -1, 1, -1, 0
1503944251567,-1, 4, -3, 0, -1, 3, 0, 2
1503944251590,-2, -2, 2, 1, 1, -3, -2, -3
1503944251619,-5, -8, -2, 1, -1, 3, 0, -1
1503944251629,5, 2, -1, -1, 1, 1, -2, 2
1503944251650,4, 17, 13, -2, -4, 2, 1, 2
1503944251673,25, 15, -2, 1, 0, -4, -2, 2
1503944251687,9, 6, -2, -2, 3, 0, -3, -3
1503944251704,-6, -4, -7, -5, 0, 0, -3, 1
1503944251718,-8, -8, 1, -1, 1, -1, 1, -2
1503944251747,-6, 1, -1, -3, 2, 1, 1, -4
1503944251764,-1, 5, 4, -1, -4, -2, -2, 0
1503944251778,1, -1, 0, 1, 1, -5, -2, -2
1503944251800,14, 20, -5, 2, -1, 2, 0, 0
1503944251822,-12, -26, -1, -1, -3, 0, -3, -4
1503944251838,-15, -12, -3, 0, -2, 0, -1, 1
1503944251865,4, 6, 3, -4, 1, -2, 1, 0
1503944251882,8, 4, 1, -1, -2, -1, -1, 0
1503944251899,-2, -21, -5, 1, 0, 1, 2, 2
1503944251920,8, 9, 5, -2, -2, -1, 1, -2
1503944251936,-1, 5, 2, 1, 0, -4, -1, -1
1503944251950,-3, -27, -10, -4, -3, 1, 0, 0
1503944251973,1, 10, 0, -1, -1, 0, -1, 1
1503944251994,1, -5, 2, 1, -3, -2, -1, 1
1503944252010,3, 5, -1, -2, 0, -3, -1, 1
1503944252032,-4, -8, -9, -4, -1, 0, -3, 1
1503944252042,-2, -6, -4, -3, -1, 0, -2, 1
1503944252064,-10, -23, 3, 1, 0, 0, 0, -2
1503944252085,-9, -5, 9, 1, -1, 1, -3, -1
1503944252100,-3, 14, -4, -4, -2, -2, 1, -2
1503944252122,2, -7, -3, 2, 1, 1, -1, 2
1503944252145,-7, 5, -11, -3, -5, -4, 0, 0
1503944252160,-5, -37, -5, -1, 1, -3, -3, -2
1503944252182,3, -23, -4, -4, -3, 1, 0, -1
1503944252205,6, -13, 1, 3, -2, -1, -2, -1
1503944252220,0, 19, 2, -4, 1, 0, -1, -4
1503944252242,2, 17, 7, 1, 1, -3, -1, 0
1503944252267,2, 12, 0, -2, -2, -1, 0, -1
1503944252280,8, 28, 17, 0, -3, 0, -2, 2
1503944252306,-7, 13, -4, 2, -1, -1, 0, -2
1503944252325,9, -9, 0, -4, 0, 0, 0, 0
1503944252344,-7, -3, -9, 0, 1, 1, 1, -1
1503944252367,-3, -17, -6, -1, -2, -2, -3, 0
1503944252385,-1, 5, -11, -1, 0, 0, 2, -1
1503944252401,9, -2, 18, 1, 2, 0, 0, 3
1503944252415,-8, -10, -3, 1, 2, -2, 0, -2
1503944252430,-11, -19, -3, -2, 0, 0, 0, 1
1503944252452,5, -25, -1, -1, -1, -1, -2, 0
1503944252476,1, 16, 0, -3, 3, -1, 1, -1
1503944252490,-2, -3, 2, 0, 1, 1, 2, -2
1503944252512,9, 6, 2, 3, -3, 0, -1, 0
1503944252535,4, 19, -6, -1, -2, 4, 1, 2
1503944252550,-9, -7, 1, -2, -2, -2, -1, -5
1503944252572,2, 9, 10, 0, 1, -1, -2, -4
1503944252595,-2, -3, 15, 1, -2, -3, -2, 4
1503944252625,1, 4, 6, 0, 2, 0, 3, -4
1503944252642,3, -7, 2, -1, -2, -1, -1, -1
1503944252663,10, 14, 1, -1, -1, 2, -3, -1
1503944252685,-5, -14, -7, -3, 1, 0, 2, 0
1503944252702,-1, 4, 2, 0, -2, 0, -1, 0
1503944252723,-3, -10, 0, -2, 0, -4, -2, 1
1503944252745,-5, 0, -4, -2, 1, -1, 1, -2
1503944252760,-2, -5, -2, 0, 0, -2, -2, -4
1503944252783,1, 11, -3, 1, 1, -1, 0, -1
1503944252807,0, -1, -4, -4, 0, -2, 0, 2
1503944252820,-11, -21, -3, 2, 2, 1, -1, -4
1503944252843,0, 0, -5, -2, -4, -3, 0, 1
1503944252865,-13, -6, 0, -2, 0, -1, -3, -3
1503944252877,0, -11, -5, -4, -2, -2, 2, 2
1503944252895,-1, 6, 6, 0, -1, -2, 0, -1
1503944252917,-1, -3, -2, 0, 1, -1, 1, -2
1503944252932,0, -9, 0, 2, -1, -2, -1, 0
1503944252954,-1, 3, 0, -1, 2, 2, 0, -1
1503944252963,-1, 4, 0, -1, -2, -4, 0, -2
1503944252985,1, 1, 6, -1, -1, -2, 0, 1
1503944253014,-3, 8, -3, -3, -2, 0, -1, 0
1503944253022,3, 12, 2, -1, 1, 2, 1, -1
1503944253039,-11, -5, -1, -1, 0, -3, -1, -4
1503944253052,-13, -7, 2, 0, 0, 0, -2, -2
1503944253082,-30, -7, 4, 2, -2, -4, -2, -1
1503944253096,12, -3, -1, -1, 0, 1, -1, -1
1503944253113,-4, 2, -7, -3, 1, -1, -1, 2
1503944253127,4, 3, 1, -2, 0, 0, 0, -2
1503944253144,-6, -4, -1, -1, -5, -3, -1, -2
1503944253165,7, 13, 3, 3, 3, 1, 0, 2
1503944253178,5, 15, 19, 3, 2, 0, 0, 0
1503944253195,0, 0, -7, 1, 2, -2, 0, 0
1503944253217,6, 8, -1, -3, -3, -1, 1, 0
1503944253225,0, -3, -6, -1, 2, -3, -1, 0
1503944253248,-3, -9, -6, -3, 1, -1, 0, 0
1503944253263,-2, 8, 4, 3, 3, 2, 0, 0
1503944253285,8, 6, 5, -3, -1, -1, -1, 0
1503944253308,-3, -2, -3, 0, -2, 1, 2, 0
1503944253323,-4, -4, 3, 0, -3, -3, -1, -3
1503944253346,0, 14, 3, 1, 1, 1, 0, 3
1503944253367,-4, 0, -2, -3, -2, 0, -2, -4
1503944253384,6, 3, 1, -1, -2, -1, 0, -2
1503944253405,-1, -4, -2, -2, 1, -2, -2, 0
1503944253427,1, -7, 0, -2, 0, -1, 3, -1
1503944253447,-9, -5, 11, 2, -1, 1, -3, -3
1503944253465,2, 0, -3, -3, 1, -1, -1, -1
1503944253487,1, 5, -2, -2, -3, -3, -1, 2
1503944253503,-6, -4, -4, -5, -4, -1, -3, -5
1503944253525,-1, -5, -3, 0, 0, -4, -1, 3
1503944253547,4, -2, 1, -1, -2, -2, -1, -3
1503944253555,-1, 2, 4, 2, -1, 2, -3, 0
1503944253578,-16, -18, -3, 0, -1, -1, 0, -2
1503944253592,2, 5, 0, -1, -2, 0, 0, 2
1503944253615,-1, -1, -2, -3, -2, -3, -1, -1
1503944253637,-3, 3, 4, -1, 0, -1, 0, -4
1503944253652,2, 5, -4, -3, -1, 2, 1, 2
1503944253684,-9, 1, -3, -4, -3, 0, -1, 0
1503944253705,2, -3, -5, -4, -2, 0, 0, -5
1503944253727,-12, 4, 2, 3, -1, -5, -2, -1
1503944253746,-1, -2, -2, 0, -2, 1, 0, 2
1503944253765,0, -3, 22, 5, -1, -1, -1, 3
1503944253787,-6, -1, -9, -3, -1, -3, 0, -5
1503944253795,-4, -4, -2, 0, -1, 0, -4, -2
1503944253817,0, -4, -8, -5, -2, -3, 0, 1
1503944253825,10, 0, -3, -2, -1, -2, -2, -1
1503944253847,-15, -4, -10, -1, 0, 0, 0, -2
1503944253870,2, -1, -6, -2, -3, -1, -3, 0
1503944253886,-1, 15, -3, 1, 1, -2, -1, -4
1503944253907,-2, -10, -11, -1, -3, -3, -1, 4
1503944253929,2, -5, 0, 2, 1, 1, -1, -1
1503944253946,-2, -1, 2, -2, -2, -3, -1, -3
1503944253967,-3, 2, -1, -4, 0, 1, 1, 0
1503944253990,3, 14, -6, 1, -2, 2, 2, 2
1503944254005,-2, -8, 4, 0, 0, -1, -3, 0
1503944254028,-2, -6, 1, 0, 2, -3, -1, -1
1503944254050,1, -7, -3, 2, -3, 0, 0, -2
1503944254065,-4, -6, -7, -5, -1, 0, -2, 2
1503944254088,1, 15, 8, 1, 0, 1, 0, -3
1503944254110,2, -10, -11, -2, -3, -1, 2, 3
1503944254117,1, 0, 1, -4, 1, 0, -1, 0
1503944254139,4, -2, 0, -4, -4, 0, -2, -2
1503944254155,-4, -2, -1, -1, -4, -3, -4, 1
1503944254176,-2, -4, -4, -4, 0, -2, -2, 1
1503944254199,3, -12, 3, 0, -3, 1, 0, -3
1503944254215,4, -10, -5, -2, 1, -1, 1, -1
1503944254237,-11, -2, 0, -1, -1, -2, -2, -1
1503944254259,-1, 6, 1, 1, -1, 0, 0, -2
1503944254274,5, 3, -1, 3, 0, 0, 1, 0
1503944254317,0, -6, -3, -4, -1, -2, -1, 0
1503944254327,-5, -2, 6, 4, -3, 2, 1, -1
1503944254351,0, 1, 2, -2, 1, -1, -1, 0
1503944254365,-2, -7, -2, -4, -1, -4, -1, -3
1503944254387,3, -4, -4, -1, -2, -3, -5, 0
1503944254410,-6, -1, -2, -1, -2, -3, 1, -4
1503944254425,-2, 0, -2, -5, -2, -2, 0, 1
1503944254449,-3, 5, 1, 2, 1, 0, -2, -1
1503944254469,0, -1, -5, -1, -2, 1, 1, 1
1503944254476,-8, -5, 1, -2, 2, -2, -2, -4
1503944254499,6, -2, -9, -1, -2, -1, 1, 2
1503944254515,-9, -2, -3, -3, -1, 0, 0, -1
1503944254530,14, 3, -2, 1, -2, -4, -1, -1
1503944254545,-4, 4, 6, 3, 1, 1, -1, 0
1503944254567,2, 11, 1, -3, 3, -1, 0, 1
1503944254591,-3, -1, -4, -1, 2, -3, -2, -3
1503944254605,2, 0, 4, -2, -3, -2, 0, 0
1503944254627,6, 0, 0, -1, 1, 0, -1, 1
1503944254651,8, 3, -3, -2, -1, 0, 2, -3
1503944254659,-4, 0, -3, -2, 2, -1, 3, 1
1503944254679,-3, 1, 2, -1, -1, -3, -2, -1
1503944254695,1, 10, 17, 1, -2, 0, -1, -4
1503944254720,3, -6, -7, -2, -2, 0, -2, -1
1503944254739,10, 7, 0, 0, -2, -2, 0, 0
1503944254757,-4, -3, -6, -3, 3, 0, -1, -1
1503944254776,-3, -10, -5, -1, -5, -3, 0, -3
1503944254799,8, 8, -3, 0, 5, 0, -2, 1
1503944254822,-4, 0, 1, -1, -2, 0, -1, -2
1503944254836,-6, -6, -3, -2, 1, -2, 1, -1
1503944254859,5, 2, 0, -3, -1, 1, 0, 0
1503944254867,-4, -12, 4, 1, -2, -1, 1, 0
1503944254890,2, 0, -3, -2, -2, -1, -4, 0
1503944254897,6, 5, -6, -2, -1, -2, -3, 0
1503944254920,-10, 6, -2, -4, -2, -2, 2, -2
1503944254941,3, -1, 2, 1, -1, 1, 0, 2
1503944254957,2, 5, -3, 1, 1, -1, 0, 3
1503944254979,6, 7, 4, -2, -1, 0, -1, -3
1503944255002,-5, -9, -2, 0, 0, -2, -1, 0
1503944255019,1, -5, -8, -4, 1, -1, 1, -1
1503944255039,1, -2, 1, -4, -3, 0, -1, -2
1503944255062,-8, -6, -2, 1, 0, 1, 0, 0
1503944255076,-1, -5, 0, -1, 0, 1, -3, -2
1503944255099,5, 9, 4, 1, -4, -2, 0, -1
1503944255122,-2, -5, -5, -4, -1, 1, -3, -3
1503944255136,-12, -6, -3, 0, -1, -4, -4, -2
1503944255159,0, -7, -3, -1, 1, 1, 1, -1
1503944255182,-2, -12, 0, 1, -1, -2, 0, 0
1503944255196,-1, 9, 19, 2, 0, 1, -2, -1
1503944255221,4, -7, -6, -2, -2, -1, -2, -2
1503944255243,0, 1, -4, -3, -2, 1, -1, 1
1503944255265,-7, -3, -9, 1, 2, -2, -1, -3
1503944255280,-1, 25, 2, -3, -2, -2, 0, 0
1503944255303,1, -7, -6, 0, -1, 0, -1, -2
1503944255326,3, -2, 0, 0, 2, 1, -1, 2
1503944255340,-2, 0, 3, -1, -1, -3, 0, -1
1503944255363,2, 5, 0, 0, 0, -2, -1, -3
1503944255389,-5, -9, 3, -1, -1, 1, -1, -2
1503944255400,4, 7, 15, 3, -1, -1, -2, 3
1503944255423,-6, 1, -4, -3, 0, 0, 0, -2
1503944255446,-5, -6, -10, 2, 2, -3, -1, 0
1503944255460,1, -3, 0, -1, -2, -1, -3, 1
1503944255489,-2, -3, -1, 0, 0, 0, 0, -1
1503944255505,2, -2, -5, 0, -2, -1, 1, 0
1503944255524,1, -9, 0, -4, -2, 1, 0, 0
1503944255543,-2, -2, -4, -1, -2, -4, -2, -2
1503944255565,-5, -8, -1, -1, 0, 0, 1, 0
1503944255602,-1, 4, -1, 0, -1, 0, -2, -2
1503944255609,-6, -2, -2, 1, 0, -3, -2, 0
1503944255628,0, 2, -2, -2, 0, 1, 2, -1
1503944255640,3, -6, -2, -3, -2, 0, -1, -1
1503944255663,3, 8, -5, -4, -3, 0, -1, -1
1503944255670,-6, -6, -3, -1, 0, 2, -3, -1
1503944255694,1, 4, 3, 1, -2, -3, 0, -3
1503944255716,-3, -4, -1, 1, 2, 1, -1, 0
1503944255730,7, 2, 21, 2, 0, -1, -1, -1
1503944255752,0, -7, -4, 0, 1, 0, 0, 0
1503944255775,-2, 1, -5, -1, -3, -1, 1, 1
1503944255791,2, 2, -1, -2, 1, 0, 0, -2
1503944255812,-4, 2, -1, -2, -1, -4, 1, -1
1503944255835,1, 6, -1, -3, -1, 0, -1, -5
1503944255850,-3, -10, -6, 0, -3, 1, 1, 0
1503944255872,-6, -6, -9, -4, -3, -1, -1, -4
1503944255896,-1, -3, -4, 2, 0, -1, -2, 1
1503944255909,1, 6, 1, 0, 0, -5, -1, 0
1503944255933,-1, 6, 1, 2, -2, 1, -1, -1
1503944255955,2, 6, -5, 0, 1, -2, -1, -2
1503944255970,0, -8, -6, -2, 1, -1, 1, 1
1503944255994,-1, -3, -1, -4, -3, 1, -3, -3
1503944256014,4, 2, 2, 2, 1, 0, 2, -1
1503944256030,-4, -8, -1, 0, -3, 0, -2, 2
1503944256052,11, 1, 6, 0, 2, -1, 0, 1
1503944256075,-6, -16, -5, -1, 0, -2, -1, -1
1503944256089,2, 7, 0, -2, -3, -2, 0, 2
1503944256112,-2, -4, -2, -1, 0, 1, 1, 1
1503944256120,7, -5, -1, 1, 2, -5, 0, 1
1503944256143,-6, -3, -4, -1, -2, 0, -3, -2
1503944256166,7, -3, -7, 1, -2, -1, -5, -2
1503944256180,0, 0, -1, -2, -1, 0, -1, -4
1503944256203,-3, -1, -4, 1, 0, 0, 1, -2
1503944256228,4, -1, -4, -3, 1, 2, 1, 0
1503944256240,-4, 7, -4, -1, -2, -2, -3, -1
1503944256263,4, 2, -2, -1, 2, -1, 2, 2
1503944256285,-1, -4, 1, -3, -1, 1, 0, 0
1503944256301,-5, -17, 1, 3, 2, -1, -2, 0
1503944256323,-2, -5, 0, -3, -3, -1, 2, -1
1503944256345,-3, -2, 0, 0, 0, -3, -3, -4
1503944256362,-1, 7, 0, -1, -2, -1, -2, -1
1503944256383,-2, -1, -4, 0, 0, -1, 0, 0
1503944256406,-1, 3, 4, 1, -2, 1, 0, 1
1503944256420,-1, 11, -2, -2, -1, -1, -1, -1
1503944256443,-3, -7, -4, -1, -3, -1, 0, -2
1503944256466,7, 3, 4, -2, 2, 0, -3, 0
1503944256480,-1, -2, -2, -2, -3, -3, -1, 1
1503944256505,-5, -11, -11, -2, -1, 2, -1, -1
1503944256525,-1, 1, 1, 2, -3, -1, 0, 2
1503944256541,3, 9, 21, 1, -1, -4, -1, -2
1503944256555,-9, -6, -3, -2, -1, -2, -5, 0
1503944256571,-1, 3, -3, -4, 0, 2, 0, 0
1503944256592,-1, -2, -6, -2, 0, -2, -3, 1
1503944256615,-5, 3, 2, 2, -3, -1, -1, -2
1503944256630,2, -4, -5, -1, 0, -1, -2, 0
1503944256652,-1, -1, 3, 2, 0, -1, 0, -1
1503944256675,-1, 0, -1, -2, 1, 0, 1, 0
1503944256698,-1, -2, -1, -1, 0, -1, -2, 1
1503944256712,-1, 0, 2, 0, -4, 0, -1, -3
1503944256735,3, 6, 1, 1, -1, -3, 1, 0
1503944256757,-2, -1, -6, -1, -3, -1, 1, -1
1503944256774,1, -3, 1, -3, -1, -1, 1, 0
1503944256794,-1, 0, 1, 0, -1, 2, -1, -2
1503944256817,0, 0, -1, 0, -2, -1, -2, -2
1503944256832,3, -1, -8, -3, 0, -3, -2, 2
1503944256855,0, 1, 0, -1, 1, -1, 2, -2
1503944256877,0, -2, -4, -2, 0, 1, -2, 0
1503944256892,-2, -2, 0, 2, -1, 0, -1, -2
1503944256914,-3, -1, -1, 1, -2, 1, 0, -2
1503944256937,0, -1, 2, -3, -2, 1, 0, 0
1503944256952,1, 0, 0, -1, 0, -3, -2, -1
1503944256975,-2, -2, -1, -1, -1, -2, -3, 1
1503944256999,-3, -7, -2, -2, -2, -2, -2, -4
1503944257012,0, 3, 2, 1, 0, 0, 0, 1
1503944257035,1, -1, 0, 0, 0, 0, 1, -2
1503944257043,-2, -6, -12, -3, 1, 1, -1, 1
1503944257067,-5, -5, -2, -2, -1, -3, 2, 0
1503944257087,2, -3, -4, -2, -2, 0, -2, -3
1503944257108,-4, 2, 0, 0, -1, -1, 0, -4
1503944257125,-3, -1, 1, 0, -2, -2, 0, 0
1503944257134,-4, -2, -6, -3, -1, -3, -1, -4
1503944257154,1, 0, 2, -1, 0, 0, -1, 2
1503944257177,-5, -1, 0, -2, -1, 1, -3, 0
1503944257192,1, -3, -1, -1, -5, 0, 0, 0
1503944257214,3, 2, 1, 1, 1, -2, 0, -2
1503944257238,-2, 0, -1, -1, -3, 0, -3, 1
1503944257252,2, 1, 2, 0, -1, 0, 1, 0
1503944257275,-2, -2, -3, 2, 0, -1, 1, -1
1503944257297,5, -3, -4, 0, -1, -1, -1, -1
1503944257312,-2, -1, 5, -1, -1, 1, -1, -2
1503944257335,-3, 1, 0, -1, -1, 1, 2, 0
1503944257344,3, -2, -6, -2, 1, 0, 1, 1
1503944257365,1, 2, -1, -1, 0, -3, 0, -2
1503944257387,-1, -1, 3, -1, 3, 0, 0, 0
1503944257404,-1, -1, 3, -1, -3, -1, 1, -3
1503944257425,-3, 4, 0, 1, -3, -2, -1, -2
1503944257447,-3, -1, 0, -1, 1, 2, -2, 0
1503944257463,-3, -3, -4, -1, 0, -1, -1, 1
1503944257485,-1, -4, -2, -3, 2, -1, -2, 0
1503944257507,-5, -1, -4, -1, -5, -3, -1, -2
1503944257522,1, 1, 3, 0, 0, 1, -1, 0
1503944257546,-2, 1, 1, 0, 0, 0, -3, -3
1503944257567,3, -2, -1, 1, -1, -2, 0, 3
1503944257589,2, -1, 0, -4, -3, -3, -1, -1
1503944257606,-2, -4, -4, -1, -2, 0, 0, -1
1503944257619,-5, -2, -2, -3, -2, -1, -2, -1
1503944257636,-1, 0, -2, -1, -2, 0, -1, -1
1503944257657,2, 0, 3, 3, 0, -2, -2, 2
1503944257679,-6, -1, -1, -2, -3, 0, -1, -2
1503944257694,4, -3, -3, -2, 3, -1, -1, -3
1503944257717,-1, 0, 0, -1, -2, -2, -3, 1
1503944257744,3, -2, -5, -3, -1, 0, 2, -1
1503944257747,-2, -1, 1, -3, 0, -2, -1, 1
1503944257772,-1, -2, -1, -2, 2, -1, -1, -3
1503944257785,3, 2, 5, 0, -2, 2, -2, 1
1503944257807,2, 0, 1, -2, -10, -1, 0, 1
1503944257829,1, -1, -3, 5, 1, 0, 0, -1
1503944257847,-2, -5, -8, -7, -4, 0, 0, -1
1503944257867,-1, 0, 5, -1, -1, -4, -7, 0
1503944257889,-1, 2, 6, 19, 20, 3, 3, 2
1503944257908,1, 0, 0, -5, 1, 2, 3, -1
1503944257927,-2, -1, -3, -3, -5, -2, 4, -1
1503944257949,-3, 1, -1, -3, -2, -1, -7, 0
1503944257965,-3, -4, -1, -1, -5, 0, 4, -1
1503944257987,6, 2, 0, -4, -5, 1, -2, -4
1503944258010,-6, -3, -3, -2, 1, -6, 1, -2
1503944258025,-3, -5, -1, -1, 0, -1, 0, 2
1503944258048,1, 1, -1, -2, 0, 0, -2, -7
1503944258069,3, -1, 1, -2, -5, 0, -4, -1
1503944258085,-3, -8, -8, -6, -5, -3, 0, -1
1503944258108,0, 5, -5, -5, -1, 0, -2, -1
1503944258136,2, 12, 8, 2, 2, 1, -2, 2
1503944258145,2, -15, -3, 1, 7, 0, -1, -1
1503944258167,2, 9, 0, -1, -5, -1, -1, -3
1503944258189,-10, -5, -4, 0, -1, -2, 0, 1
1503944258210,-7, -7, -2, 1, 2, -3, 0, 0
1503944258227,4, 30, 1, -4, -4, -3, -1, -3
1503944258250,5, 12, -6, -3, -5, 1, -3, 0
1503944258265,-2, -9, -1, -3, -5, -1, 0, 2
1503944258287,2, -5, 3, 5, 4, 0, -3, -3
1503944258310,-2, -11, -2, 5, 0, 1, 2, 1
1503944258318,-4, -3, 6, 5, 5, 2, 1, 0
1503944258344,7, 26, 18, 2, -4, 0, -1, -3
1503944258354,-2, 21, 1, -2, -3, -2, -5, -5
1503944258369,9, 7, 5, 1, -1, -3, 2, 2
1503944258386,-3, 9, -8, -2, -1, -2, -5, -3
1503944258410,-5, 5, 1, 2, -1, 1, 0, -2
1503944258415,4, 30, 5, -4, -2, -1, -1, 0
1503944258438,-1, 9, -16, -3, 1, -2, 0, -2
1503944258446,-8, 19, 4, -2, -1, 2, -1, 0
1503944258467,1, -2, 9, 11, 16, 1, -2, -2
1503944258489,-9, 0, -3, 4, 1, 2, 0, -1
1503944258497,-7, -15, 1, -2, -2, -2, -3, -4
1503944258520,-3, -39, -13, -3, 0, 3, 0, -1
1503944258549,-1, -3, -3, -3, 0, -1, 2, 1
1503944258557,6, -6, 20, 4, -2, -1, 0, -3
1503944258578,3, -17, 0, -2, -6, -2, 1, 0
1503944258588,-6, 10, -10, -3, -4, -3, -3, 1
1503944258651,0, 12, -4, -5, -4, -2, -1, 2
1503944258653,23, 34, 3, -2, -2, -1, 0, 0
1503944258670,-11, -38, -8, -2, -2, 0, 1, -2
1503944258692,1, -5, 0, -3, 0, -2, -26, -3
1503944258711,-5, -6, -1, 3, 5, 3, 12, -2
1503944258730,2, -18, -8, 0, -5, 3, 4, 2
1503944258753,6, 4, 6, -2, -3, -2, 0, 1
1503944258768,-9, -37, -8, -4, -2, -1, -2, -4
1503944258790,-7, 6, 2, 1, -1, -4, 4, 0
1503944258813,12, 11, -2, 2, -1, -2, 0, -1
1503944258827,4, -3, 4, -2, 0, 0, -2, 2
1503944258850,-2, -22, 1, 0, 1, 0, -4, -4
1503944258872,-18, 24, -5, -2, -2, -5, -4, -38
1503944258889,-2, 4, -10, -1, 0, 2, 7, 29
1503944258910,-1, -3, 3, 0, -1, -3, 1, -8
1503944258932,-1, 2, 0, -1, 1, -1, -4, 0
1503944258948,-2, -5, 3, -1, 0, -2, 0, 3
1503944258970,-8, 1, 0, -4, 0, 4, -4, 14
1503944258992,17, -7, -4, 1, 0, -1, -4, -8
1503944259008,4, -1, 2, 4, -1, -4, 5, 8
1503944259029,-45, 1, -3, -1, -2, 1, 1, -23
1503944259052,9, 9, 2, -1, -4, -3, 0, -5
1503944259060,-10, -4, -3, -2, 2, 2, -6, -5
1503944259082,28, 6, -4, 1, -1, -2, -2, 13
1503944259097,4, -8, -3, -7, -4, -1, 1, -3
1503944259120,-1, 8, 1, 3, -2, 1, -2, -3
1503944259147,-5, 1, 15, 2, 4, 1, -3, -8
1503944259157,10, 7, -3, -1, -2, -1, -1, -7
1503944259183,-6, -7, -6, -3, -2, 1, -1, -4
1503944259204,-10, -8, 5, -1, 1, 1, 0, -5
1503944259218,8, 10, -2, 1, -1, -4, -3, -1
1503944259240,8, 4, 7, 2, 2, 0, 4, 5
1503944259251,13, 9, -5, -2, -1, -2, 3, -2
1503944259270,-12, -9, -5, -4, -3, -2, -2, -1
1503944259294,12, 3, -1, 1, -1, -3, -4, -6
1503944259308,8, 2, -2, -2, -1, 1, 0, 3
1503944259329,-3, 3, 12, 7, 3, 0, 2, -5
1503944259364,-16, 1, 1, 1, -1, -1, 0, -2
1503944259387,-1, -9, -5, 1, 1, -1, -3, 2
1503944259397,14, 1, 3, 2, -1, -2, -3, -6
1503944259435,0, -4, -10, -3, 0, -4, -5, -1
1503944259451,-1, -3, -1, 1, -2, 1, -1, 1
1503944259476,6, 1, -1, -2, -1, -1, -1, -4
1503944259482,5, -3, 0, -3, 0, -2, -5, 8
1503944259505,5, -4, -7, -2, -4, 2, -2, -7
1503944259524,9, -3, -2, -2, -2, -1, 4, 13
1503944259539,1, 2, -1, -2, -1, 2, 3, -3
1503944259561,-8, 3, 3, 0, -2, -3, -2, -1
1503944259594,-1, -3, 0, 1, 4, 0, 6, 4
1503944259615,17, 4, -1, -4, 0, -1, -5, 0
1503944259645,4, -10, -8, -7, -2, -3, -3, -4
1503944259674,-10, -12, -8, -1, -2, -2, 4, 6
1503944259691,16, 0, -3, -1, 0, 2, -31, 6
1503944259712,-9, 8, 1, 3, 2, 0, 7, -3
1503944259735,-20, 3, 2, 1, 0, -3, 2, -13
1503944259742,-1, 1, -1, 0, 0, -3, 2, -2
1503944259765,-2, 1, 1, 0, -2, -1, 1, 0
1503944259779,-4, 1, 5, -1, 0, 3, -6, -17
1503944259801,-10, -11, -5, -3, -1, -2, -2, 7
1503944259824,-12, -2, -2, 1, -1, -1, 1, 6
1503944259841,-13, -7, -2, 0, 0, 2, 2, -6
1503944259862,-1, 0, 2, 4, 0, 2, 1, 21
1503944259886,-9, -4, -2, -4, -2, -3, 0, -29
1503944259900,7, 11, -1, -3, -4, -2, -9, -20
1503944259922,-26, -12, -8, -2, 0, -4, -2, 12
1503944259944,1, 6, -1, 1, -2, 0, -3, -21
1503944259954,-16, -9, -5, 0, -2, 0, -4, -9
1503944259974,-3, 1, -2, 1, -1, 0, 5, -7
1503944259990,14, -4, 8, -1, 0, -3, -7, -17
1503944260012,13, -9, -8, -2, -2, -2, 2, 6
1503944260034,-6, -2, -12, -5, 1, 0, -3, -14
1503944260042,-18, 0, -4, -4, -1, -3, -3, -14
1503944260064,9, -9, 3, 1, -3, -2, 3, 11
1503944260080,-9, -9, -8, -4, 0, 0, -2, -10
1503944260103,-14, -9, 3, 1, -1, 1, -3, -6
1503944260125,4, 26, -1, 5, -2, -2, -2, -8
1503944260141,-5, -21, 2, -1, 2, 1, -2, 2
1503944260161,-2, 5, 6, 1, -4, -2, -3, -10
1503944260186,-17, -6, -7, -1, -2, -1, -1, -2
1503944260201,25, 12, 4, -1, -1, -1, 1, 3
1503944260224,24, 6, -2, -2, 3, 2, 2, 7
1503944260244,-9, -2, -3, 0, 2, 0, 1, 5
1503944260260,-13, -23, -8, -2, -3, 0, 2, -16
1503944260298,-6, -7, 0, 1, -2, -4, -1, 10
1503944260307,-9, -5, 20, -2, 1, 0, -2, -4
1503944260323,11, -4, -3, 0, -2, 1, 3, -15
1503944260342,3, -1, -3, -2, -2, -2, -1, 7
1503944260364,-22, 4, 0, -1, -1, 0, -2, 11
1503944260386,4, 4, -5, -3, -2, 1, 1, -5
1503944260401,-3, -7, 0, 2, -2, 2, 2, -2
1503944260420,0, -2, 5, -2, 1, -2, 1, -3
1503944260432,-14, 1, 6, 1, -2, 0, -4, 1
1503944260456,-10, -4, -4, 0, -1, 0, 1, -2
1503944260477,-3, 2, 6, 2, 3, 0, -1, 6
1503944260492,8, -2, -3, -1, 1, 1, -2, -5
1503944260514,-1, 6, 3, 2, -5, 2, 0, -3
1503944260537,11, 6, 7, 3, 2, -1, -2, 3
1503944260559,6, 2, -1, -2, -2, -3, 0, -2
1503944260576,-2, -9, 3, -1, -4, 1, 0, -5
1503944260598,-2, 20, -1, -4, 1, 0, 0, 3
1503944260612,2, -6, -2, -4, 0, 0, -3, -17
1503944260634,0, -4, 2, 4, -2, 3, -3, -11
1503944260650,-7, -7, 5, -1, 0, 0, 3, 0
1503944260668,15, 16, -2, 2, -1, -4, 0, -7
1503944260688,4, -4, -3, -1, -4, 2, -2, -4
1503944260715,-3, -6, -4, -3, -3, -1, -6, -20
1503944260735,2, 10, 6, -4, -2, 1, 2, 19
1503944260748,-20, 1, -7, -3, -2, -5, -3, -8
1503944260770,-11, -7, 3, -1, 0, -2, -3, 13
1503944260785,-7, -6, -4, -2, -3, 0, -3, -18
1503944260807,1, -3, -3, 1, -1, -2, -5, 3
1503944260831,8, -9, -2, -2, 0, -4, -1, -2
1503944260847,20, 5, -5, -1, -1, 1, 3, -10
1503944260870,-3, -7, 0, -1, 0, -1, 2, 3
1503944260890,-8, -2, -1, -2, 0, 0, 0, -7
1503944260907,-1, -4, 7, 0, -2, 1, 5, 0
1503944260927,-1, 7, -2, -1, -3, -1, 0, -7
1503944260950,-5, 4, -4, -3, -2, -2, -6, -3
1503944260965,6, -6, -5, 0, -2, -1, -1, 5
1503944260995,-4, -22, -16, -4, -4, 0, -2, -23
1503944261017,0, 11, -1, -3, -3, 0, -3, -7
1503944261032,10, -9, 2, -1, 1, -1, 0, 9
1503944261054,12, -10, -1, 1, 0, -2, 0, 13
1503944261077,-20, -1, 8, -3, -2, 1, -4, -1
1503944261096,-3, 11, -5, -1, 2, 1, 6, 8
1503944261114,1, -11, -13, -6, -4, -2, -4, -9
1503944261137,-4, -3, 1, -2, -2, 0, 0, -11
1503944261152,12, 9, 0, -3, 0, -2, -2, 5
1503944261174,24, 3, 2, 3, 1, -1, -3, 1
1503944261197,0, -3, 3, -1, -3, -1, 0, 0
1503944261212,-14, 6, 8, 6, 2, 0, 0, -1
1503944261234,-11, 13, 10, 2, 2, 2, 5, -9
1503944261257,-3, -8, -6, 0, 0, -1, -2, 2
1503944261272,-3, 0, -3, -1, 1, 3, 1, 0
1503944261297,23, 0, -2, 1, -2, -3, 0, 10
1503944261326,-8, 5, 6, -3, -2, -1, 2, 1
1503944261339,-13, 15, -2, 2, -2, 1, -3, -2
1503944261364,0, -6, -3, -2, -1, -2, -4, 1
1503944261377,9, -11, -9, -4, 1, 0, 3, 15
1503944261410,-25, -10, -8, -4, -3, 0, -1, -2
1503944261415,10, 7, 5, 1, -1, -5, -2, -2
1503944261438,8, -7, -4, 1, -1, 0, -2, -3
1503944261459,-9, -9, -6, 0, -1, -2, 2, -3
1503944261474,-18, -2, 4, -1, -4, 2, -1, -3
1503944261506,-30, -5, 1, -2, 0, -1, -6, -6
1503944261528,4, 10, 0, 2, 2, -2, -1, 0
1503944261550,7, -5, -1, 1, -1, 1, -2, -3
1503944261566,5, -7, -11, -3, -2, -3, -2, 0
1503944261588,-2, -1, -4, 0, -2, -2, -3, 0
1503944261610,0, 5, -5, -5, -1, -1, 1, 4
1503944261631,-5, 4, 8, 4, -1, -1, 0, -3
1503944261647,8, -8, -1, 0, 1, 0, 2, 0
1503944261673,-5, 2, -4, -3, -1, 1, 2, -10
1503944261685,-22, 2, 11, 1, -4, -1, -2, -30
1503944261709,12, 0, 8, 2, 1, 0, -4, -5
1503944261715,15, 1, -2, -3, -1, -2, -4, 7
1503944261737,19, 1, -3, -2, -1, -1, 4, 18
1503944261759,-16, -2, -4, -1, -1, -1, -2, -7
1503944261774,2, 11, 6, -6, -1, 2, 5, 7
1503944261797,-10, -7, -14, -6, -7, -1, -3, 4
1503944261819,1, -18, -7, 2, 0, 1, 1, -3
1503944261835,-16, 5, 1, 0, -2, -3, -5, 0
1503944261857,7, 5, 0, -2, -2, -1, -5, -25
1503944261879,-19, -2, 1, -2, -2, 2, 0, -1
1503944261887,25, 10, 0, 3, -3, -6, -9, -20
1503944261910,-17, -8, -8, -4, -2, -3, -2, -7
1503944261925,-14, 3, -3, -1, -2, 1, -3, 7
1503944261947,-13, -13, -3, -3, -3, 3, 3, 5
1503944261977,-3, -7, -7, -4, -2, -3, -4, 8
1503944261992,-1, -9, -2, 1, 0, -1, -1, -6
1503944262009,10, 0, 5, 3, -1, 2, -1, -7
1503944262030,-3, -6, -1, 3, 1, 2, -2, 7
1503944262045,1, 4, 4, 5, 4, 1, 1, 17
1503944262070,-15, 1, 12, 1, -1, -2, -1, -9
1503944262090,21, 50, 7, -1, 1, 0, 5, 16
1503944262106,1, -28, -14, -7, -4, -1, -2, -15
1503944262127,-10, -19, -5, 1, 0, -1, -1, 0
1503944262150,16, -5, -10, -6, -7, -1, -4, -8
1503944262165,4, -27, -13, -6, -3, -2, 0, 11
1503944262187,4, 6, 3, 2, 1, -2, -1, -5
1503944262210,-17, -1, 0, 0, -1, 2, -1, -16
1503944262225,4, 25, 10, 3, -1, -1, -1, 2
1503944262247,-25, -5, -4, -1, -1, 1, -2, 1
1503944262270,-7, 8, 3, -3, 1, -1, -3, -3
1503944262296,2, -4, 0, 0, -5, -2, -5, -1
1503944262307,24, 11, 2, -4, 0, 1, 4, 2
1503944262330,-14, -18, -5, 5, -1, -4, -4, -1
1503944262352,0, -6, 2, -1, 0, 0, 0, 3
1503944262369,-12, -17, -8, -7, 1, -2, 2, 3
1503944262390,-10, -11, -5, -2, -4, 1, 4, -3
1503944262412,4, -4, -6, -3, -2, -3, 1, 2
1503944262427,-3, -10, -8, 0, -1, 1, -1, 5
1503944262450,10, 9, 10, 3, 1, -1, 2, -2
1503944262472,-1, 11, 3, 1, -1, 0, -1, -3
1503944262480,16, 13, -4, -6, -5, -3, -2, 2
1503944262507,3, -5, -1, 1, -1, -2, -2, 1
1503944262517,-3, 6, 7, 3, -1, -2, -1, -2
1503944262539,-6, -10, 0, -1, -1, 0, -1, 0
1503944262548,3, 5, 9, 0, 1, 0, -5, -2
1503944262572,8, 4, -5, -1, -2, -2, -1, -4
1503944262592,-2, -12, -1, -1, -4, 1, -2, 0
1503944262609,4, -1, -5, -2, 1, -1, 1, 3
1503944262630,-10, 2, -5, 1, 4, 0, -2, -2
1503944262652,32, 12, 4, 0, -4, 0, 1, -1
1503944262667,-19, -11, -1, 0, -4, 1, -1, 3
1503944262690,0, -3, -2, -1, 4, -2, 1, -2
1503944262712,-5, 5, 3, 2, 0, 1, -4, -3
1503944262727,-4, 7, 1, -1, -3, -3, -1, -4
1503944262750,-4, -5, -3, -4, -3, -3, 0, 2
1503944262773,1, -10, -9, -5, -4, 2, -2, 0
1503944262787,0, -5, -4, -2, 0, 0, -1, 0
1503944262810,0, 0, 0, 0, 0, 0, -4, -3
1503944262832,-2, -3, 0, 0, 0, 0, 0, 0
1503944262848,6, 8, 7, 2, -1, 0, 0, -3
1503944262870,2, -1, -5, 1, 0, 0, 0, 1
1503944262892,-4, -9, -2, -3, -1, -3, -2, -2
1503944262908,8, 17, -2, 0, 4, -1, 0, 1
1503944262930,-5, -8, 3, 1, -2, -3, -2, 0
1503944262952,0, -2, -4, 1, 3, -1, -4, -1
1503944262967,5, 2, -1, -4, -2, -1, 0, 0
1503944262990,-1, 0, 5, -2, -3, -1, 0, -3
1503944263012,-8, -2, -2, -3, -3, 0, 5, 0
1503944263027,-4, -4, -1, 1, 2, -2, -2, 0
1503944263050,0, -1, 0, 1, -2, -2, -1, -1
1503944263072,-2, -2, -1, -2, -3, -3, 1, -3
1503944263087,-2, 0, -6, -2, 0, 2, -3, -3
1503944263110,-1, 0, 3, 0, -3, -2, -1, 0
1503944263132,-4, -4, -2, -1, 0, 2, -3, -1
1503944263143,6, 2, 2, 1, 2, 0, -1, 0
1503944263163,-1, 3, 1, 1, -1, -1, 0, -1
1503944263177,1, -5, -3, -1, 0, -2, 1, -1
1503944263199,0, -2, -2, -1, 0, -1, -2, 0
1503944263215,1, 6, 14, 0, -2, 0, -2, -2
1503944263230,8, -5, -2, -5, 2, 0, 1, 3
1503944263252,-5, -3, -6, -2, -1, 0, -2, -2
1503944263276,6, 20, 1, 2, 0, -1, 0, 2
1503944263291,-4, -3, -6, -1, -2, 1, -1, -1
1503944263312,-1, -5, 14, 1, 0, 0, 0, -3
1503944263334,-2, -2, -5, -1, 3, 1, -1, 1
1503944263350,3, 6, -2, 0, 0, 0, 0, -1
1503944263372,8, -8, 1, 0, -5, -6, -3, -3
1503944263394,-3, -2, -7, -4, -2, -3, -1, 0
1503944263412,2, 5, -2, -3, -1, -2, -1, -1
1503944263432,17, -5, -1, -2, 1, -1, -2, 0
1503944263454,4, -2, 0, 2, -2, -1, -1, -3
1503944263470,-10, -4, -7, -1, -1, 1, 1, 4
1503944263492,-5, -5, -3, -2, -1, -1, -2, -4
1503944263515,-8, 4, 1, 1, -1, 3, 0, 0
1503944263530,-1, 7, 0, -2, -1, -2, -1, -1
1503944263552,1, 4, -2, 2, 0, -2, -1, 1
1503944263574,1, -2, 0, 1, -1, 4, 2, -1
1503944263590,-9, -7, -2, -2, 0, -2, -2, 0
1503944263612,-3, 1, 0, -1, -1, 1, 1, -1
1503944263634,-4, -5, -1, 1, 0, 0, -2, -2
1503944263650,3, 13, -4, -3, -1, -4, 0, 0
1503944263672,-9, -8, 1, -2, -1, -1, -1, 0
1503944263680,-3, 6, -2, -3, -1, 0, -1, -3
1503944263702,4, 5, -1, 2, -4, 2, 0, -2
1503944263712,5, 2, -1, -1, -2, -2, 1, 0
1503944263732,1, -10, -4, -2, -1, -1, -2, 1
1503944263754,6, 4, -2, 2, -2, 1, 0, -1
1503944263770,3, 7, -1, -3, -2, -1, 0, -2
1503944263792,-3, -2, 0, 0, 0, -2, -2, 2
1503944263801,2, 3, 0, 1, -4, 1, -3, 0
1503944263822,-2, 0, -3, -2, 2, -1, 1, -3
1503944263844,-5, -5, -3, 2, -3, -4, -3, 0
1503944263853,-3, -14, 10, 4, 1, 0, 2, 0
1503944263874,-6, -3, -4, -5, -2, 0, -3, -1
1503944263891,-1, -3, -1, -2, 0, -4, -2, -3
1503944263914,2, -3, -4, -2, 1, 0, 2, -2
1503944263934,1, 6, 1, -1, -2, -1, -2, 0
1503944263950,2, 5, 2, 0, -3, -1, 0, 0
1503944263972,4, 1, -4, -1, 0, -1, -3, 1
1503944263994,-9, 0, 1, -3, -4, 0, -2, -2
1503944264010,7, -1, -5, 1, 0, 1, 0, 2
1503944264032,-9, 2, 8, 3, 0, -3, -1, -4
1503944264054,-6, -3, -8, -2, -1, -1, -1, 0
1503944264070,2, 1, -1, 1, -1, 1, 1, -2
1503944264092,1, 6, -1, -3, 1, -3, -2, 2
1503944264116,7, -7, -11, 0, -1, 1, -3, -3
1503944264137,2, -4, -3, 0, -1, -1, 1, 1
1503944264144,0, 1, 0, 0, -2, 2, -1, -1
1503944264166,0, -1, -1, -2, -1, 0, -1, 1
1503944264183,-2, -2, -8, -1, -4, -3, 0, 0
1503944264203,-3, 7, 1, 1, 2, -1, -3, 1
1503944264226,0, -9, -5, -3, 0, 1, -4, -3
1503944264242,-1, -5, 0, -1, 0, 0, 4, 0
1503944264272,2, 6, 2, -1, 2, -4, -3, -1
1503944264294,-10, -4, -1, -3, 0, 0, -3, 0
1503944264317,2, 5, 5, -1, 0, 1, 0, -2
1503944264332,-6, -13, -6, 2, 0, 0, 2, -1
1503944264354,6, -5, -6, 1, 0, -2, 1, -2
1503944264377,-2, 4, 2, 1, -4, -5, 0, -2
1503944264386,-4, -1, 0, 2, -3, 1, 0, 0
1503944264406,-3, 2, 1, -2, 0, -2, -1, -3
1503944264423,6, 3, -4, -2, -1, -2, -2, 0
1503944264437,-5, -1, 0, -1, -2, 0, -2, -2
1503944264444,1, 2, -3, -2, 0, -4, -1, 0
1503944264466,0, -4, 1, -1, 1, 1, 2, 0
1503944264482,1, 6, 9, 0, -2, 0, -1, -3
1503944264503,-1, -5, -4, -1, 2, -5, -3, 1
1503944264527,-1, 1, -4, -2, -4, -2, -1, 0
1503944264548,-2, -5, 6, -2, 0, -1, 1, -1
1503944264557,-8, -8, -5, -1, 3, -1, -4, -5
1503944264571,-1, 5, 10, 0, -1, -1, 0, -2
1503944264587,4, 3, -6, -1, -2, 0, -1, 2
1503944264602,-4, -5, -3, 0, 0, -1, 0, 1
1503944264623,-3, 1, 4, 0, -1, 1, -2, -1
1503944264632,7, -2, 2, 0, -4, -3, 0, 1
1503944264655,-4, -6, -2, -1, 1, -1, -1, 0
1503944264677,-3, 6, 11, -1, 1, 0, -1, 1
1503944264684,-4, -6, -2, -1, -3, 1, -1, -1
1503944264706,-2, -4, -3, 1, 1, -1, -3, -3
1503944264722,-2, -5, -6, -4, -2, 0, 1, -2
1503944264743,-1, 1, 3, 2, 0, -2, -2, -1
1503944264766,4, -5, -7, -1, 0, 1, -2, 0
1503944264782,-3, -1, 1, -2, -3, -2, -1, -2
1503944264803,-4, 0, -4, -1, -1, -1, -2, 0
1503944264829,-1, -4, -1, 1, -3, -1, -2, -1
1503944264842,1, 1, 0, -1, 1, -3, 3, -2
1503944264858,-5, 0, -6, 0, 0, -2, -3, 1
1503944264872,1, -2, 0, -1, -3, -1, 1, -1
1503944264895,-2, -1, -2, -1, -2, -2, -2, -2
1503944264917,1, -5, 0, -2, -4, 0, 1, -2
1503944264932,-1, 2, 4, 0, 2, 0, -1, -2
1503944264955,-1, 1, 0, 0, -1, 0, 1, 2
1503944264977,2, 0, 4, 2, -4, -1, 2, -4
1503944264993,-2, 0, -4, -1, 0, 3, -3, 2
1503944265015,1, -3, -4, -4, -1, -3, 0, -1
1503944265036,2, 4, 6, 0, -1, -2, -1, -3
1503944265043,4, 2, -4, 1, -3, 0, 0, 3
1503944265060,-1, -3, -1, 0, 2, 2, -3, -1
1503944265074,2, -5, 2, 0, -2, -1, 0, 0
1503944265097,0, -1, -2, 0, 0, -3, -3, 1
1503944265104,2, 7, -11, -2, -2, -1, -1, -1
1503944265126,0, -8, -3, -2, -2, 0, -2, -2
1503944265148,-2, 2, 10, 0, 1, 1, 0, -1
1503944265164,3, -1, 3, 0, 1, 1, 0, -2
1503944265186,-1, -3, 4, 0, 0, -3, 0, -2
1503944265209,1, -3, 1, -6, -1, -1, -2, -2
1503944265224,3, 3, 4, 1, -1, -6, 0, 0
1503944265246,0, -1, -6, 0, -2, 0, -1, -1
1503944265269,-1, -8, -7, 0, -1, 1, -2, 0
1503944265284,-12, -18, -4, -3, -1, 0, -1, 1
1503944265306,1, 2, -1, -1, 0, -1, 0, -1
1503944265328,8, 2, 1, 1, -1, 1, -3, -2
1503944265337,-2, -3, 0, -2, -4, 0, 1, 1
1503944265359,-1, -8, -8, -1, 0, -4, -1, -1
1503944265366,2, 4, 0, 0, -1, -1, 0, 3
1503944265393,-2, 25, 0, 2, -2, -1, -1, -3
1503944265404,3, -9, -2, -2, -2, 0, -2, -2
1503944265428,-1, -5, 1, 0, 0, -2, 1, 1
1503944265449,1, -2, -3, 1, -1, 0, 2, 1
1503944265464,-3, -7, 5, -3, -2, -2, -1, 0
1503944265486,2, -4, 0, -2, 1, 0, 0, -2
1503944265509,-5, -5, -3, -1, -3, -3, -2, -1
1503944265526,-2, -5, -5, -1, 0, 1, 0, 2
1503944265546,-1, 2, 0, 0, 0, 1, -1, -1
1503944265568,3, -1, 2, 0, 0, -3, 0, -1
1503944265576,0, -4, 3, 1, 1, 1, 0, -1
1503944265599,1, 7, -1, 1, 0, -2, -1, 1
1503944265622,0, 1, 0, -2, 1, 2, 0, 0
1503944265637,-3, -5, -1, -2, -2, -1, -3, 0
1503944265661,-5, -10, -9, -2, 3, -2, -2, -1
1503944265674,-1, -10, -6, -1, -4, -1, 0, -1
1503944265697,-1, 0, -3, -1, 0, -4, 1, 1
1503944265719,-3, 1, 0, -2, -2, 3, 0, -3
1503944265735,4, 5, 1, -1, 0, -2, -2, 0
1503944265757,-2, 21, 2, 0, 0, -2, 0, -2
1503944265770,2, -4, -7, -1, -1, 0, -1, 0
1503944265786,1, 1, -1, 3, 0, -2, -3, 0
1503944265810,-2, -1, 6, 0, 0, 0, 2, 1
1503944265834,5, 0, -2, 0, 0, 2, -2, -4
1503944265847,-5, -7, -2, -5, -1, -2, -1, -1
1503944265870,-4, 5, -2, -1, 0, 0, -1, 2
1503944265895,-3, -1, 0, 0, 0, -1, 0, -4
1503944265907,-2, -6, -1, -5, -1, -1, 1, 2
1503944265931,2, 18, 8, 2, 0, 1, 0, 0
1503944265952,0, -4, -2, -2, -2, -1, 0, -4
1503944265968,7, 1, 3, 1, -1, 0, 0, -3
1503944265990,-4, -1, -3, 2, -1, -1, -3, 0
1503944266012,-3, -5, -4, -4, 1, -1, -1, -3
1503944266036,6, -4, -5, 1, -1, -2, -1, 0
1503944266050,-4, -4, 1, -3, 0, -4, 2, 0
1503944266072,0, 0, 5, 0, 0, 0, -2, 0
1503944266087,-2, -1, -2, -2, 0, 0, -2, 1
1503944266110,8, 4, -6, 3, -2, 1, 1, 0
1503944266139,-3, 7, 12, 1, 2, -1, -1, -4
1503944266142,0, 7, 5, -1, -1, -1, -1, -2
1503944266165,3, -1, 1, -1, 0, 0, -2, -1
1503944266171,-6, -6, -3, -2, 0, 0, -1, -1
1503944266192,-2, -3, -6, -3, -2, -3, -2, 2
1503944266200,-3, -2, -9, -1, -2, -2, -1, 0
1503944266222,1, 0, 0, -5, -1, -2, 0, 0
1503944266244,-6, -15, -2, 4, -1, 0, 1, -5
1503944266259,2, 0, 1, -1, 0, -5, 1, -2
1503944266282,-4, -1, 0, -2, -1, 0, -3, -1
1503944266298,6, 4, 1, -1, -1, 1, -1, -1
1503944266319,0, 4, 3, -3, 0, -3, -1, 0
1503944266342,-5, -1, -4, -2, -3, 1, -2, -3
1503944266357,-2, -5, -10, -1, 2, -1, 1, 0
1503944266379,-5, -6, -4, 0, 3, -2, 1, 1
1503944266403,4, -1, 2, 1, -3, -1, -1, -1
1503944266417,4, 10, 3, 1, -1, -1, -2, 1
1503944266440,0, 7, -7, -2, -1, 2, -2, 1
1503944266462,-1, -4, -1, -1, -3, -2, 0, -1
1503944266476,-3, -4, 2, 2, 0, -1, -3, -1
1503944266499,2, 3, 6, 0, -3, 2, 1, -3
1503944266522,0, 7, 3, 1, 0, 0, 0, -1
1503944266537,-2, -2, 2, -3, 0, -2, 1, 1
1503944266559,-2, -2, -1, -2, -2, -1, -3, 0
1503944266582,-4, -3, 4, -2, 1, -1, -1, 0
1503944266597,4, 5, -2, 1, 1, 0, 0, -1
1503944266619,0, -9, -7, -4, -4, -3, -1, -3
1503944266642,-4, 0, 1, 0, 0, 0, 0, -2
1503944266656,1, 19, -1, -3, -1, 0, 1, -1
1503944266679,2, -8, -1, 2, 0, -1, -1, 1
1503944266702,0, 2, 0, 0, 1, 1, -2, 0
1503944266716,4, -2, -5, -3, -2, -3, -1, -1
1503944266740,-7, -5, 3, 1, 1, -1, -1, 3
1503944266762,-1, -2, -2, 0, -1, 1, 0, -3
1503944266777,1, 3, 3, 0, 0, 0, -1, -2
1503944266793,-4, -3, 1, 0, 3, -1, -1, 0
1503944266807,3, 2, -3, -2, -2, 0, -2, -3
1503944266830,-2, 3, 2, 0, -1, 2, -1, -4
1503944266852,1, 4, 2, -4, -2, -4, 2, 0
1503944266868,4, 4, 0, 0, -1, 0, 1, 3
1503944266890,-1, -5, -6, 1, 1, 0, 1, 0
1503944266912,3, 3, 0, -4, -2, -3, -3, -4
1503944266936,-3, -12, -2, 1, -2, 0, 0, 1
1503944266950,-8, -6, 2, 0, 2, -1, -2, -3
1503944266973,0, 4, -4, -1, -2, 0, 0, -1
1503944266994,-2, 4, 2, -2, -2, -2, -1, 1
1503944267010,0, -3, 2, 0, 1, -1, 1, -2
1503944267032,3, 11, 8, 0, 0, 1, -2, 0
1503944267054,5, 1, 4, 0, 0, -2, 1, -1
1503944267071,1, 0, -2, 1, 1, 1, -2, 0
1503944267092,2, 7, 1, 1, -1, 1, -2, 3
1503944267121,-4, -9, -5, -1, 0, 1, 0, -2
1503944267130,-3, -5, -5, -2, -4, -4, 0, 1
1503944267152,-4, 0, 3, -1, 2, 1, 0, 0
1503944267175,0, -1, 1, 1, -1, -4, -3, 0
1503944267190,-3, 10, 3, -1, 0, -1, -1, -2
1503944267212,2, 2, -3, -1, -5, 2, -2, -2
1503944267235,0, -1, -4, 0, 1, -3, -2, -4
1503944267250,1, -5, 0, -1, -2, -2, 3, -1
1503944267274,-2, -12, -11, -3, 1, 0, -2, 1
1503944267294,-3, -1, -1, -1, -1, 1, -1, -2
1503944267310,1, 1, -6, 2, -2, -1, 0, -4
1503944267333,-3, -2, -1, -1, 0, -3, -1, -3
1503944267354,5, 0, 0, -2, -2, -4, 1, 4
1503944267371,-2, -1, 3, 0, 1, 0, 0, -1
1503944267393,0, 3, 1, -3, 0, 2, 0, -2
1503944267414,3, 1, 2, 4, -2, 1, -2, 0
1503944267422,0, -3, 1, -2, 0, -5, -1, -1
1503944267444,0, -3, 4, -2, 0, -2, 0, -2
1503944267459,-2, -5, -2, 1, 0, 2, -1, 0
1503944267476,-2, -12, 0, 2, 1, -1, -1, -1
1503944267490,-3, -2, 2, -2, 0, -1, -1, -1
1503944267512,-1, 1, 1, -2, -2, -2, 1, 1
1503944267534,4, 5, 3, 0, -2, -2, 0, 1
1503944267543,0, -3, 0, -1, -4, 1, 1, -1
1503944267564,1, 4, -2, 1, 1, -3, 0, -3
1503944267580,1, -19, -6, -2, -1, -1, -1, 3
1503944267602,-4, 5, 2, -1, -3, 1, -1, -4
1503944267624,-2, -2, -3, -2, 0, -2, 2, -3
1503944267640,-5, 3, 10, 2, 1, 1, -4, 2
1503944267662,2, 1, -3, -1, -4, -2, -2, -1
1503944267684,-2, -3, 2, -1, -1, -1, 0, -2
1503944267693,5, -5, -6, -4, -1, -1, -1, -2
1503944267716,3, -2, -4, 1, 0, 0, -5, -1
1503944267730,-5, 0, 1, -2, 0, -2, 1, -1
1503944267745,-1, -2, 0, 1, 0, -2, -1, 1
1503944267759,-4, -3, 0, 1, -2, -1, 0, -1
1503944267783,-2, 5, 13, -3, -2, 0, -2, -1
1503944267804,1, -1, -7, 0, 0, -3, 1, -1
1503944267819,-1, -2, -2, -3, -1, 0, -2, 0
1503944267842,-5, -3, -6, -2, -2, -1, -1, -1
1503944267864,3, -4, -7, 0, 2, -1, 0, -2
1503944267886,0, -1, -3, -1, -2, -2, 2, 0
1503944267902,-1, -14, -3, 0, -1, -2, 0, 1
1503944267924,0, 0, -1, -1, -1, 0, -2, -2
1503944267947,-2, 0, 1, -3, -1, -1, -1, -2
1503944267962,0, 2, -3, -1, 4, 1, -1, -3
1503944267985,-1, 23, 2, -2, -3, -1, -3, -1
1503944268006,-3, -7, -1, 0, -2, 2, -2, -1
1503944268021,-1, -1, -4, -3, -1, 1, 2, 2
1503944268036,2, 0, -3, 0, -2, -3, 0, -2
1503944268053,-7, -2, -3, -3, 0, -3, 0, 0
1503944268077,1, -5, -1, -1, -1, -1, -2, 0
1503944268096,-2, -6, -3, -3, -1, -1, -2, -2
1503944268112,3, 2, 5, -1, -2, 0, -3, -1
1503944268134,2, -2, -4, 0, 2, 0, 0, 0
1503944268156,-2, -3, -2, 0, 0, 0, 0, -2
1503944268172,1, -1, -3, -2, -2, -2, 0, -1
1503944268194,1, 4, -4, 0, 1, 0, 0, 3
1503944268217,-3, 0, -1, 1, 0, 0, -1, 0
1503944268224,1, 0, 2, 1, 1, -1, 1, -2
1503944268247,-2, 0, 0, -1, -1, 0, 1, -2
1503944268262,1, -6, 1, -1, -3, -2, -3, -1
1503944268286,-4, -2, -7, -2, 1, -1, -2, -2
1503944268306,4, -1, 1, 1, -2, -1, 0, 1
1503944268322,-2, -2, 3, -1, -2, -1, -1, -1
1503944268346,0, -3, -11, -7, -2, -1, -2, -2
1503944268353,-6, -1, 5, -2, -1, -1, -1, -2
1503944268387,1, -1, 3, 0, -1, 0, 0, 0
1503944268404,-1, 1, 0, -2, 1, 0, 1, 1
1503944268427,-3, 2, -3, 1, -1, 0, -2, 0
1503944268442,2, -2, 0, 0, -2, 0, -2, -1
1503944268464,-1, 3, 0, 0, -4, -1, 0, -1
1503944268487,1, -6, 4, 0, -2, 0, -3, -4
1503944268501,3, 5, 0, -4, 1, 0, 1, -1
1503944268517,-3, -4, -4, -1, -4, -1, -1, -1
1503944268532,2, -7, -3, 0, 0, 0, -1, 0
1503944268555,-4, 0, 2, 1, 1, -1, 1, -1
1503944268579,-2, 2, 0, -2, -1, 1, -1, -1
1503944268592,8, 8, 0, 4, -3, 0, -2, -2
1503944268618,-3, 2, 2, -3, -2, -2, -2, 0
1503944268637,2, 0, -1, -3, -3, -1, -3, -1
1503944268655,-4, 2, 3, -3, 0, 0, -1, 0
1503944268675,-3, -5, -3, -3, 0, -2, 0, 1
1503944268697,4, 4, -2, 0, 0, 2, 0, -4
1503944268719,-4, -4, 0, 0, -2, -3, -2, 0
1503944268727,1, 7, 8, -1, -2, -1, -1, 0
1503944268742,4, -6, 1, 1, 1, -1, -2, -2
1503944268764,2, -5, -4, 0, -1, -2, -4, -2
1503944268791,-1, -1, -12, -2, -1, -1, -1, 1
1503944268808,0, 6, -1, -1, -4, 2, 0, -3
1503944268824,-3, 0, 0, 0, 0, -3, -1, -2
1503944268851,-5, -2, 1, 1, 4, 0, 0, 1
1503944268869,-4, 6, -2, -3, -1, -3, -1, 2
1503944268885,-1, -7, -3, -1, -1, -2, 0, -3
1503944268906,0, -4, -1, 1, -2, -2, -3, 0
1503944268929,0, 2, 3, -2, -2, 2, 2, 1
1503944268944,-5, 0, -2, 0, 0, -1, -1, -4
1503944268959,-2, -3, -5, -2, 1, -2, 0, 0
1503944268974,-3, -3, 1, 1, -2, 0, -2, 0
1503944268989,0, 16, 7, 2, -2, 1, 1, -1
1503944269004,-3, -4, -7, 2, 0, -3, 0, 1
1503944269027,1, 0, 1, -3, 0, 0, 0, -1
1503944269050,1, 8, 17, 3, 3, -2, -1, 0
1503944269064,0, -3, 2, -3, -2, 0, 0, -2
1503944269088,-3, -3, -7, 0, 0, -1, 0, -1
1503944269108,4, 17, 0, 0, 0, -1, -2, -1
1503944269125,0, -10, -9, -2, -4, 1, -1, -1
1503944269146,-6, -4, 0, -2, 1, -3, -2, -2
1503944269168,-2, -2, 0, -4, -2, 0, 0, 1
1503944269184,-4, -8, -4, 0, 0, 2, -2, 1
1503944269206,3, -4, 0, 1, -2, 1, 0, 3
1503944269215,1, 13, 0, -2, -3, -2, -2, -1
1503944269228,3, -4, -1, -2, -1, -1, 2, 0
1503944269244,-4, 4, 0, 0, 1, -1, -2, -1
1503944269266,1, -1, -1, 1, -1, 0, -1, 2
1503944269275,3, 3, 3, 0, 1, -2, -2, -2
1503944269296,-4, -1, 3, -1, -2, 2, -1, -3
1503944269319,-4, -6, 0, 1, -1, -3, -1, 0
1503944269334,2, 12, 3, -1, -3, -1, -1, -3
1503944269357,-5, -3, 1, -2, 1, -2, -2, -3
1503944269379,-1, -4, -7, 1, 0, -1, -1, 4
1503944269395,2, 2, 13, 1, -3, -1, 2, -1
1503944269416,1, -7, -6, -2, 0, 0, -1, -1
1503944269439,-2, -5, -7, -3, 1, 1, -2, -2
1503944269454,0, -2, 1, 0, -3, -1, -3, 2
1503944269468,-1, -6, -11, -1, 0, -1, -1, -1
1503944269486,-2, 1, 8, 0, -1, 1, -2, -3
1503944269506,-4, -2, -6, 1, 0, -1, -2, -1
1503944269529,-6, -2, 5, -1, 2, -1, -1, -1
1503944269544,3, -2, -4, -1, -3, 0, 1, 4
1503944269566,-4, 3, 16, -2, -2, -2, -1, -3
1503944269589,3, -3, -6, -1, -2, 2, -1, 0
1503944269604,-2, -7, -7, 2, -3, -1, -1, 0
1503944269627,6, 1, -3, 0, -1, -1, -1, -1
1503944269648,-3, -6, -5, -2, -1, -1, -3, 2
1503944269664,-6, -3, -3, 0, 1, -4, 0, -4
1503944269689,-2, 1, -4, -1, -1, 0, 1, -2
1503944269708,-3, -4, 1, -1, 1, 0, -2, -1
1503944269731,0, 2, 2, -3, -1, -2, -1, -2
1503944269747,0, -2, 1, 2, 2, 2, -2, 0
1503944269768,4, -3, -7, -2, -4, -1, 1, 3
1503944269791,1, 3, 2, -1, -1, -3, 0, -1
1503944269806,2, -1, 1, -2, -1, 2, 0, 0
1503944269828,0, -1, -1, -1, 1, -2, 1, 0
1503944269851,-2, -3, -2, -2, 0, -1, -2, -1
1503944269867,-5, 1, -1, 1, -3, 1, -1, -4
1503944269891,-3, 19, 3, 2, 2, -1, 1, -1
1503944269911,7, -5, -9, -2, -4, -1, 0, -1
1503944269927,-11, 2, -4, -2, 0, -2, -3, -1
1503944269942,-3, -4, -3, 0, -2, 1, -1, 1
1503944269958,-2, -6, -4, -2, -2, -2, -2, 1
1503944269979,2, 1, 1, 1, 0, 0, 0, -2
1503944270002,2, 0, -5, -3, 1, -2, 1, -2
1503944270016,-2, -2, -5, 4, -1, -1, 1, 0
1503944270039,0, -5, 1, -5, 1, -1, 0, -2
1503944270063,-1, -2, 1, -1, -3, 0, -1, 2
1503944270076,1, 3, 9, 1, -1, 1, -3, -4
1503944270099,-2, -4, -5, -2, -3, -3, 0, 0
1503944270125,8, 2, -5, 2, 1, 0, 2, 1
1503944270137,-3, -2, 0, 0, 0, -2, -5, -1
1503944270160,-3, 3, 0, 1, -1, 1, -2, -3
1503944270182,0, -7, -7, -5, -2, -4, -1, 0
1503944270197,-4, -1, 1, 1, 0, 1, -1, -2
1503944270219,-6, 1, 4, -4, 0, -3, 1, 0
1503944270242,3, 1, -8, -2, -3, 0, 0, 1
1503944270259,1, -2, 1, 0, 0, -1, 0, 1
1503944270279,-3, -1, -3, 2, 1, -1, 0, -2
1503944270302,2, 4, 1, 1, -1, -2, -4, 1
1503944270316,-2, -3, -4, -3, -2, 2, 4, -6
1503944270339,-4, -3, 0, -2, 2, -2, -6, -3
1503944270362,4, 2, -2, 0, 1, 1, -3, -2
1503944270376,-2, -2, 0, -2, -1, 1, -2, 0
1503944270399,-3, -1, -1, 0, -3, -2, 1, -1
1503944270407,1, 3, 1, 0, 2, -2, -4, -1
1503944270429,-1, 3, -2, -3, -2, 5, 1, 0
1503944270451,1, 0, 1, -2, -1, -2, 2, -2
1503944270461,4, 1, -2, 0, 0, 0, 1, 0
1503944270481,-8, -6, -5, -1, 0, 0, -1, 2
1503944270497,3, 6, 2, -2, -3, -4, 0, 0
1503944270519,-1, -4, -1, 0, -2, 1, -2, 1
1503944270542,-6, -3, 0, -1, -1, 1, 0, 0
1503944270557,1, 2, -2, -1, -3, -1, -4, -1
1503944270579,-2, 1, 1, 0, 0, -2, 1, -2
1503944270603,1, -4, -2, 0, 0, 0, 1, -2
1503944270617,-6, -3, 1, 0, 1, 0, -1, 1
1503944270639,-8, -4, -2, -1, 0, 0, 0, -1
1503944270662,2, -4, -4, -4, 0, -2, 1, -1
1503944270684,2, -1, 14, 1, 0, 2, -2, -1
1503944270699,-16, 1, -12, -3, -3, -3, 2, 1
1503944270722,3, -5, 4, 1, 1, -1, -2, 8
1503944270744,9, 3, 22, 4, 1, 1, 0, -4
1503944270761,-5, -12, -9, -2, -1, -1, 0, -1
1503944270781,3, 4, -3, -2, -1, -1, -1, 0
1503944270804,-14, -8, -5, -3, -2, 0, 0, -2
1503944270819,6, -1, -2, 0, -2, -1, -1, 0
1503944270841,10, 14, -4, 0, -1, -4, -2, 5
1503944270864,-2, 2, -4, -2, -3, 1, -2, -6
1503944270879,2, -2, -7, 0, -1, -2, -2, -5
1503944270902,-5, -6, 0, 0, 0, 0, 0, -4
1503944270931,-3, -10, -5, -1, -1, -1, 0, 1
1503944270953,7, 3, -1, 3, -1, 1, -3, 0
1503944270969,-5, -3, 3, -2, 0, -3, -2, -2
1503944270991,-5, 0, 0, 1, 1, 0, 1, 3
1503944271013,5, -10, 3, -2, 0, -1, 1, -2
1503944271031,-3, -4, -4, -4, -4, -2, -3, -5
1503944271051,-17, -4, -2, 0, -1, 2, -2, -1
1503944271073,31, 17, 1, 1, 1, 0, -1, 2
1503944271104,0, -11, 3, 1, -1, 1, 3, -3
1503944271112,-11, -3, -7, -2, -2, -5, 0, -11
1503944271135,-24, 2, 12, 4, 1, -1, -2, 8
1503944271157,9, -7, 0, -2, 2, 1, 0, 2
1503944271173,4, 3, -12, -2, -2, -2, 1, 7
1503944271194,2, 1, 0, 0, -4, 0, -2, -4
1503944271217,-7, -3, -6, -1, -1, 1, 2, -2
1503944271233,-21, -5, -2, -1, -2, -3, 0, 0
1503944271261,16, 3, -1, -1, 0, 0, -2, 7
1503944271277,-3, 6, 14, 4, 2, 2, -3, -4
1503944271292,-4, -2, -2, -1, -3, -3, 0, -3
1503944271314,3, -10, -6, -3, -2, -2, -3, -1
1503944271337,9, 5, 2, 0, -2, 0, 0, -1
1503944271353,-11, -6, -1, 0, 3, -2, -3, -4
1503944271374,0, 1, 2, 1, -1, 0, -1, 0
1503944271382,-1, 4, 7, 0, 0, -1, -1, 2
1503944271404,-14, -2, -4, -1, -1, -2, -3, -5
1503944271419,-1, 5, 7, 2, 0, 0, 0, -1
1503944271442,-4, -12, -11, -6, -5, 1, -5, 1
1503944271471,-2, 5, -3, 1, -3, 0, 1, 2
1503944271479,-3, -3, -3, -2, 2, -4, -1, -5
1503944271503,10, 21, 2, 2, 2, -1, -1, 5
1503944271524,-8, -25, -13, -2, -4, 3, 2, -1
1503944271538,-1, 32, 2, 0, -1, -2, -1, 5
1503944271554,4, -43, -13, -7, -2, -1, 5, 0
1503944271577,-3, 5, -2, -1, -1, 2, -4, -1
1503944271592,1, 4, 2, -1, -2, -3, -1, -6
1503944271614,-4, -11, -3, -1, 0, 0, 0, -4
1503944271638,-1, 2, -1, 0, 0, -1, 3, 1
1503944271652,-6, -6, 1, 1, 0, -1, 0, 0
1503944271676,0, -1, -8, -1, -2, 0, 0, -1
1503944271707,2, -4, 1, 1, 2, -2, -2, 1
1503944271726,-2, -8, -9, -6, -1, -1, -2, -3
1503944271742,-8, 1, -2, -2, -1, -1, -1, -1
1503944271764,-4, -13, 13, 2, -3, 0, 2, 0
1503944271786,7, -18, -6, -1, 0, 0, 0, -10
1503944271804,-3, 1, -7, -5, -2, 0, 0, 1
1503944271824,-17, 10, 9, 0, 1, -1, -2, -9
1503944271846,-4, 2, 1, -1, 0, -2, -1, -5
1503944271854,-7, 3, -3, 0, -2, -2, -2, -4
1503944271883,5, -3, 1, 0, -2, -1, 0, 0
1503944271892,0, -7, 0, -1, 0, 1, 1, -3
1503944271914,-6, -3, -10, -4, 0, -4, -4, -3
1503944271938,0, -21, -16, -5, -1, 1, 2, 1
1503944271952,-6, 0, -7, -7, -4, -4, 1, 8
1503944271975,5, -12, 3, 1, -2, -3, -2, -5
1503944271997,16, -4, -10, 1, 1, 3, 1, 3
1503944272013,-4, 7, 8, 3, 1, 2, -1, -2
1503944272034,-8, -2, 4, 0, 0, -1, -3, -12
1503944272057,-10, 0, -3, 0, -1, 0, 2, 0
1503944272075,-12, 13, 20, 5, 3, 0, 0, -2
1503944272095,6, -3, -8, -4, -3, -3, -3, -4
1503944272117,0, 1, -7, -2, -3, 0, -2, 1
1503944272132,-4, -1, -2, 2, 0, -1, 0, 3
1503944272154,-2, -4, -5, -4, -1, -2, 0, -3
1503944272177,6, 3, -1, 0, 0, 0, 0, 1
1503944272192,1, 1, -1, 2, -1, 0, 0, -1
1503944272221,10, 4, 3, -2, -3, 0, 0, 6
1503944272239,-9, 2, -4, -4, -2, -4, -4, -4
1503944272252,-5, -4, -3, -1, -1, 0, 0, -3
1503944272274,-7, 2, 3, -2, 0, 0, 0, -1
1503944272297,-2, 6, 6, 2, -2, -3, -5, 1
1503944272312,-9, -10, -6, -5, -1, 0, 1, -4
1503944272334,0, 1, 0, 2, -1, -1, 0, -3
1503944272358,1, -6, -5, -1, 1, 2, 1, 2
1503944272374,-5, -11, 3, -2, -3, -4, 1, -1
1503944272394,16, 6, -3, 2, 0, 0, 0, 0
1503944272417,-6, 3, -6, -2, 1, -3, -1, -3
1503944272441,-6, 0, 0, 3, -3, 0, -3, -3
1503944272454,0, -3, 6, 1, -1, 0, -4, 4
1503944272477,7, 4, -3, -3, -1, 0, 1, -1
1503944272492,10, 0, -1, 1, -1, 0, 1, 1
1503944272515,-2, 12, 8, 0, -1, 0, -3, -2
1503944272537,-8, -10, -5, -4, -2, -3, -3, -1
1503944272559,12, 9, 12, -2, -1, 1, 2, 3
1503944272575,-4, -5, -6, 0, 0, -2, 1, -2
1503944272597,-7, -8, -6, -2, -2, 2, -4, 0
1503944272619,3, -4, -10, -7, -3, -1, -1, -2
1503944272634,-7, -15, -7, 0, -3, -1, 0, -2
1503944272657,1, -2, 3, 1, 0, -2, -2, -1
1503944272679,-7, -4, -8, -1, 1, -1, 0, -2
1503944272694,3, 10, 3, -1, 3, 0, -3, -2
1503944272723,9, 8, 5, -2, 1, 1, 1, -3
1503944272740,-9, 0, 1, 0, 0, -2, 4, 0
1503944272754,1, 0, 1, 1, -2, -2, -2, 2
1503944272777,7, 26, 15, 4, 0, -1, -2, -2
1503944272799,-2, -11, -6, -1, -1, -3, -3, 6
1503944272809,5, 10, 9, 1, -2, -1, -1, 1
1503944272829,-3, 6, 3, 2, 0, 2, 0, 0
1503944272844,14, 3, -2, 0, 4, 1, 0, 3
1503944272866,-9, 8, 11, 3, -1, -2, -3, -11
1503944272889,-5, 10, 5, -3, -3, 0, 1, -4
1503944272904,14, -4, -3, -1, -2, -1, 0, 8
1503944272926,-1, -3, 0, -3, -1, -3, -3, -3
1503944272949,-3, 3, 5, 1, -1, 0, 1, -3
1503944272964,-7, 6, -3, -1, 0, 0, 2, 9
1503944272986,-6, -5, 6, 0, 1, -1, -2, -7
1503944273011,1, 18, -4, 0, 0, -2, -2, -5
1503944273024,11, -9, -4, -3, -2, -1, 0, 0
1503944273049,2, 5, 4, 2, 1, 0, -1, 1
1503944273055,7, -14, -10, -5, -3, -2, -2, 1
1503944273078,18, 5, 6, -1, -1, -1, -3, 13
1503944273085,7, 2, -1, 0, -3, 0, 0, -8
1503944273106,-2, 5, -6, 0, 2, -1, -3, -4
1503944273136,-10, -4, 10, 1, -4, 0, 1, -2
1503944273145,-12, 3, 5, 0, 1, 0, -5, -7
1503944273166,0, -13, -10, -7, -4, -2, -4, -5
1503944273189,9, -13, 2, 2, 0, 1, 4, -2
1503944273204,2, 5, 5, 3, 4, -2, -2, 2
1503944273220,-25, 18, -1, -1, 1, 1, -2, -9
1503944273235,-3, -11, 4, -1, 0, 1, -3, -5
1503944273257,2, 4, 3, -2, -1, 0, -1, 13
1503944273284,-21, -13, -9, 0, -4, -1, 1, -11
1503944273294,-12, -23, 1, -4, -5, -2, 0, 3
1503944273318,-24, 0, 11, 6, 0, -1, 0, -13
1503944273339,13, -4, -8, -3, 0, -2, -7, -3
1503944273355,-1, 1, 1, -2, -1, -3, 0, -7
1503944273378,7, 3, 2, 0, 0, -2, 0, 7
1503944273399,3, -9, 1, 0, -1, -1, 4, 3
1503944273419,0, -2, 0, 2, 1, 1, 1, -1
1503944273437,-6, 0, 3, -2, 0, 2, -2, -2
1503944273459,-5, -9, -10, -5, -1, -3, 1, 1
1503944273484,-1, -14, -6, -2, -1, 2, -1, 3
1503944273496,8, -6, 6, 0, -1, -2, 1, -3
1503944273510,-4, 10, -5, -4, -3, 1, 0, 3
1503944273526,3, -15, -8, -2, -4, 1, 0, -4
1503944273549,0, 19, 4, 2, 2, -3, 2, 4
1503944273571,5, -7, 2, 0, -1, -1, -1, -1
1503944273586,1, 0, -2, -4, 0, -4, -2, 0
1503944273609,5, -6, -8, 0, -1, 1, -1, -4
1503944273631,4, -23, 9, 0, 1, 0, 2, 3
1503944273648,-10, 17, 7, 1, 3, 1, 1, 4
1503944273669,1, -12, -3, -1, -1, 2, -2, 10
1503944273692,-8, -31, -14, -3, 0, 3, 0, -8
1503944273707,11, 29, 16, 3, -1, -3, 0, -2
1503944273729,-1, 6, -18, -6, -1, -4, -2, 0
1503944273752,3, 2, -3, -4, -6, 2, 2, 5
1503944273766,-15, -5, -6, 1, -2, -2, -2, -7
1503944273789,-2, -10, -2, -3, 0, -3, -3, -3
1503944273810,13, -8, -6, 0, -4, -1, -2, 12
1503944273819,-6, -2, 1, 1, 1, 0, -3, -6
1503944273841,10, -7, -5, -1, -4, -1, 1, -4
1503944273857,-10, -5, 2, 0, 1, 0, -1, 2
1503944273879,-8, -12, 5, 0, 1, 0, 0, -4
1503944273901,16, -10, -9, -4, -1, -1, -1, 9
1503944273919,-8, 12, -2, -2, -3, -1, 0, -2
1503944273939,19, -6, -2, -1, -1, 1, -1, 2
1503944273961,3, 6, 3, 3, 4, -1, -2, -3
1503944273977,-12, 13, -7, 1, -3, 0, -3, -4
1503944273999,-17, -9, -3, -2, 0, -2, -2, -5
1503944274024,-8, -6, 4, -1, -2, 1, 0, -6
1503944274037,1, 2, 7, 4, 1, -2, -2, -2
1503944274059,-1, 3, 6, -2, 0, -1, 2, 4
1503944274081,1, -8, 2, 1, -2, 0, -1, -4
1503944274097,12, -4, -5, -2, 0, -2, -2, 1
1503944274122,-8, -9, 1, -3, -3, -3, -2, 1
1503944274142,3, -3, -4, -2, -2, -3, 1, -1
1503944274157,-3, -6, -5, -2, 1, -1, -1, 3
1503944274179,-3, 0, -2, -2, -1, -1, -2, -4
1503944274201,-6, -18, -3, 0, 0, 1, 0, -4
1503944274218,-10, -5, -1, 1, 0, -1, 1, -5
1503944274239,7, 4, -4, 3, -1, 1, -1, 5
1503944274262,5, 8, -1, -2, -2, -1, -1, 0
1503944274277,12, 21, 15, 1, 0, -2, 0, -5
1503944274299,18, 29, -5, 0, -4, 1, -1, 2
1503944274322,-12, -14, -4, -5, -4, 0, 1, 2
1503944274337,24, 8, 3, 0, -1, -2, -1, 4
1503944274360,-15, 2, -3, -6, -2, 1, 0, 2
1503944274381,-10, 2, 5, 4, 3, 1, 0, -2
1503944274404,6, -4, -11, -1, -3, -3, -5, 7
1503944274422,-4, -19, -2, 2, -1, 1, 2, 4
1503944274441,-2, -21, -7, -6, -2, -3, -4, -8
1503944274464,-5, -3, 5, -1, -2, -2, 0, -2
1503944274479,4, 13, 3, 2, 2, 2, 2, 0
1503944274501,-4, 26, -3, -1, -1, 1, 1, 0
1503944274525,-22, -3, -4, 5, 2, -3, -3, -7
1503944274539,9, -17, -5, -3, -3, -2, -2, -3
1503944274562,0, 0, -11, -11, -4, -1, -3, 4
1503944274569,7, 35, 9, 3, -3, -2, 3, -4
1503944274592,-7, -13, -3, -4, -3, -5, -5, -9
1503944274613,-2, -40, 6, 1, -1, 0, 1, 3
1503944274630,6, 26, 0, -1, -2, -2, -3, 1
1503944274651,-12, -7, -6, -2, 0, 0, 5, 1
1503944274673,-1, 20, -6, -6, -3, -3, -4, -3
1503944274689,2, 18, -1, 2, -3, 2, 1, 11
1503944274704,4, -37, -4, -3, -2, -3, 1, 3
1503944274719,-1, -1, 1, 2, -1, -1, 4, -6
1503944274741,5, 4, -4, 0, -2, 0, -3, 4
1503944274771,0, -14, 5, 0, 0, -1, 1, 0
1503944274779,15, 9, 14, 3, 6, 0, 0, 17
1503944274795,-1, 11, 2, -2, -1, -4, -3, -2
1503944274809,-5, -20, -6, -1, -2, 1, 3, 0
1503944274832,-7, 1, -6, -3, 1, -3, 3, -2
1503944274853,2, -5, -5, -3, -1, -2, -2, -1
1503944274869,-12, -2, 1, -6, -2, 3, -2, 1
1503944274892,3, 2, -5, -2, -3, -3, 0, 0
1503944274914,0, -6, 8, 4, 0, 1, -3, -4
1503944274929,-3, -6, -12, -1, -1, -1, -1, -3
1503944274951,2, 3, 5, 3, 1, 1, 0, -1
1503944274973,2, -4, 0, -1, 1, -2, -3, -2
1503944274993,4, -9, 1, -1, -2, -2, -1, 0
1503944275011,6, 38, 6, 0, -2, -2, -1, -1
1503944275034,-12, -34, -13, -1, 3, 1, -3, 1
1503944275049,1, 7, -7, -2, -3, -1, 1, 2
1503944275071,-7, -9, 0, 0, -2, -2, -1, -4
1503944275097,-2, 1, 9, -1, 2, -1, 0, -1
1503944275109,-8, -11, -8, -2, -2, -2, 0, 2
1503944275131,3, -26, -3, 0, -2, 1, -4, -2
1503944275153,9, 25, 2, 0, 2, -2, -2, -1
1503944275169,1, 6, 0, 1, -1, 1, 0, -2
1503944275193,10, 0, -2, -1, 1, -3, 0, 0
1503944275213,-2, -8, -4, -4, -3, -4, -2, -2
1503944275229,0, 24, 0, -1, 0, 0, 0, -2
1503944275251,-11, -28, -7, -1, 0, 0, -2, -3
1503944275273,16, 8, 0, -1, -1, 1, 0, 4
1503944275289,-4, 1, 1, 1, -3, -1, 1, -1
1503944275311,-5, 3, 0, -1, -1, -3, -1, 0
1503944275333,12, 5, 8, 0, -2, 0, -1, 1
1503944275357,-4, -6, -3, 1, 1, 0, 1, -2
1503944275371,-10, -8, -1, 0, -1, 2, 0, -1
1503944275395,16, 12, 5, 1, 1, 1, 1, -2
1503944275403,-3, -13, -3, -3, -2, 0, -1, -3
1503944275424,9, 4, 0, -1, 0, -1, -1, 3
1503944275446,-11, -2, 4, 2, 0, -1, -3, -1
1503944275462,-6, -8, -3, 1, 2, -1, -3, 1
1503944275484,-3, 5, 11, 3, -2, -1, 2, -1
1503944275506,4, 2, -8, 0, 3, 1, 1, 0
1503944275521,7, 7, -8, -5, -1, -1, 0, -2
1503944275544,-12, -28, -9, 1, -1, -3, -1, -4
1503944275567,-7, -15, 0, -5, -2, 1, -1, 1
1503944275581,1, 9, 1, -4, -3, -1, 0, -1
1503944275604,7, 4, -1, -1, -4, 0, -3, -1
1503944275629,-3, 0, -7, -3, -3, -2, -1, -1
1503944275642,-7, 6, -9, -3, -2, 0, -1, -2
1503944275664,11, 8, -1, -1, 0, 0, 0, -3
1503944275671,-12, -3, -4, -5, -3, -1, -1, -3
1503944275694,-6, 6, 12, 6, 3, 1, -1, -1
1503944275716,-2, -2, -5, -3, 0, 0, 2, -1
1503944275733,5, -10, -2, 0, 2, -1, -3, 1
1503944275753,-2, -9, 2, -4, -2, -2, -1, -3
1503944275776,5, 12, -4, -3, -1, -1, 1, 2
1503944275791,4, 1, -3, -3, -3, 0, -2, -2
1503944275813,5, 2, -3, -2, -1, -1, -3, -1
1503944275836,0, 9, -8, -2, -4, -1, 0, -3
1503944275851,0, -5, -5, -1, -2, -1, 1, -2
1503944275874,-6, 4, 1, 0, 1, -1, -4, -6
1503944275898,1, -12, -1, -3, -2, -3, 0, 0
1503944275911,-3, 3, -6, -1, 3, 0, 1, 1
1503944275933,-1, 1, 4, 4, -2, -1, -2, 0
1503944275955,1, -4, -2, -1, -1, 2, 1, 4
1503944275971,0, -7, 0, 1, 0, -2, 0, -1
1503944275993,1, -1, 0, -3, 1, 1, -4, -1
1503944276016,5, 6, 4, -1, 0, -1, 0, 1
1503944276037,-11, -8, -2, 1, 0, 0, 2, -1
1503944276061,-4, -2, -6, -2, -1, -1, -1, -1
1503944276076,-3, -2, 3, 2, 0, -2, 0, -1
1503944276091,-3, -5, 1, 0, -3, 1, 3, -2
1503944276113,1, 1, -2, -2, 1, 0, -1, 0
1503944276136,-3, -7, -1, 1, -3, -1, -3, -2
1503944276151,1, -1, -9, -2, 2, -2, -2, -1
1503944276174,-3, 0, 3, -2, -2, 0, -1, -2
1503944276195,-7, -10, -6, -1, -4, -1, -1, 0
1503944276212,6, 3, 3, -1, -1, 0, -2, -3
1503944276233,-9, -12, 0, -1, 0, -2, 0, -3
1503944276255,2, 2, 0, 0, -1, 2, 2, 1
1503944276278,3, -11, -1, -2, 0, 0, 0, -1
1503944276293,-3, -2, -5, 0, 0, -1, -1, -1
1503944276315,2, 4, 0, -1, -3, -1, -1, 1
1503944276338,0, 8, -1, -1, -2, -1, -2, -1
1503944276353,10, 7, 2, 2, 1, 0, 1, 1
1503944276377,-3, 2, 2, 0, 0, -3, -1, -2
1503944276401,-10, -13, 0, -2, -2, 2, -1, -1
1503944276414,-1, -4, -1, 0, 0, -2, 1, 2
1503944276437,-4, 0, -2, -2, 0, -2, -4, 0
1503944276459,-1, 4, 0, 2, -2, 0, 1, -2
1503944276474,8, 9, 1, -3, 0, -1, -5, 0
1503944276497,-3, -9, -1, -3, -2, 1, 1, -4
1503944276520,-2, 2, -3, -4, -2, -1, 0, 0
1503944276536,-5, -2, -2, 1, -2, -1, -1, -2
1503944276557,2, 0, 0, 0, 3, -2, -1, -1
1503944276580,1, 9, -1, 0, -1, -1, -1, 0
1503944276594,9, 6, 0, 1, -4, 1, -1, -3
1503944276617,-4, 1, 2, -1, 2, -3, 1, -1
1503944276640,0, -10, -2, 0, 0, -1, -2, 2
1503944276654,-6, -1, 0, -1, 0, 0, 0, -1
1503944276677,-5, -3, -5, -3, -5, -4, -1, -2
1503944276699,-1, -3, -2, 1, -1, 0, 1, 0
1503944276716,-8, -36, -7, 0, 0, 0, 1, 0
1503944276737,4, -9, -2, -2, 0, -1, -1, 0
1503944276759,-8, 11, 1, 1, 0, -1, 1, -2
1503944276774,1, 4, 0, -2, 0, -3, -3, -3
1503944276797,-4, 10, -1, -3, 0, 0, 0, -1
1503944276819,7, 11, 1, 1, 0, 1, 0, 0
1503944276834,3, -6, 2, -1, -2, -1, -2, 0
1503944276856,-2, 7, 0, -3, -1, -3, -3, -3
1503944276864,-6, -4, -2, 3, -3, -3, -1, -2
1503944276886,-7, -11, 0, -3, -2, 2, 2, 1
1503944276910,0, 3, -1, -1, -2, -1, -3, -4
1503944276924,-6, -44, -5, 0, 1, 0, 0, -3
1503944276947,11, 24, 2, -1, -1, 1, 0, 2
1503944276969,-6, 3, 1, -1, -1, 0, 0, -4
1503944276984,4, 11, 0, -1, -2, -2, -1, -2
1503944277007,-2, -4, -2, -2, 1, -2, 0, 2
1503944277028,-2, 7, 2, -2, -2, 0, -2, 0
1503944277044,4, -3, -2, 3, 2, 1, -1, -3
1503944277066,-4, -3, 0, -1, -2, -2, 1, 1
1503944277088,-3, 1, -2, 0, -3, 0, -3, -1
1503944277111,-4, 0, 0, -2, -2, -3, -2, -2
1503944277126,0, -3, 0, -1, 1, 0, 1, -2
1503944277149,4, 2, -2, -5, 1, -2, -3, 2
1503944277163,13, 10, 0, 1, -3, 0, 2, 0
1503944277186,-5, -2, -1, 2, -1, -1, 0, -4
1503944277209,2, -4, -3, -2, -1, -2, -3, 1
1503944277231,-4, -3, -2, -1, 0, 1, -2, 0
1503944277246,3, -1, -2, -1, 1, -3, -1, -2
1503944277269,2, -18, 2, 1, 2, -1, 2, 1
1503944277291,-7, 3, -1, 0, -4, 0, 0, -1
1503944277311,-3, 1, -1, -3, -1, 1, -2, -3
1503944277335,-1, 2, -1, -1, 1, -1, 0, 2
1503944277351,-7, -1, 0, 0, 1, 0, -5, 0
1503944277366,1, 8, -4, -2, -1, 0, 1, -3
1503944277389,-5, 4, 0, -1, -5, -2, -2, -3
1503944277418,-4, -3, 1, 1, -1, -1, 0, -2
1503944277426,3, 8, 1, 2, -2, -1, 1, 0
1503944277449,-1, -1, 0, 0, -2, -1, 1, 0
1503944277471,7, 7, 0, -3, -1, -3, -4, -2
1503944277486,0, -7, -3, 0, 0, 0, -2, 2
1503944277511,2, 0, 0, -1, -3, 2, -4, -2
1503944277531,-7, -5, -1, -1, 1, -3, 1, -2
1503944277561,0, 2, -3, 0, -1, 0, -1, -2
1503944277579,5, -4, -2, -1, -2, 0, -2, -3
1503944277599,-2, 7, 0, -2, 1, -3, 0, -1
1503944277621,2, -10, 0, 1, -2, -2, -1, -4
1503944277637,-1, -10, -4, -1, -1, 0, -2, 0
1503944277659,-2, 13, 0, 1, -5, -2, 2, -1
1503944277681,-6, 2, 2, 0, 3, -1, 0, 0
1503944277696,3, -3, -2, 0, -1, -3, -1, -4
1503944277711,-5, 2, 0, -1, 0, -1, 1, 0
1503944277733,6, 0, -2, 0, -1, 1, -4, 0
1503944277749,3, 11, 0, -1, -1, -2, -1, 0
1503944277771,-3, -12, -1, 0, -1, -1, 0, 0
1503944277786,-5, -9, -2, -2, -1, -2, -4, -5
1503944277810,0, 1, 1, 2, 1, 0, 2, -1
1503944277831,0, 3, -1, 1, 1, -3, 1, -1
1503944277847,-1, -2, 0, -6, -3, -2, -1, 1
1503944277869,-4, 7, -2, 1, -1, -2, -3, -2
1503944277891,-5, -7, 0, -1, 0, -1, 1, 0
1503944277906,-2, 0, 0, 0, -2, 1, 0, 2
1503944277928,2, -6, -3, -1, -2, -1, 0, -5
1503944277951,1, -3, -1, -1, -1, 1, -2, 2
1503944277966,-5, -5, -1, -1, -1, -2, -1, -3
1503944277989,-2, -1, -3, 0, -2, -3, -1, 0
1503944278013,7, 3, 3, -1, -1, 1, -1, -1
1503944278026,-7, -8, 0, 0, 0, -3, -2, -1
1503944278049,-4, 3, 0, 1, 1, 1, -1, -2
1503944278071,9, 4, 0, -1, 0, -2, 0, -1
1503944278086,-4, 1, 0, -3, -1, 1, 0, 4
1503944278109,-6, -1, -3, 1, -1, 0, 0, -2
1503944278131,3, -12, -3, -1, -1, -1, 0, -1
1503944278154,4, 2, 1, 0, 0, 1, -1, -1
1503944278169,-11, -4, -3, -3, 0, -1, 1, -1
1503944278191,3, 0, -1, -2, 1, -2, -1, 1
1503944278215,-8, -6, -1, 0, -2, 0, -2, -1
1503944278228,9, 2, 0, -2, -2, -1, 0, 1
1503944278251,-3, 0, -1, -1, 0, 0, -1, -2
1503944278273,-1, -1, -1, 0, -1, 0, -2, 0
1503944278289,7, 3, -3, 0, -2, -1, 0, 0
1503944278311,-4, 3, 2, 0, 1, -3, -2, -3
1503944278334,-3, -4, -5, -3, -1, -2, 0, -2
1503944278349,-4, -7, -1, 0, -1, -1, -1, 0
1503944278371,-7, -3, 1, 2, -2, -2, 0, 1
1503944278394,3, -1, 0, 0, 0, 1, 0, -1
1503944278408,-2, 0, 0, -4, -5, -3, -2, -1
1503944278431,7, 9, -1, 0, 1, -1, 0, 0
1503944278454,1, -2, -4, -2, -1, -1, -1, -2
1503944278469,2, 10, 3, 1, 1, 0, 0, -3
1503944278491,-3, -8, -2, -3, -1, 0, 2, 1
1503944278517,-8, -3, -1, 1, 1, -2, -2, -3
1503944278529,7, 1, 0, -3, -1, 0, -1, 0
1503944278551,1, -1, -1, 3, 1, 0, 0, 1
1503944278573,-3, 0, 0, -2, -4, -2, -3, -2
1503944278589,-7, 6, 3, 0, 0, -1, -2, -2
1503944278614,5, 0, -3, -1, -1, 1, 0, 0
1503944278633,-6, -14, -2, -1, -2, -4, 2, -1
1503944278655,1, -5, 0, -2, 0, -2, -1, -2
1503944278671,-3, 7, -2, 1, -2, 2, -2, -1
1503944278694,4, 3, -1, -1, -1, 0, 2, 2
1503944278708,-10, -4, -3, -1, 1, 0, -2, -3
1503944278731,1, -1, 1, -2, -3, -2, -1, -1
1503944278756,-3, -8, -4, -3, -5, 0, -2, 0
1503944278769,0, -1, 0, 0, 0, -2, 0, -4
1503944278799,-3, 0, -1, 1, -4, 0, -1, -5
1503944278823,0, 3, -1, -2, -2, -1, -2, -1
1503944278844,2, -7, -2, -1, 0, -1, -2, -3
1503944278861,-16, 3, 2, -1, 1, -2, 0, 2
1503944278882,-4, -7, -2, -3, -1, -1, -2, -7
1503944278904,5, 3, 0, -2, -3, 0, -1, 4
1503944278919,-3, -4, -2, -1, -2, 1, -1, 4
1503944278943,7, 4, -2, 1, -1, -1, 1, 0
1503944278963,1, -14, -2, -2, -1, -2, -3, -5
1503944278979,-2, 2, 0, 0, -2, -1, 0, 1
1503944279001,-4, -5, -2, -1, 0, -1, -2, -1
1503944279024,12, 10, -1, -1, -2, -2, 0, -1
1503944279047,-9, 0, 1, 0, 1, 2, -1, 2
1503944279062,-2, -3, -1, -1, -1, 2, 0, 1
1503944279076,0, 3, -1, 3, 0, -3, -1, -2
1503944279091,1, 6, 0, -1, -3, -2, -3, 3
1503944279113,-4, 2, -2, -1, -2, 1, -2, -3
1503944279122,3, 1, -3, -1, -1, -3, 1, 0
1503944279145,-5, 6, 0, 0, 0, -2, -3, -3
1503944279166,-4, -1, 1, -1, -2, -2, -3, 1
1503944279182,-3, 3, 0, -1, 1, -2, -3, 0
1503944279204,3, 1, -1, -1, -3, 0, 0, 0
1503944279226,-4, -1, -2, 0, 0, -2, -1, -2
1503944279242,4, 6, 1, -1, -3, -2, 0, 0
1503944279264,-2, -3, 1, 2, 1, 0, -2, -1
1503944279289,2, -3, -3, -3, 0, 0, 1, 1
1503944279301,-1, 3, -1, -2, -2, 1, 1, -4
1503944279316,-4, -5, -2, 0, -1, -1, -4, 0
1503944279331,-1, 1, 0, -1, 1, 1, 0, -3
1503944279356,-1, -3, -2, 0, 1, -3, 0, 3
1503944279375,-1, 5, 2, 1, -3, 0, -2, -1
1503944279384,-6, -4, -1, -1, 0, -3, -2, 1
1503944279406,-3, -4, -2, -2, -2, 0, 1, -3
1503944279424,1, -1, -1, 2, 0, -3, -1, -1
1503944279443,1, -5, -2, -4, 1, -2, 0, 2
1503944279466,-4, -10, -3, 3, 1, 2, 0, 3
1503944279481,-1, 5, -1, -1, -2, -1, -2, -2
1503944279503,-13, 3, 0, -2, -2, 0, -2, -3
1503944279511,0, 2, -1, 0, 1, 0, 1, 0
1503944279534,3, 1, 1, -1, -1, -2, -3, -4
1503944279558,-4, -4, -1, -1, 0, -2, -2, 0
1503944279571,-5, -3, -2, -2, -3, -1, -1, -2
1503944279594,3, -1, 0, 0, 0, 0, 2, 0
1503944279615,-2, -2, -2, -3, 0, -4, -2, 0
1503944279632,-2, -2, 1, 1, -2, 1, 2, 1
1503944279653,2, 5, -1, 1, 0, -3, -3, -2
1503944279663,1, 2, -2, -2, 1, -2, -1, 0
1503944279684,0, -1, 0, -4, 0, -2, 0, -2
1503944279706,4, 10, 1, 1, 0, 1, 1, 0
1503944279722,-5, -5, -3, -1, -1, -3, -3, -1
1503944279743,-1, -1, -2, -2, -2, 0, 1, 1
1503944279766,-1, -3, -1, 1, 3, 0, 0, 0
1503944279782,0, -1, -1, -3, -2, -1, -2, 1
1503944279804,-8, -1, -3, -1, -2, -2, -1, -2
1503944279827,-1, -15, 0, 3, -1, 0, 1, -1
1503944279842,2, 2, 0, -2, -1, 0, 0, 1
1503944279864,3, 11, 1, -1, 0, -1, 0, -4
1503944279893,3, 3, -1, 0, -3, 1, -1, 0
1503944279902,-1, 3, 0, 1, 1, 0, -2, -1
1503944279926,-2, -2, -2, 0, -4, -3, -1, 0
1503944279946,1, 0, -1, 0, -2, -2, 2, -1
1503944279962,-2, 0, -2, -2, -1, 1, -1, 0
1503944279984,-1, -4, 0, 2, 3, -1, -1, 0
1503944280006,-3, -5, -1, -1, 0, -1, 0, 1
1503944280029,0, 0, -2, -1, 0, -1, -4, -3
1503944280044,1, 4, 1, 0, 0, 1, -1, -4
1503944280066,-6, -9, -3, -4, 0, -2, 0, 0
1503944280088,-8, -3, -2, -1, 0, -1, -2, 0
1503944280104,6, -1, -3, -3, -2, 0, -1, 0
1503944280127,4, 6, -1, 1, 0, -2, -1, -1
1503944280149,1, 6, 0, -1, 0, 1, 0, 1
1503944280164,-6, -18, -1, -1, 1, -1, 0, -2
1503944280186,6, 7, 0, -2, -2, -2, 1, 2
1503944280209,-2, -5, -1, 2, -1, -1, -1, -2
1503944280224,3, 5, 0, -2, -1, -3, -1, -2
1503944280246,5, 6, 3, -1, 1, -1, -2, -2
1503944280270,-5, 3, -2, 1, 0, -1, -2, 0
1503944280284,-4, -2, -2, -2, -2, -2, 2, -2
1503944280306,1, -25, -2, -2, -2, 1, -3, 0
1503944280329,-1, -2, -2, 1, -3, -1, 0, -1
1503944280344,0, 5, 2, 1, -2, -3, 0, 0
1503944280368,1, 11, 1, -1, 0, 1, -2, -3
1503944280388,-5, 0, -1, -3, 0, 0, -2, 0
1503944280405,3, -10, -2, -3, -2, -1, 1, 1
1503944280426,-2, -21, -6, 5, 1, 0, -2, -3
1503944280448,-10, 8, -2, -6, -4, -3, -4, -4
1503944280464,14, 19, 3, 2, -1, -2, -1, 4
1503944280486,-6, -4, -1, -1, 2, -1, 1, 1
1503944280495,1, -5, 0, -1, -3, 0, 0, -1
1503944280515,0, -1, 0, -1, 0, 3, 1, -3
1503944280538,-3, -5, 0, -1, -1, -2, -2, 0
1503944280546,0, 2, -1, -1, -1, -3, 0, 2
1503944280569,12, 8, 0, 0, -1, -2, 1, 1
1503944280583,-6, -2, 2, -3, 2, 1, -1, -1
1503944280606,-2, -2, -2, -2, -3, 1, -2, -3
1503944280632,-2, 7, 3, 2, 1, -1, -1, -3
1503944280643,-6, 2, -1, -1, -2, -2, -1, -1
1503944280666,-1, -6, 1, -2, 0, 1, 0, -3
1503944280688,4, -8, -3, -3, 0, -3, 0, 1
1503944280705,2, -2, -1, 2, -2, -2, -1, 0
1503944280726,-10, -16, -1, -2, -1, 1, 1, 0
1503944280734,9, -3, 0, -3, 1, 0, 0, -5
1503944280755,-1, 1, 0, 0, 0, 0, -2, 1
1503944280778,-1, 7, -3, -3, -3, -3, -2, 1
1503944280793,-3, 1, 0, -1, 0, 1, -1, -2
1503944280815,-1, -1, -1, 0, 0, 0, 0, 0
1503944280838,0, -8, -2, -3, -3, -1, -1, -3
1503944280853,0, -4, 0, 3, 1, -1, -3, -4
1503944280884,-3, 0, 1, 0, 0, 0, 0, 0
1503944280900,-5, -5, -1, 1, 1, 1, -2, 1
1503944280907,-2, 16, 5, -2, -2, -2, -1, -2
1503944280929,6, -3, -1, 2, -1, 0, 0, 1
1503944280951,-8, -11, -2, -2, 1, -1, 0, -1
1503944280967,-5, -4, -3, -4, -1, 0, -1, -5
1503944280981,-6, -3, -4, -1, -1, -2, 2, -4
1503944280996,3, -4, -2, 0, 0, -1, -1, 1
1503944281018,-6, -8, 0, 1, -2, 0, -5, -3
1503944281040,-17, -9, -6, 3, 1, 3, -1, -3
1503944281056,5, -3, 0, -1, -1, 0, 1, 1
1503944281078,4, 6, 2, -3, -1, -3, -2, 0
1503944281101,-3, -3, 0, -1, 0, 0, -10, 0
1503944281116,5, -1, -1, -4, 0, 4, 10, 0
1503944281138,0, -1, -3, -2, 0, -4, -2, -1
1503944281160,12, 8, 1, -4, -5, 5, 10, 2
1503944281183,-16, -7, -2, 1, -2, -9, 1, -6
1503944281193,-5, 0, 0, 1, 1, 6, 8, 1
1503944281207,-2, 3, 0, -3, -2, -5, -6, -5
1503944281228,35, 22, 3, 0, -1, 2, -2, 4
1503944281251,-27, -25, 0, 3, 1, 3, 13, -1
1503944281269,-17, -21, -2, -1, -1, -3, 6, -2
1503944281289,-12, 6, 0, 0, -2, -3, -3, -4
1503944281311,-5, -25, -6, -3, 1, -2, -4, 2
1503944281326,-4, 10, 2, -2, 0, -1, 0, 2
1503944281348,2, -23, -7, -1, -2, -1, 0, 0
1503944281359,0, -9, -2, -1, -3, -3, -1, 0
1503944281378,-6, -7, -2, -2, -2, 0, 4, -4
1503944281403,-2, 7, 2, 3, 3, 1, 1, -1
1503944281409,0, -34, -4, -1, 2, 6, 3, -3
1503944281431,-14, -7, 0, -5, -5, -5, 6, -1
1503944281446,6, 11, 2, 1, 2, -1, -7, 2
1503944281472,-3, -11, -7, -1, 0, -2, -1, -1
1503944281491,5, 27, 0, 6, 4, -1, 2, 0
1503944281507,-7, -6, 0, 0, -2, -3, -4, 0
1503944281528,-2, 4, -1, -1, -3, -2, -2, 0
1503944281551,-15, -3, 1, -2, -3, 0, -4, -3
1503944281566,9, 15, 3, 0, -5, -2, -2, -1
1503944281588,6, -3, -2, 1, 10, 2, -2, 0
1503944281611,-3, -1, 1, 1, -2, 2, 1, 0
1503944281626,-1, 4, 3, -2, 2, -5, -2, -5
1503944281649,-11, -14, -1, -1, -3, 0, -4, -2
1503944281673,3, 5, -1, -7, 1, 1, 6, 2
1503944281686,4, 8, 0, 1, -4, 1, -4, 2
1503944281709,2, 0, -1, 0, -5, 0, 6, 1
1503944281731,-4, 4, 0, 1, 2, -3, 1, -2
1503944281746,9, 0, -5, -4, -1, -4, -3, -2
1503944281769,-1, -7, -1, 1, -2, 0, -6, 1
1503944281793,-5, -6, 1, 0, 1, 0, -3, -2
1503944281806,-3, -1, -3, 1, -6, 0, 2, 0
1503944281828,15, 7, 1, -2, 2, 2, 0, 1
1503944281852,2, -1, -2, 2, -2, -2, 2, -1
1503944281874,-6, -7, -1, -2, -2, 0, -2, 0
1503944281888,-9, -7, -5, 0, 3, -2, -2, 0
1503944281926,0, -4, -2, 0, 2, 3, -2, -1
1503944281941,-4, -3, -1, -1, 1, -1, 1, 0
1503944281948,-7, 0, 1, 1, -1, 1, -1, -3
1503944281964,6, 3, -1, -1, -1, -3, -1, 0
1503944281974,-8, -7, 1, -3, -2, 1, -3, 0
1503944281993,1, -6, 0, 0, -2, 1, -1, -3
1503944282002,0, -3, -2, -2, 0, -1, 1, 1
1503944282024,3, 9, 0, -1, -2, -1, -2, -4
1503944282042,1, -3, 0, 0, 2, 0, -2, 1
1503944282062,-2, -7, -3, 0, -1, -1, -2, 0
1503944282084,4, 9, 2, 0, -1, 0, 1, -2
1503944282099,-1, 0, 0, 0, 1, -1, -2, -2
1503944282121,-11, -8, 1, -1, 1, 0, -1, 2
1503944282144,13, 8, 0, -1, -1, -1, -1, -4
1503944282152,2, -1, -2, -2, 0, -3, -4, 0
1503944282175,1, 4, -1, 0, -1, -1, 0, 1
1503944282188,-5, -7, -3, 1, 0, 1, 2, 1
1503944282211,4, 0, 0, 1, 0, -1, -2, 0
1503944282233,-2, 2, -2, -6, -3, -3, -1, -4
1503944282248,-1, 1, -2, 0, -1, -1, -3, 0
1503944282271,-3, 1, -1, 1, -2, 0, 1, -6
1503944282294,-1, 4, 2, -2, -2, -3, -2, 2
1503944282311,-1, -1, -1, 0, 0, -1, -1, -2
1503944282331,2, 2, 0, -3, 1, 1, -3, 0
1503944282343,-8, -6, -5, -2, 2, 1, 2, -1
1503944282363,1, 1, 0, -1, -2, -4, -3, -1
1503944282385,-7, -5, -3, -2, -2, -1, -2, -5
1503944282399,1, -1, 2, 0, 1, 1, 2, 2
1503944282422,8, 7, 2, -1, 0, 1, -2, -2
1503944282444,-1, -1, -3, 1, -2, -1, -2, 0
1503944282466,-2, -1, -2, -3, -4, -4, -3, 3
1503944282488,3, 3, 0, 2, 0, -2, -1, -1
1503944282504,0, -5, -2, -2, 1, -2, -1, -2
1503944282520,-6, -3, -1, -1, -2, -1, 0, -1
1503944282543,0, 0, 0, 2, 2, 2, -1, 0
1503944282564,0, 1, -1, -1, 0, 1, -3, -2
1503944282579,-8, -5, -1, 0, -1, 0, 1, 0
1503944282601,-3, -1, -2, -2, 0, -2, -2, -1
1503944282624,-4, -4, -1, -1, -3, -4, 0, 0
1503944282639,4, 5, -1, -1, -2, -1, 0, -2
1503944282654,2, 0, 1, -3, -2, -1, -1, -3
1503944282668,-5, -5, -1, 0, -1, 0, 0, 1
1503944282691,0, 5, -3, -2, -1, -1, -2, 0
1503944282714,3, 3, 0, 0, 4, -4, 0, 0
1503944282728,0, -1, 0, -2, -3, 1, -1, -3
1503944282746,4, -1, -2, 0, -1, -4, -3, -2
1503944282759,-7, -3, 0, 1, 3, 3, 0, 0
1503944282782,4, 3, 0, -4, -2, -1, -1, 0
1503944282804,3, -1, -2, -3, -1, 1, -1, -1
1503944282826,-1, 2, -1, 0, 0, -2, -1, 0
1503944282842,-2, -5, -2, 1, -2, -2, 0, -1
1503944282864,4, 2, 0, -3, 0, -1, -2, -2
1503944282888,6, 0, -2, 1, 2, -3, 0, 1
1503944282893,-1, -5, -5, -3, 0, 1, 3, -2
1503944282916,-6, 1, -1, -5, -2, 0, -1, -2
1503944282931,7, 2, 0, 2, -1, 0, -1, -2
1503944282960,-6, -4, -1, -1, -2, 1, 1, -1
1503944282962,-4, -6, -3, -1, -1, -3, 1, 2
1503944282984,-8, -2, 0, -3, 0, 1, 0, -1
1503944283006,-4, -4, -2, -1, -2, -5, -2, -3
1503944283022,-1, -6, -4, -1, 1, 1, -3, -2
1503944283044,0, 3, 0, 0, 0, -2, 0, 1
1503944283066,1, 2, -1, -1, 2, 0, 1, 0
1503944283082,3, -7, -3, -1, -1, -1, 0, -3
1503944283104,-2, 0, 1, 0, 0, -1, -1, 2
1503944283126,0, 3, 1, -1, -5, -1, -3, 1
1503944283141,-1, -2, 0, 2, 0, -2, -1, -2
1503944283164,-2, 2, -1, -2, -1, 0, 0, -3
1503944283186,1, 0, -1, -1, -1, -1, -1, -2
1503944283201,-2, -3, -2, -2, -1, 0, -1, -1
1503944283224,-1, 1, 2, -1, -1, 3, 0, -3
1503944283251,-5, -4, -4, 1, -2, -1, 2, 4
1503944283254,7, 3, 2, 1, -1, 2, 0, -1
1503944283276,0, -2, -1, 0, 0, -2, -3, 1
1503944283292,-2, 2, -3, -3, -1, 1, 0, -1
1503944283315,2, 3, 2, 0, -3, -1, -2, -1
1503944283336,-6, -9, -2, -3, -2, -1, 0, 1
1503944283351,-4, -2, -2, -2, 0, 0, 1, 0
1503944283373,2, -1, 0, 1, 0, -2, 0, 1
1503944283396,-1, 1, -1, 0, 1, 1, 0, 1
1503944283411,1, 2, -2, -3, -4, -3, 0, -2
1503944283433,3, -2, 0, 0, 0, -1, -2, -1
1503944283456,2, 2, 3, 0, 0, -1, -1, 0
1503944283478,-7, -6, 0, -1, -1, 0, -1, 0
1503944283487,-3, 1, -1, 0, -4, 1, -1, -2
1503944283501,3, -4, -1, 0, -1, 1, -2, -1
1503944283524,-5, -11, -6, -3, -1, -2, 0, 3
1503944283546,3, 6, 1, 0, 0, -1, -3, 0
1503944283561,-8, -4, -2, 1, -1, 0, 0, 1
1503944283576,-3, -5, 0, -4, -4, -4, 0, 0
1503944283591,-3, 1, -3, 1, -1, -1, 1, -2
1503944283613,3, -4, -4, -2, -3, -1, -4, 0
1503944283636,-2, 4, -1, -1, 0, 2, 1, 1
1503944283653,2, -4, -1, 0, 1, -1, -3, -1
1503944283673,-1, 2, -1, -3, -5, -2, 1, 0
1503944283696,-6, -4, -1, -1, -1, -1, -2, 2
1503944283720,1, 1, -3, 0, 0, -1, -1, 0
1503944283734,-4, 0, 1, 3, 3, -2, -1, -2
1503944283757,1, 0, 0, -2, -4, -4, -5, -1
1503944283778,0, -1, 0, 1, -1, 0, -2, 0
1503944283794,10, 3, 2, 1, 2, 3, 3, -3
1503944283816,-7, -3, -3, -3, -1, -1, -1, -1
1503944283838,-1, -1, 3, -3, -4, -2, 2, -2
1503944283854,-3, -3, -3, -1, -1, 0, 9, -1
1503944283876,-5, -2, -1, 1, -2, 1, 12, 1
1503944283886,5, -2, -2, -3, -3, -1, 0, 3
1503944283906,-11, -6, -3, 1, 0, -3, -1, -2
1503944283914,3, 0, 0, 1, 2, -3, -3, -7
1503944283936,4, -3, -1, -2, -2, 1, -4, 0
1503944283959,-4, -1, -1, -1, -1, -1, -5, -4
1503944283973,14, 6, -1, -2, -4, -3, -5, -4
1503944283996,-3, -3, 1, 2, 1, 2, 1, 3
1503944284021,-4, -3, -3, -2, -1, 1, -1, 2
1503944284033,-16, 7, 0, -1, -1, -2, 0, 5
1503944284056,4, 14, 0, -3, -1, -2, -5, -6
1503944284078,-3, -9, -1, 0, -3, 1, -3, -1
1503944284094,7, -3, 0, -1, 0, 0, 2, -1
1503944284116,-9, -10, -1, 1, 2, -1, -2, -5
1503944284138,12, -4, -2, 1, -1, -3, -2, 2
1503944284156,-6, 0, 1, -4, 1, 1, -2, -1
1503944284176,2, 19, -1, -2, 0, -4, 1, 1
1503944284198,-6, -10, -4, -1, -1, 0, -1, -5
1503944284214,5, -13, -3, -1, -3, -1, 6, -7
1503944284236,7, 5, 0, -1, -5, -2, -1, -1
1503944284259,-9, -7, 1, 0, -3, 1, -2, 3
1503944284273,2, 10, 3, -2, 3, 0, -4, 3
1503944284296,-9, -15, -3, 0, 3, 1, 3, 0
1503944284318,-9, 2, 2, 3, -3, -1, -4, -6
1503944284333,-2, -7, 1, 2, 2, 3, 0, 4
1503944284358,-1, 15, -1, -3, -3, -1, -4, 1
1503944284378,-7, -14, -3, -5, -10, -4, 6, 3
1503944284394,4, 5, -2, -1, -3, 0, -4, -1
1503944284416,-1, -2, -5, -5, -9, -5, -3, -4
1503944284438,-5, -22, -2, -1, 6, 0, -1, -3
1503944284453,11, -1, 2, 8, 17, 2, -2, -4
1503944284476,3, -1, 0, -6, -4, -1, -2, 1
1503944284499,-4, 0, 0, -2, -11, 0, -2, 0
1503944284514,-3, 0, -2, -2, 2, -2, -1, -2
1503944284536,14, 27, 0, 7, 12, -1, 0, 2
1503944284558,-10, -12, -3, -7, -7, -2, -4, -4
1503944284573,10, 3, -1, -8, -22, -3, -1, 2
1503944284597,-4, -5, -3, -6, -12, -4, 2, 5
1503944284618,-3, 12, 2, 5, -3, -3, -1, 0
1503944284640,-7, -7, 2, 0, 1, 2, -1, 2
1503944284656,-7, -10, 1, 3, 3, 0, 0, -4
1503944284678,-11, -13, 3, 1, 1, -4, -4, -6
1503944284701,-1, -44, -14, -2, 5, 2, -1, 2
1503944284716,-5, -21, -3, 1, 2, -3, -2, -1
1503944284738,10, 11, -5, -4, 4, 2, 4, -2
1503944284760,8, 19, 6, 3, 3, 1, 0, 2
1503944284776,-9, 5, 5, -6, -4, 1, 0, 0
1503944284799,-9, 6, 3, -4, -10, 0, -3, -2
1503944284820,14, 17, 2, -2, 6, 1, 27, 5
1503944284836,0, 6, -1, 1, 0, -1, -4, 0
1503944284860,2, 5, -2, 1, 8, 1, -6, 0
1503944284880,-3, -3, 1, 9, 16, 1, -4, -2
1503944284896,26, 4, 1, -5, -9, -5, -7, -3
1503944284918,-2, 0, -4, -4, -6, -2, -4, -3
1503944284940,-8, -3, -1, -1, 2, 0, -3, -10
1503944284956,16, 2, -8, 0, 0, 1, 2, 20
1503944284978,3, 16, 6, -2, -1, 0, -3, -12
1503944285000,-2, -11, -3, 1, -2, -1, -1, 0
1503944285009,5, -2, -9, -6, 1, 1, 0, 1
1503944285031,-19, -29, -3, -1, -1, -3, 1, -5
1503944285047,15, -16, -2, -3, -1, 2, 3, 3
1503944285068,-16, 0, 10, 6, 0, -1, -2, 7
1503944285091,-33, -11, -2, -4, -3, -2, -4, -24
1503944285106,-19, -2, 6, 1, 1, -1, -2, 3
1503944285129,53, 15, -5, -1, -1, -1, 0, 35
1503944285137,-22, -21, -4, -1, -6, 0, 10, -8
1503944285158,-3, -19, 4, 2, 2, 2, -1, 10
1503944285180,-65, -7, 17, 3, 2, -2, 2, -35
1503944285196,6, 31, -2, -4, -1, 1, -2, -11
1503944285218,-6, -10, -8, -6, -1, 1, 1, 3
1503944285240,12, -8, -4, -2, -1, -2, -5, -5
1503944285256,11, 24, 0, 2, -3, 1, 1, 26
1503944285278,9, 5, -6, -3, 0, -2, 1, 1
1503944285301,1, -9, 2, 0, -2, -3, -5, -9
1503944285316,2, -11, -4, -2, -2, -2, -3, 1
1503944285339,-1, 0, -3, 0, 1, -2, -5, -6
1503944285361,-10, 7, 6, 0, 1, -1, -1, 1
1503944285376,-41, -23, -5, 0, -1, 0, -1, -14
1503944285399,1, -6, -7, -3, -7, -4, 0, 1
1503944285420,15, 11, 2, 2, 2, -1, 3, 3
1503944285436,-5, -14, -8, -5, -3, -1, -3, 0
1503944285451,18, -3, -3, 0, 0, -1, -4, 1
1503944285466,-22, -27, -8, 0, -1, -2, 1, -1
1503944285480,-5, -6, -4, 1, 2, -1, -2, -3
1503944285501,14, 6, -7, -1, 1, 2, 2, 11
1503944285518,-7, -16, 0, -2, 1, 0, -1, -2
1503944285541,5, 7, -4, 3, -1, 1, 1, 10
1503944285565,-5, 39, 12, 4, 1, -1, -3, -6
1503944285578,-21, -36, -13, -5, -3, -2, -2, -18
1503944285601,-8, 16, 2, -3, -2, 1, 1, -1
1503944285622,38, -3, -2, -3, 1, 0, 0, -5
1503944285640,4, -4, -2, -1, -2, -4, -1, 21
1503944285660,17, 19, 7, 2, 1, 2, -1, -4
1503944285682,-7, -26, -8, -2, 1, 0, 0, -5
1503944285699,-10, -19, -6, 0, -2, -3, -3, -8
1503944285720,10, 2, 11, -1, -1, -2, -2, 2
1503944285743,19, 51, -12, -2, 1, 1, 1, -12
1503944285758,-8, -16, -8, -3, -3, -3, -2, -6
1503944285775,1, 17, 7, -3, -3, -1, 1, 3
1503944285788,-17, -11, -5, -2, 4, 0, -1, -4
1503944285811,5, -18, -4, 1, 2, 0, -4, -3
1503944285834,10, 27, -1, 2, 0, -1, 3, -6
1503944285848,-18, -12, -6, 1, 3, 3, 0, -5
1503944285871,-17, -7, -5, -4, -4, -2, 1, 7
1503944285893,16, -1, 2, 1, -2, -1, -2, -6
1503944285910,10, 2, 4, 3, 1, 1, -4, 0
1503944285931,11, 13, -1, -2, 0, -1, -1, 0
1503944285953,1, 20, 15, 2, -2, -3, -3, -6
1503944285968,15, -6, -2, -3, -3, -5, -4, -3
1503944285983,27, 27, 11, 2, 4, 1, -1, 0
1503944285998,3, 10, -5, -2, 0, -2, -1, 0
1503944286020,6, -26, -11, -3, 0, -1, -2, 12
1503944286043,4, -5, -4, 0, -1, -1, 0, 4
1503944286058,4, -5, 0, -2, -2, 1, 2, -1
1503944286080,-12, 1, -5, -2, -5, -4, -2, 10
1503944286104,11, 4, 17, 2, -2, -1, -3, -6
1503944286118,12, 2, -4, -3, 0, 1, 0, -1
1503944286140,1, -11, -9, -5, -5, -2, 2, 1
1503944286162,3, -2, 7, 6, 3, 1, -3, -10
1503944286178,-28, -24, -8, 0, -1, 0, -3, -5
1503944286204,-36, -12, 13, 3, 5, -1, 1, -3
1503944286222,21, -10, -13, -5, 2, 2, 0, 9
1503944286238,-16, -6, -7, -1, -5, -2, -3, 5
1503944286260,48, 22, -11, 2, 4, -1, -1, 9
1503944286283,23, 1, -2, -1, -1, 3, 2, -3
1503944286305,-41, -4, -2, -7, -4, -5, -3, -3
1503944286327,-18, 1, 1, -1, -1, 1, 1, 0
1503944286343,-3, 22, 0, 4, 5, 1, 2, 1
1503944286373,2, 9, -13, 1, 1, 0, -5, -10
1503944286388,-12, -28, -6, -7, -1, 1, 0, 4
1503944286411,1, -4, 3, 0, -1, -2, -4, -2
1503944286433,13, 18, 7, 2, -1, -2, 1, -11
1503944286448,7, 10, 5, 0, 0, 0, -1, -3
1503944286473,-39, -28, -10, -4, -5, -4, 2, 18
1503944286493,18, 7, 7, 0, 1, -2, -6, -6
1503944286516,25, 2, 9, 2, 3, 0, -2, -6
1503944286531,-5, 5, 1, 4, 5, 3, 0, 1
1503944286553,1, 21, 1, -3, -4, -3, -1, -4
1503944286576,-7, 2, 6, 3, 3, 2, -4, -5
1503944286591,11, -14, -8, -2, -2, -3, 2, 6
1503944286613,-32, -2, -5, -3, -4, 1, 2, 1
1503944286636,8, -10, 1, 3, 1, -3, -2, -5
1503944286651,-6, -3, -4, -3, -4, 1, 0, 1
1503944286673,-4, -1, -6, -4, -2, -1, -4, -6
1503944286696,4, 21, 3, 2, 0, 3, 1, -1
1503944286711,-3, -9, -9, -5, -2, -3, 0, 1
1503944286733,-29, 3, 7, 0, 2, -1, 2, 4
1503944286756,12, 18, 4, 0, 2, -2, -2, -5
1503944286774,-20, 9, -3, 1, -1, 0, 0, 1
1503944286794,12, -12, 3, -2, -2, 0, -3, -1
1503944286816,23, -15, -10, -1, -1, 1, 0, 1
1503944286830,-16, 3, 0, 0, 4, -2, 1, 1
1503944286850,29, 4, -7, -1, -2, -1, -3, 1
1503944286861,-2, -12, -9, -3, -1, 1, 2, 2
1503944286883,10, 0, 6, 3, 1, -1, -1, -7
1503944286908,0, 6, 0, -5, -1, -1, -1, 2
1503944286914,-19, -11, 0, -2, 0, -1, -2, -5
1503944286936,5, -10, -10, -7, -6, -5, -5, -2
1503944286951,-4, -2, 1, -1, 0, 3, 5, 5
1503944286975,-9, -5, -7, -2, -2, -3, 1, 7
1503944286996,-6, 15, 7, 2, -1, 1, 1, -3
1503944287011,-14, -12, 5, 5, 5, 1, 2, -4
1503944287034,7, 0, 7, -1, -1, -1, -6, -4
1503944287056,12, -2, -3, 0, -1, -3, 0, 2
1503944287071,-16, -4, -5, -3, -1, -2, -2, -9
1503944287093,26, 18, 10, 5, -1, -3, -6, -13
1503944287116,-29, -8, -3, -2, -2, -2, -2, 3
1503944287130,-17, -7, -5, -3, -1, 0, 4, 22
1503944287153,8, -7, -9, -5, -3, 0, 1, 32
1503944287176,5, 13, 0, 3, 1, 0, -3, -24
1503944287192,0, -26, -6, -1, -1, -2, -2, -18
1503944287214,16, 5, 2, -1, 1, -4, -5, -14
1503944287229,35, 10, -3, 0, -3, 1, 2, 22
1503944287244,-19, 32, -4, -1, 0, 0, 1, 6
1503944287266,-35, -21, -7, -1, -2, -2, -3, -17
1503944287289,-22, -3, 9, 4, 1, -1, 0, 0
1503944287304,-40, 63, -8, -4, -1, 1, 4, 11
1503944287311,7, 5, 2, -4, -5, -1, -4, -4
1503944287333,15, 1, -13, -2, 0, 0, -2, -7
1503944287357,-21, 19, 4, 3, -1, 0, 1, -2
1503944287371,-7, -8, -9, -6, 0, -2, 1, 3
1503944287393,-54, -2, 6, 1, -1, -2, -3, -8
1503944287416,5, 8, 1, 0, 2, -1, 4, -2
1503944287438,11, 0, -1, -2, -4, -2, 0, 1
1503944287454,-26, -4, -1, 0, -2, -3, -3, -2
1503944287476,-17, -6, -2, -1, -1, 3, 0, -8
1503944287498,12, 21, -5, 2, 3, 1, -2, 4
1503944287513,4, -8, -3, -4, -3, -4, 0, 0
1503944287536,7, 19, 6, 1, 3, -2, -6, 0
1503944287558,18, 16, 0, 4, 2, 2, 3, 4
1503944287574,-45, -17, 0, 1, 2, 1, -2, -6
1503944287596,-2, -13, -1, -4, -5, -2, -1, -18
1503944287618,0, -5, 0, -1, 1, 1, 0, 11
1503944287633,11, -3, -4, 0, -1, 0, -1, 4
1503944287656,1, -1, 0, -2, -1, -1, 0, 3
1503944287680,-36, -12, -7, -4, 0, -1, 1, -2
1503944287693,-5, -14, -3, 0, 0, 0, 0, 4
1503944287716,-3, 4, 3, 5, 0, -2, -5, -8
1503944287738,16, 12, 3, 0, 0, 0, 0, 5
1503944287761,5, 0, 2, -2, 0, -1, 1, 1
1503944287776,26, 6, 0, -2, -1, -2, -3, -3
1503944287798,3, 6, -1, -1, -2, -4, -1, -5
1503944287814,11, -6, -4, 2, -4, -3, -1, -1
1503944287835,-11, -5, -1, 3, -2, -2, -2, -2
1503944287858,-5, -7, 0, 1, 2, 2, 0, 2
1503944287873,-6, 4, -8, -4, -3, 0, -1, -2
1503944287896,2, -5, 1, -3, 0, 0, -1, -1
1503944287920,8, 7, 0, -3, -2, -3, -2, -3
1503944287933,6, 5, -1, 0, 1, 1, -1, 2
1503944287957,-6, -5, 1, -2, 0, 2, 1, -2
1503944287978,-6, 0, 0, 0, -3, -2, 2, 0
1503944287993,-5, -18, -1, 2, -3, 1, -1, -4
1503944288018,5, 9, 0, -3, 0, -3, -4, 0
1503944288038,6, 2, 2, 3, 0, 0, -1, 1
1503944288048,-2, -5, -2, -2, -1, 0, -2, 0
1503944288068,0, -2, -5, -4, -4, -1, 0, -1
1503944288075,-6, -2, -1, -1, -4, -3, -3, -3
1503944288086,7, -1, 0, 1, 0, 1, 3, -1
1503944288106,-1, -1, -5, -4, 0, -2, -1, -2
1503944288129,0, 6, 3, 0, -1, 2, -2, -3
1503944288144,-11, -9, -6, 0, -4, -2, -3, 0
1503944288166,-7, -2, -1, -1, 1, -3, 0, 0
1503944288192,5, -10, 0, 0, 0, -2, -2, -2
1503944288204,-5, 0, -4, -2, -2, 0, -1, -1
1503944288226,15, 18, 9, 1, -2, 2, 0, 0
1503944288251,-8, -4, -6, 0, 2, 1, 0, -2
1503944288263,-1, -1, -3, -1, -4, -3, -3, -1
1503944288278,10, 3, 1, 1, 3, 0, -1, -3
1503944288293,-3, -2, -4, -5, -3, 1, 0, 1
1503944288317,-5, 4, 10, 2, 0, 1, 2, 2
1503944288338,1, -6, -1, -1, -1, -2, 0, -5
1503944288353,-7, -6, -3, -3, -2, -1, -1, 1
1503944288376,-8, -8, -3, 1, 2, -2, 1, 1
1503944288398,-1, -11, -3, -3, -2, 0, 0, -2
1503944288421,2, 4, -4, 0, -2, 1, 2, 2
1503944288435,13, 6, -2, -3, -2, -2, -4, -2
1503944288458,-4, 2, -1, -1, -6, 2, 1, 0
1503944288480,-6, -7, -2, -2, 0, -1, -2, -3
1503944288496,-1, 2, -3, -2, 2, -3, 0, 0
1503944288519,-9, -4, 1, -4, -2, -3, -2, -2
1503944288542,17, 16, 1, 4, -5, -1, 1, 3
1503944288556,-10, -3, 1, -3, -2, 1, -2, -4
1503944288578,2, 6, 0, 6, 0, -1, -1, -1
1503944288602,5, 2, 0, -3, 2, -1, -1, 0
1503944288615,-14, -14, -5, 1, 1, 0, -3, -3
1503944288638,3, -5, -1, -3, 1, -2, 1, 0
1503944288662,4, 1, 0, -1, 2, -1, -1, 0
1503944288676,16, 7, -1, -2, -1, 2, 10, 1
1503944288698,-6, -5, -3, -3, -4, -4, -3, -4
1503944288721,5, -2, -1, 1, -1, -1, -3, 1
1503944288736,-12, -3, 1, -2, -1, -2, -3, -1
1503944288753,4, -3, -1, -1, 0, -1, 1, 0
1503944288766,4, 2, 0, -2, -3, 6, 3, 0
1503944288781,1, -3, -1, -1, -2, -1, -4, 0
1503944288789,8, 4, 1, -2, -2, -5, -4, 1
1503944288810,0, -1, 0, -1, 0, -2, -3, -1
1503944288826,-2, -3, -1, -1, -4, -1, 1, 0
1503944288855,-11, -14, -2, 0, -1, 0, 0, -3
1503944288857,-7, -6, -3, -1, 1, -2, -2, -4
1503944288878,1, 0, -1, -1, -2, -1, 1, -1
1503944288907,-6, -5, 0, -3, -2, -1, -1, 1
1503944288909,-1, -4, 1, 2, 2, 0, -3, -4
1503944288932,2, 4, -2, -2, -1, 0, -1, -1
1503944288946,-4, 0, -1, -1, -2, 0, 1, -1
1503944288969,7, -2, -2, -1, -2, -4, -1, -3
1503944288993,-4, 1, 1, 1, -1, 0, -1, -1
1503944289006,-4, -4, -2, -2, -3, -4, -4, -2
1503944289029,0, -3, 1, -2, -1, 1, -1, -1
1503944289050,6, 4, 0, 0, -2, 0, -1, -1
1503944289066,-18, 2, 0, 0, 1, -1, 3, 0
1503944289094,3, -14, -2, 1, -2, 1, -3, 1
1503944289110,4, 3, -2, 0, 1, 0, -1, -2
1503944289128,3, -1, -1, -1, 0, -3, 1, -1
1503944289149,-6, -2, -1, -1, -1, -1, -4, -1
1503944289170,5, 2, -2, -3, -3, -2, -2, -2
1503944289178,6, -1, -1, 0, -2, 0, -2, -3
1503944289202,-1, -3, -3, 0, 1, -5, -2, -3
1503944289215,15, 7, 0, -1, -1, -1, -2, 0
1503944289238,-2, 5, 2, 3, -1, -3, -1, 0
1503944289263,1, -1, 2, 0, -2, 1, 0, -2
1503944289275,6, -5, -4, -1, 0, 1, 0, 1
1503944289301,-5, 0, 1, -2, -2, 1, 2, 0
1503944289320,-1, -4, -2, -2, 0, -1, -3, 0
1503944289342,7, 4, -3, -2, 0, -1, -5, -4
1503944289351,-3, -4, -3, 3, 0, -1, 1, -3
1503944289373,-7, -5, -2, 0, -4, 0, -1, -1
1503944289390,1, 0, 0, 0, 1, 0, 0, 1
1503944289410,-4, -4, -3, -3, -1, -4, -3, 0
1503944289434,3, 1, 0, 2, 0, 1, -2, -2
1503944289448,4, -2, -2, -4, -3, -1, -1, -1
1503944289471,-1, 2, 3, -3, 0, -1, 3, 1
1503944289494,-2, 2, -1, 0, -1, -2, -1, 1
1503944289508,3, -1, -2, -1, 0, 1, -1, -2
1503944289531,2, 1, 1, -2, -2, -2, -2, 1
1503944289553,6, 2, -1, 1, -3, 0, 0, 0
1503944289569,-12, -10, -3, -3, -2, -2, -3, -3
1503944289598,1, 0, -1, -1, -1, -2, -2, 1
1503944289613,-1, -2, -1, 3, 2, 0, 0, -2
1503944289630,1, -1, -3, -2, -1, -1, -2, -1
1503944289650,-1, -2, -1, 0, -2, 1, 1, -3
1503944289673,0, 1, 0, 0, 2, -3, 1, 2
1503944289688,-2, -5, -1, 1, -2, -4, 3, -1
1503944289703,1, 2, -2, 0, 3, -1, 0, 1
1503944289718,14, 4, 0, -2, -1, 1, -3, -2
1503944289741,-4, -9, -4, -2, -3, -3, 0, 3
1503944289764,-4, 0, 2, -1, 0, -3, 0, -2
1503944289778,-6, 1, -1, 1, -2, 0, 0, 0
1503944289801,0, -9, -4, -1, -2, 1, -1, -3
1503944289822,-6, -7, -1, -4, -2, -2, -4, -2
1503944289838,7, 6, -1, 0, 1, -2, 3, 2
1503944289863,-2, -1, 0, 1, -1, 2, -3, 0
1503944289882,2, -6, -3, 1, 0, -1, -2, -1
1503944289891,-2, 2, -1, -4, -1, -3, -1, -1
1503944289913,-1, -3, 0, -1, -1, -1, -1, -3
1503944289932,6, 3, -1, -3, 0, -2, 2, 0
1503944289950,-6, -8, -3, 1, 1, 3, -2, -1
1503944289973,4, 0, 0, -1, -2, -3, -3, 0
1503944289988,7, 1, 2, -1, -2, 1, 1, -5
1503944290003,-7, -5, -3, 0, -1, -1, -2, -1
1503944290018,-3, -1, 1, -1, -1, -1, -1, 1
1503944290041,1, 5, 1, -2, -1, -1, 0, -1
1503944290064,6, 3, -1, -2, -1, -1, -4, 1
1503944290078,-6, -6, -1, 1, 0, 2, -1, -2
1503944290101,2, -2, -3, -1, -3, -3, -3, -2
1503944290123,-4, -4, 1, -1, 0, -1, -2, -2
1503944290145,-1, -11, -4, 0, -1, -1, 2, -1
1503944290168,-5, 1, -3, 0, -2, -3, -2, -2
1503944290183,-4, -6, 0, -2, -3, 0, -1, 1
1503944290198,-1, 1, -1, -1, -1, 1, 0, -1
1503944290221,-7, -4, -2, 0, 0, 0, -2, -2
1503944290242,1, 3, 1, 0, 1, -3, -1, -1
1503944290266,-2, -4, -2, -1, -3, 2, -2, -3
1503944290281,4, 4, -1, -2, 0, -2, -1, -1
1503944290303,2, -5, -3, -4, 1, 0, 3, 2
1503944290325,3, 8, 2, 2, 0, 1, 2, 0
1503944290342,-1, 3, 0, 0, -2, -1, -3, -1
1503944290366,-1, 1, 0, 0, 0, 0, -3, 0
1503944290385,-1, -1, -1, -2, -1, 0, 1, -1
1503944290401,1, -2, 1, 1, -1, -2, -2, 0
1503944290423,-6, -4, -3, -4, 0, 0, 1, 0
1503944290445,-3, -2, -2, -2, -2, 0, -2, -2
1503944290460,-8, 0, 0, 0, -2, -1, 1, -2
1503944290483,4, -2, 0, 2, 1, -3, -2, -3
1503944290505,-1, 2, -2, -1, -2, 2, -3, -2
1503944290520,2, 1, -2, 1, 2, 1, 0, 3
1503944290544,13, 4, 0, -3, 0, -1, 1, 0
1503944290566,-1, -2, -3, -1, 0, -2, 2, -4
1503944290573,-4, 2, 3, -1, 0, -3, -2, 0
1503944290595,4, 1, -1, -5, 0, -1, -5, -1
1503944290604,-6, -2, -2, 1, -3, 1, -1, -3
1503944290625,1, -3, -1, 0, -1, -2, 0, -3
1503944290642,0, -1, 0, 0, -1, -1, 1, 0
1503944290664,0, 2, -1, -3, -2, 2, -2, -1
1503944290685,0, -1, -2, -3, -1, -3, -2, -1
1503944290703,-10, -4, -1, 0, 0, -2, -1, -4
1503944290723,-2, -3, -1, 0, 0, -2, 0, 3
1503944290745,-2, -6, -1, -1, 0, 0, 3, -1
1503944290760,5, 0, 0, -2, -1, -1, -1, 0
1503944290783,0, 1, 0, -1, 0, -2, -2, 0
1503944290806,-5, 2, -2, -2, -2, -1, -3, -1
1503944290820,0, -1, 0, 0, -1, 1, 3, -1
1503944290844,1, 1, 0, 0, -2, 2, 0, -1
1503944290865,-6, 0, 0, -1, -1, -1, -1, 2
1503944290881,4, 0, -2, -2, -3, 0, 0, -1
1503944290896,-4, -3, -1, 0, 0, -2, -3, -3
1503944290912,4, 2, 1, -1, -2, 0, 1, 0
1503944290935,-2, 0, -1, -3, 0, 1, -1, 2
1503944290955,4, 1, 0, 1, 2, -3, -1, 0
1503944290963,-2, -2, 0, -1, -2, -4, -1, -2
1503944290985,-2, -2, -1, 0, -1, -2, -2, -4
1503944291003,6, 3, -1, 1, -1, -1, 0, -1
1503944291023,-5, -1, -2, 2, 0, 0, -1, 0
1503944291045,3, -2, 2, -1, 1, -2, -1, 1
1503944291061,-2, 3, -1, 0, 0, 0, 1, -1
1503944291083,-1, -1, 0, -3, 1, -2, 2, 0
1503944291105,-3, -1, -1, -1, 0, 1, -5, -4
1503944291120,-2, -5, -4, -3, 1, -1, -1, 2
1503944291137,-1, 0, 0, -2, -2, -2, 1, -1
1503944291151,3, 1, -1, 1, 0, 0, -3, -2
1503944291173,-7, -2, 0, -1, -1, 1, -1, -1
1503944291195,-4, 0, -1, 1, 1, -1, 0, -3
1503944291218,3, -1, -2, -2, -1, 1, 1, -2
1503944291233,1, 2, -1, -1, 1, -1, -2, 2
1503944291255,1, 1, 0, -1, 0, -1, -1, -1
1503944291279,1, -4, -1, -2, 1, 1, 3, -1
1503944291293,0, -3, -4, -1, -3, -2, 0, 3
1503944291315,4, 3, 1, 3, 0, -1, -1, -1
1503944291338,0, 0, -1, -6, -2, -1, -1, 1
1503944291353,-5, -7, -2, -1, -1, 0, -1, -2
1503944291376,-2, -1, 2, -2, -2, 0, -2, -1
1503944291398,-5, -2, -1, 0, 0, -1, 2, -2
1503944291429,9, 0, 0, 0, 2, -1, 1, 0
1503944291436,2, -3, -2, 1, -1, -1, 0, 0
1503944291458,-8, -2, -2, -1, 0, 1, -2, 1
1503944291473,-4, -1, -1, 0, 2, -3, 2, -2
1503944291495,13, 3, -1, -4, -3, -1, -1, 2
1503944291503,-9, -2, -1, 2, 2, -1, 1, -2
1503944291525,0, -4, -3, 0, -1, 0, -1, 0
1503944291549,0, 4, 1, -2, 0, -1, 0, -1
1503944291563,1, 1, 1, -1, -2, -1, 0, -4
1503944291586,-4, -7, -4, 1, -2, -1, -2, 2
1503944291609,-3, 1, 1, -2, 0, -4, -3, -2
1503944291623,3, 0, -2, -2, 1, 2, -3, -1
1503944291645,2, 3, 0, 1, -2, -2, -2, -1
1503944291667,5, 4, 0, -1, 0, 1, -1, 2
1503944291683,-3, 3, -2, 0, -1, 0, 0, -2
1503944291705,-6, -6, -2, -2, -3, -2, 0, -2
1503944291727,-2, 0, 0, 0, 0, -2, -3, 0
1503944291745,0, -1, -1, -2, -1, -1, 1, -1
1503944291765,-2, -1, -1, -1, 2, 1, 2, -2
1503944291787,-4, -1, -1, -5, -1, -1, 0, 0
1503944291804,2, -1, 0, 2, -3, 0, 2, -1
1503944291825,2, -4, -3, -1, -2, 1, 0, 0
1503944291848,0, -1, 0, -1, -2, -1, -2, 0
1503944291863,-4, -2, 0, 3, 1, -2, -2, -1
1503944291885,-5, -3, -3, -2, -2, -1, -3, 0
1503944291913,-3, 1, 1, 1, -4, -3, 0, -1
1503944291924,-9, -3, 0, -4, 0, 2, 1, -3
1503944291946,-4, -5, -2, -1, 1, -2, -3, 0
1503944291967,-4, -4, -3, -1, 2, -1, -2, -1
1503944291983,5, 4, 0, 2, -1, -1, -1, 2
1503944292005,-1, 6, 3, 0, 0, 1, 0, -1
1503944292027,1, 2, 0, 0, -2, -1, -1, 0
1503944292043,-3, -1, -3, -3, -2, -3, -1, -2
1503944292065,-3, -3, -1, -3, -2, 0, 0, 0
1503944292087,1, -2, -1, 0, -3, 1, -2, -2
1503944292111,2, -2, -2, 0, 0, -2, -3, -2
1503944292125,4, -1, 0, 1, -1, 2, 0, -1
1503944292147,2, -4, -1, 1, -2, 0, 0, 1
1503944292170,-1, 3, 1, -3, 1, -2, -2, 0
1503944292186,2, -1, -1, -3, -1, -1, 0, -1
1503944292207,-5, -2, -1, -1, -3, -2, -2, -1
1503944292230,2, -2, -2, -2, 1, -2, 0, 0
1503944292248,-5, -5, -2, 0, -1, 2, 1, -2
1503944292261,-2, -1, -3, 0, 0, -2, -1, 0
1503944292275,-1, -1, -2, 0, -1, 0, -1, -1
1503944292298,3, 1, -1, -3, 1, -1, -2, -4
1503944292321,2, 0, 1, 0, -1, -1, 2, 0
1503944292335,7, 7, -1, 0, -1, -3, 1, -1
1503944292355,2, 3, -2, -1, -3, 1, -3, 0
1503944292367,3, -1, 2, 2, -1, -1, 0, -1
1503944292389,-2, -1, -1, -5, 2, -2, -2, -2
1503944292414,-3, -3, 0, 2, -1, -3, 1, -2
1503944292426,3, 1, -2, -2, 0, 1, -1, 2
1503944292449,-3, 0, -3, 1, -2, -1, -1, -1
1503944292471,-3, 1, -1, -3, -2, 0, -2, 2
1503944292486,-2, 6, 3, -3, 1, 0, -2, -1
1503944292508,1, -1, -2, -1, 0, -1, -1, -1
1503944292531,2, -3, -4, -4, -4, -1, -2, -4
1503944292549,-6, -3, -1, 0, 0, -4, -1, 0
1503944292561,1, 4, -2, -1, -2, -1, -3, 0
1503944292575,-1, -4, -2, 1, -1, -1, 4, -1
1503944292598,-3, -8, -1, -3, -1, 1, -2, -2
1503944292622,-2, -1, 0, 0, -1, 0, -2, -1
1503944292635,0, 1, 1, 1, -1, -4, 0, -2
1503944292658,2, -3, -1, -2, 0, 0, -2, -1
1503944292681,-1, 3, 1, -2, -2, 0, 0, -1
1503944292696,6, 2, -1, -1, -2, -3, 0, -1
1503944292718,0, 1, 2, 1, -2, 1, -2, -2
1503944292740,-5, -5, -2, -2, -1, -2, -1, 0
1503944292756,3, -5, -3, -1, 1, 0, 2, 2
1503944292778,-6, 3, 3, 4, 1, -2, -1, -1
1503944292800,-2, 0, 0, -3, 1, -2, -2, 2
1503944292816,1, -1, -2, -1, -2, 1, 1, -1
1503944292838,1, 3, 0, -2, -2, -2, -2, 0
1503944292860,-4, -3, 0, 0, -1, -2, 2, -2
1503944292875,-2, -8, -3, 0, -1, 2, 1, 1
1503944292898,0, 1, -2, -1, -4, 0, -1, -2
1503944292921,3, 2, -1, 1, 1, -1, 0, -3
1503944292935,-1, 2, 1, 1, 1, 1, -2, 0
1503944292959,-1, 0, -3, -2, -4, -1, -1, 0
1503944292975,-2, 1, -1, -3, -3, 0, 0, 1
1503944292989,-4, -3, -2, 1, -4, -4, -1, -2
1503944293011,-4, -3, -1, -1, 3, 0, -3, 0
1503944293041,-1, 0, 0, -3, 0, -1, 0, -4
1503944293051,4, -1, 0, 0, 0, -1, 0, 2
1503944293071,-2, -1, 0, 1, -3, -2, 1, 1
1503944293093,3, 0, -1, -4, -1, -1, -3, -1
1503944293108,-3, -1, 0, 1, -1, 0, 0, -1
1503944293131,-3, -3, -1, 1, 1, 0, 1, -1
1503944293154,1, 3, 1, -2, -2, -1, -1, 1
1503944293168,-2, -2, -3, -1, -2, -1, -1, 1
1503944293191,-1, 0, 0, 1, -1, -1, 1, -1
1503944293213,2, -2, -1, 0, -2, 0, -1, 0
1503944293228,2, -1, -1, -2, -2, 0, -3, -2
1503944293253,-7, -3, -1, -1, 0, -3, -1, -3
1503944293273,1, 0, -1, 0, 3, 0, 0, 1
