1503604426099,-9, -5, -2, 0, 6, 0, -1, 7, 0
1503604426151,-23, -1, 1, 0, -12, 1, -1, -38, 0
1503604426166,7, -4, 0, 0, -1, 2, 0, -3, 0
1503604426190,1, -1, -6, -6, -17, -2, 2, 11, 0
1503604426213,-6, -5, -7, -3, -5, 0, -4, -21, 0
1503604426218,-25, -11, -7, -5, -5, 4, -2, -6, 0
1503604426239,17, 7, 0, 3, 2, -5, -6, 3, 0
1503604426262,7, 0, -5, -5, -1, -1, 0, -9, 0
1503604426279,-1, 6, 2, -1, -1, -1, -1, -4, 0
1503604426308,0, -4, 1, 3, -3, -2, -3, -2, 0
1503604426330,-12, -14, -9, -10, -2, -1, 1, 12, 0
1503604426354,17, 3, -3, -1, -4, -3, -2, -5, 0
1503604426368,13, 10, 3, 1, 9, 1, 1, 17, 0
1503604426390,-10, 2, -1, 0, -2, 0, 0, -2, 0
1503604426415,5, 1, 5, 3, 2, -1, -1, -3, 0
1503604426427,2, 8, 2, 3, 0, -2, -3, 3, 0
1503604426442,-10, -7, -3, -1, -2, -3, -1, -17, 0
1503604426458,-4, -2, 1, 0, 3, 0, -2, 2, 0
1503604426482,3, -9, -3, -3, -2, 0, -2, -3, 0
1503604426502,0, 2, 6, 6, 2, -2, -3, 12, 0
1503604426521,4, -5, -5, -5, 0, 0, -5, -36, 0
1503604426539,1, 0, 0, -2, -2, -2, -2, -2, 0
1503604426562,4, -7, -1, -2, -1, -2, -5, 8, 0
1503604426580,0, -12, -5, -3, -8, -1, 0, 13, 0
1503604426600,0, 3, -1, -2, 1, 0, -1, -2, 0
1503604426622,2, 1, -1, -2, -2, -1, 1, -2, 0
1503604426638,-16, 0, 1, 1, 3, 1, 2, 5, 0
1503604426667,5, -8, -8, -4, -5, -4, -4, -10, 0
1503604426682,-13, 4, 4, 1, 2, 1, 2, -7, 0
1503604426697,-3, 2, 0, -2, -1, 1, -4, 6, 0
1503604426720,5, 4, 4, -1, -1, -1, 2, 0, 0
1503604426742,0, -1, -4, -2, -1, -2, -1, 4, 0
1503604426757,-19, -6, -4, -2, 2, 1, 2, 7, 0
1503604426782,-12, -4, -2, 3, -5, 0, -1, -9, 0
1503604426802,17, 6, 4, 2, 2, 0, 3, 33, 0
1503604426818,18, 4, -3, 0, 0, 1, 3, -9, 0
1503604426840,2, 0, 2, 2, 4, 0, -3, -8, 0
1503604426862,-5, -3, -6, -3, -10, -3, 1, 9, 0
1503604426877,-10, 5, 4, 3, 2, -1, -3, -5, 0
1503604426899,-6, -1, -5, -1, 1, -1, 1, -13, 0
1503604426929,3, -6, -5, -2, -2, -2, -1, 3, 0
1503604426937,-2, -3, -2, -2, -2, -2, -3, -5, 0
1503604426959,-2, 7, 8, 4, 2, 0, 1, 3, 0
1503604426983,6, 3, -2, -2, 1, 0, 2, -4, 0
1503604426997,6, 2, 5, -1, 0, -1, -2, -1, 0
1503604427020,4, -7, -7, -4, -3, -1, -3, -10, 0
1503604427042,-7, 6, 1, 1, 1, -1, -1, -1, 0
1503604427058,-26, -6, -6, -4, -1, -1, -2, -7, 0
1503604427079,13, 1, 2, 2, 1, 0, 0, 5, 0
1503604427109,12, -5, -1, -1, 0, -1, -1, 10, 0
1503604427118,-1, 4, 2, 2, 2, -1, -2, 7, 0
1503604427140,-2, -4, -5, -3, -2, -1, -2, -9, 0
1503604427162,3, -1, 2, -1, -1, 0, 2, 9, 0
1503604427185,4, 1, -1, 1, -3, -2, 0, -3, 0
1503604427200,-6, -2, -1, -2, 0, 0, 0, -1, 0
1503604427222,8, 11, 8, -2, -3, -1, -3, 0, 0
1503604427244,2, -3, -9, -2, -1, 0, -3, -7, 0
1503604427260,-4, -5, 2, 2, 0, -3, 0, 1, 0
1503604427282,-6, -5, -6, -4, -2, -1, 0, -2, 0
1503604427304,23, 5, -2, 3, 1, -2, -3, 0, 0
1503604427320,-14, 1, -4, 2, 0, -2, 0, -3, 0
1503604427349,-3, 0, 5, 4, 2, -2, -4, 1, 0
1503604427364,-8, -14, 4, -3, -1, 0, 2, 0, 0
1503604427380,-13, -2, 1, -2, -1, 0, -2, -3, 0
1503604427401,4, -1, -9, -4, -3, -1, 1, 0, 0
1503604427424,-1, 4, 5, 6, 2, 2, 0, 1, 0
1503604427440,-1, -5, 10, 1, -3, -2, -1, -1, 0
1503604427463,1, 2, -7, -3, -2, 0, -1, -1, 0
1503604427489,3, -2, -3, 0, 0, 0, -1, -1, 0
1503604427500,3, 5, -4, -4, -3, -2, -1, -1, 0
1503604427522,1, -8, -17, -5, -2, -2, -3, -1, 0
1503604427544,-7, -34, -5, -1, -1, -1, -1, -2, 0
1503604427561,0, 4, 3, 2, 2, -2, -1, 0, 0
1503604427582,-10, 4, -1, -1, 0, 2, 1, -3, 0
1503604427605,12, 7, -3, -1, -1, 0, -1, 2, 0
1503604427628,-12, -2, -2, 0, -1, -2, 0, -3, 0
1503604427643,-7, 14, 9, 1, -1, -1, -1, -1, 0
1503604427665,1, -4, -6, -6, -2, 0, 2, 0, 0
1503604427690,1, -14, -7, -2, 0, -1, -1, -1, 0
1503604427703,-9, 28, 14, -4, -4, -2, -1, 0, 0
1503604427727,-67, -16, -8, -3, -3, -3, -5, -10, 0
1503604427748,18, -8, 2, 4, 3, 0, -1, 0, 0
1503604427764,37, 4, -8, 9, -1, -2, -1, 3, 0
1503604427785,7, 3, 2, 2, -1, 0, -1, 1, 0
1503604427808,4, 6, -1, 0, 2, 0, 0, 0, 0
1503604427823,17, 26, 15, -5, 0, 0, 1, 1, 0
1503604427846,5, -13, -7, -4, -2, -1, -2, 0, 0
1503604427868,-5, -8, 0, -3, -3, -1, -1, -2, 0
1503604427883,11, 2, 4, -2, 1, 1, -1, 3, 0
1503604427905,-9, -7, -7, -3, -2, -2, -1, -3, 0
1503604427928,-7, 1, -1, 3, 0, 0, -2, -3, 0
1503604427943,-6, -2, 1, -4, -1, 0, -1, -2, 0
1503604427965,1, -10, -4, -3, 0, 0, 1, 1, 0
1503604427990,-11, -18, -9, 0, -1, -2, -2, -2, 0
1503604428003,-1, -4, 5, 2, 2, 0, -1, -1, 0
1503604428027,2, -5, 17, 2, -1, -2, -2, -3, 0
1503604428048,23, 5, 3, 1, 0, -1, 0, 5, 0
1503604428070,0, 18, 4, 6, 1, 1, 1, 3, 0
1503604428085,7, 9, -1, -3, 7, -3, -2, 3, 0
1503604428108,11, -11, -11, -2, -10, -3, -5, -1, 0
1503604428125,-17, 0, -4, -1, -28, -7, 1, -1, 0
1503604428138,6, -34, -10, -3, 10, 14, -1, -4, 0
1503604428152,-4, 8, 0, -8, -34, -15, -2, 1, 0
1503604428175,1, 12, 1, -2, 2, -2, -1, -1, 0
1503604428199,-5, 12, -1, 0, 5, 2, -3, 2, 0
1503604428212,7, 11, 8, 13, 46, 10, 4, 7, 0
1503604428235,0, 0, -3, -10, -24, -11, -1, 1, 0
1503604428259,-3, -3, 0, 3, 11, 3, -1, -2, 0
1503604428272,2, -1, -2, -2, -3, 1, -2, -1, 0
1503604428295,12, 19, -5, 1, -12, -7, -1, 7, 0
1503604428317,-2, -25, -10, -5, -16, -5, -2, -7, 0
1503604428334,-1, 20, 5, -2, -16, -14, 2, 2, 0
1503604428355,30, -7, 1, 11, 4, 1, -1, 4, 0
1503604428377,-15, -17, 1, 4, 3, 3, -2, -7, 0
1503604428394,3, 15, 6, 0, 5, 1, 1, -1, 0
1503604428415,-3, -7, -1, -1, 32, 14, 0, -1, 0
1503604428437,1, 4, 0, -3, -13, -6, -3, 6, 0
1503604428452,-5, 3, 4, 2, -3, -1, -1, -3, 0
1503604428475,-10, -3, -7, -1, 5, 1, -6, -6, 0
1503604428499,1, -32, -10, -7, -34, -14, 0, -19, 0
1503604428512,-4, 3, -1, -2, 7, 10, 3, 9, 0
1503604428535,6, 12, 2, -2, -29, -10, -2, -1, 0
1503604428560,1, 9, -1, -2, 34, 2, 0, 8, 0
1503604428572,-16, -1, 6, -1, -3, 4, 2, -2, 0
1503604428595,-4, 1, -3, 5, 25, 18, 1, 0, 0
1503604428617,-21, -9, -1, -1, -13, -13, 0, -4, 0
1503604428632,1, 4, 3, 2, -21, -11, 0, 1, 0
1503604428655,8, -6, -7, -5, -6, -1, -5, 0, 0
1503604428677,-10, -13, -3, -3, 6, -10, 1, 2, 0
1503604428698,5, 8, -2, -4, -45, -24, 1, 7, 0
1503604428715,14, 4, -7, -1, 35, 9, -4, -4, 0
1503604428738,17, 13, 3, -2, -1, 2, -3, 0, 0
1503604428753,-7, -2, 5, 2, 0, 2, 0, -4, 0
1503604428775,7, 11, 11, 8, 0, -19, 4, 4, 0
1503604428797,-2, 7, -2, -6, 4, 5, 0, 5, 0
1503604428806,4, -4, 0, 2, 3, -7, -3, -16, 0
1503604428831,-10, -5, -3, 1, 14, 19, 5, 1, 0
1503604428843,-3, -9, -6, -8, -38, -11, -3, 7, 0
1503604428867,-28, -8, 2, -3, 5, 2, 3, -6, 0
1503604428888,33, 3, -1, 3, -7, -4, 2, 15, 0
1503604428903,-8, 1, 5, 2, 0, 2, 0, 9, 0
1503604428925,-4, 5, -1, 6, 66, 34, 9, 7, 0
1503604428948,4, 8, 2, 11, 12, 3, -1, -7, 0
1503604428963,17, -7, -14, -8, -8, -11, -6, -2, 0
1503604428985,-12, -9, -8, -1, -12, -8, -9, -5, 0
1503604429014,2, -2, -1, -3, 7, -4, 2, -11, 0
1503604429031,-5, 3, 0, -7, -47, -10, 6, 25, 0
1503604429045,17, 9, 3, -4, -6, -9, -10, -11, 0
1503604429069,-1, 7, 2, -4, 6, 4, -5, -14, 0
1503604429090,-7, -19, -11, -5, 3, 1, -6, -6, 0
1503604429105,-20, 21, 10, 10, 10, 4, 2, 6, 0
1503604429136,-11, 5, 11, 5, 14, 21, 3, -6, 0
1503604429157,14, 9, -3, -3, -15, -11, -2, 4, 0
1503604429180,11, -5, -19, -13, -24, 0, 0, 2, 0
1503604429195,-14, -3, -3, 2, -16, -2, 1, -4, 0
1503604429217,3, 0, -2, -7, -10, 2, -4, -7, 0
1503604429240,-38, -8, -1, 2, -3, -4, -3, -7, 0
1503604429255,11, -4, -4, -2, 2, -10, 1, 3, 0
1503604429277,-15, -13, -6, -1, 3, -4, -6, -5, 0
1503604429300,-25, 3, -9, -4, -15, -9, -5, -10, 0
1503604429315,14, 0, -3, -1, 45, 25, 3, -1, 0
1503604429338,33, -5, -2, 5, -32, -12, 3, 10, 0
1503604429360,-32, -13, 2, 2, 13, -6, 7, 5, 0
1503604429375,16, 11, 11, 20, 61, 16, 3, 3, 0
1503604429398,-8, -4, -6, -3, -20, -5, -5, -2, 0
1503604429420,5, 2, -5, -7, -15, -11, 1, -3, 0
1503604429450,-20, -4, 2, 1, -3, -16, -3, 6, 0
1503604429472,1, 0, 2, 1, 18, 14, 1, -1, 0
1503604429490,-1, 6, 7, 4, 36, 7, -1, -5, 0
1503604429510,-12, -6, -7, 0, -22, -11, 3, 16, 0
1503604429525,-2, -1, -3, -4, -10, 0, -9, -3, 0
1503604429548,0, -7, -7, -2, 40, 20, 2, -1, 0
1503604429570,6, -6, -8, -3, -26, 0, -5, -4, 0
1503604429585,-30, 4, 4, 1, -2, 2, 1, -18, 0
1503604429613,12, 8, 7, 1, -20, -11, 4, 3, 0
1503604429630,-14, -11, -2, -6, -8, -6, -4, -7, 0
1503604429645,-8, -11, -4, -1, -12, -4, -1, -9, 0
1503604429670,19, -5, -1, 1, 3, -3, -4, -15, 0
1503604429691,-26, 1, -5, -2, 3, 4, 3, 5, 0
1503604429705,26, 6, 2, 2, -8, -4, 1, -1, 0
1503604429728,-23, -7, -1, -3, -8, -11, -7, 10, 0
1503604429750,13, 0, -1, -2, 0, -1, 1, -4, 0
1503604429765,-18, -1, -2, -1, 0, 4, 2, 0, 0
1503604429788,31, -1, 2, -3, -8, -4, -2, 17, 0
1503604429811,-1, 7, 6, 6, -2, -5, -1, -14, 0
1503604429825,-19, -9, -7, -11, 0, 0, 1, -9, 0
1503604429848,4, -6, -1, -3, -1, -3, -3, 0, 0
1503604429871,2, 3, -4, -1, -28, -6, 1, 1, 0
1503604429885,-16, -5, 0, -1, -9, 2, -1, 8, 0
1503604429912,5, 3, -1, 0, 6, 0, -2, 5, 0
1503604429930,8, 0, -3, 4, 8, 2, -2, -14, 0
1503604429946,-3, 2, -2, 1, 12, 4, 2, 5, 0
1503604429979,-4, 1, -1, -2, 2, -4, -2, -11, 0
1503604429990,-17, -3, 0, 1, 8, 4, -1, -5, 0
1503604430014,-7, -2, -2, 0, 2, -2, -2, -22, 0
1503604430028,-2, -7, 1, 3, 3, 1, 4, 67, 0
1503604430050,21, -1, 2, -2, -2, -2, -2, 2, 0
1503604430079,15, -1, -5, -2, -6, -2, -1, -4, 0
1503604430088,-4, 2, 4, 1, -3, -2, 0, -11, 0
1503604430111,-28, -10, -6, -4, 0, -3, -4, -37, 0
1503604430132,22, 6, 0, 2, 55, 6, 1, 8, 0
1503604430148,-18, -4, -4, -4, -14, -1, -5, -10, 0
1503604430174,10, 5, -2, 2, -10, 1, 2, 9, 0
1503604430192,25, -4, -5, -6, -17, -11, -7, -1, 0
1503604430210,-5, 3, 3, -2, -17, -5, -1, 10, 0
1503604430230,9, 3, 0, -1, -12, -4, -2, 8, 0
1503604430252,-7, 1, 0, -3, -2, 3, 2, -13, 0
1503604430268,13, -4, -2, -6, 5, -3, -1, 7, 0
1503604430290,-5, 7, 1, 0, 4, 2, -1, -9, 0
1503604430312,-9, -4, -2, 0, 51, 14, -5, -9, 0
1503604430328,5, -2, 0, -1, -22, -8, 0, 3, 0
1503604430350,4, -2, -2, 0, -9, -1, 2, 1, 0
1503604430373,-12, -3, -3, 1, -3, -1, -3, -13, 0
1503604430388,-10, 1, -1, 0, -7, 0, 1, -3, 0
1503604430410,-9, 0, 3, 1, -6, 0, 3, 0, 0
1503604430432,6, -5, 1, 2, -3, -3, 0, -11, 0
1503604430449,7, 0, 1, -1, -8, -3, 1, 16, 0
1503604430470,-10, 2, -1, 0, 4, 2, 1, -6, 0
1503604430492,-11, 0, 0, 2, -5, -1, 2, 0, 0
1503604430510,2, -24, -7, -1, 40, 12, 0, 8, 0
1503604430530,-6, 9, 2, -3, -26, -7, 3, -4, 0
1503604430552,41, 7, -1, -10, -22, -5, -1, 22, 0
1503604430568,-2, -2, 0, 0, -7, 1, 0, -7, 0
1503604430596,-3, 0, -4, -1, 0, -4, -5, -9, 0
1503604430619,6, 6, 4, 1, 0, -2, 1, 4, 0
1503604430628,-5, 8, 0, 3, 1, 1, 1, 3, 0
1503604430651,-2, 5, 0, 8, 32, -1, 1, 16, 0
1503604430675,-4, -2, 0, -1, -9, -5, -2, -2, 0
1503604430688,-7, -3, -2, -4, -6, -1, -1, -6, 0
1503604430712,-9, -9, -8, -4, 1, 0, -2, -10, 0
1503604430732,6, -18, -5, -3, -11, -1, 1, 1, 0
1503604430748,-4, 11, 8, 4, 12, 9, -4, -16, 0
1503604430770,-5, -3, -1, -2, -6, -4, 0, -3, 0
1503604430792,2, 3, -4, -3, 0, 1, -1, 3, 0
1503604430811,22, -4, -2, -1, 19, 2, 0, 8, 0
1503604430830,-7, -1, 0, 0, -16, -6, -2, -3, 0
1503604430852,-16, -15, -3, 2, -5, 0, 0, -4, 0
1503604430868,-5, 7, 1, 0, 1, -9, -2, -10, 0
1503604430890,7, -8, -1, -1, -5, 0, -1, 15, 0
1503604430913,2, 4, 3, -4, 8, 8, -1, -9, 0
1503604430935,-4, -1, -5, 0, 3, -5, -1, 0, 0
1503604430950,8, 13, -2, -3, -12, -2, 0, -7, 0
1503604430972,-18, 0, 3, 1, -4, -5, -6, -6, 0
1503604430995,9, 1, -3, -7, -2, 1, 0, -8, 0
1503604431011,-6, 3, 6, 2, -5, -1, -1, 6, 0
1503604431032,-12, -6, -4, 10, -1, 1, -1, -10, 0
1503604431055,-2, -18, 1, 0, 0, 3, 2, 8, 0
1503604431076,-2, 3, -1, -3, -14, 2, 0, 0, 0
1503604431092,13, 14, 2, -2, 1, -4, 2, 10, 0
1503604431115,9, -5, -2, -1, 4, -2, 3, 9, 0
1503604431130,25, 1, 1, -1, 22, 8, 4, 20, 0
1503604431153,-8, 4, -2, -2, -1, -3, -3, -6, 0
1503604431175,-16, -4, -3, -3, -10, -7, -5, -19, 0
1503604431190,-1, -3, -3, -1, -2, 0, -1, -1, 0
1503604431213,5, -3, 0, 3, -1, -2, 0, -4, 0
1503604431235,-4, 1, -3, -3, -3, -3, -1, 6, 0
1503604431250,-11, 1, -3, 0, 1, 0, 0, -9, 0
1503604431272,-6, -1, 1, 0, -1, -2, 1, 16, 0
1503604431295,-3, 3, 5, 1, -2, 0, -4, -8, 0
1503604431313,-1, -6, -9, -4, 5, -4, -1, -4, 0
1503604431332,-12, 8, -3, -3, -4, -2, -4, -7, 0
1503604431355,3, 0, 6, -2, -9, -2, -2, -11, 0
1503604431370,3, -5, -7, -4, 0, -2, 1, 19, 0
1503604431392,-7, -5, -1, 6, -2, 0, 2, 0, 0
1503604431400,-18, -16, -3, 5, 9, -5, -3, -11, 0
1503604431422,11, 6, 3, -6, 5, 2, 3, 9, 0
1503604431447,4, 2, 1, -5, 0, -1, 0, 1, 0
1503604431459,-12, -13, -6, -5, -4, -3, -2, -1, 0
1503604431475,-8, -3, -6, 0, -1, 0, 0, -21, 0
1503604431490,1, 1, 0, -2, -1, 1, 1, 10, 0
1503604431515,-25, -1, -1, -1, -1, -5, -2, -16, 0
1503604431535,0, -4, -1, -2, -2, -6, 0, 10, 0
1503604431551,20, 17, 11, 0, -1, -1, -3, -1, 0
1503604431572,8, -3, -2, -2, 2, 1, -1, -6, 0
1503604431582,-2, 13, 6, 3, 0, -1, 1, -15, 0
1503604431602,3, -25, -15, -7, -4, -1, -4, -14, 0
1503604431625,-3, 0, 2, 1, 1, 0, -1, 4, 0
1503604431640,-2, 3, 5, 2, 3, 0, -1, -14, 0
1503604431662,-6, 4, 8, 2, 1, -1, -2, -6, 0
1503604431684,-5, 8, 5, -2, -2, -1, 0, -19, 0
1503604431700,6, -3, -9, -4, -4, -1, -1, 18, 0
1503604431722,-30, -4, 0, 4, 0, 2, 1, -12, 0
1503604431744,14, -1, -2, -1, 1, 2, 5, 4, 0
1503604431760,1, -7, -3, 0, 0, -1, -1, 9, 0
1503604431783,-16, -4, -4, -4, -3, -4, -1, -2, 0
1503604431804,9, 5, 2, -2, -2, -1, -1, -3, 0
1503604431820,3, 15, 9, -1, -3, 0, -3, -7, 0
1503604431835,22, -8, -6, -1, -1, -1, 1, 10, 0
1503604431858,-29, -7, -9, -3, -1, -2, -4, -40, 0
1503604431872,16, -3, 1, -3, -3, -4, -2, -1, 0
1503604431895,-8, -1, -1, -1, -2, -5, -3, 6, 0
1503604431918,46, 6, -1, -2, 1, 1, 0, 34, 0
1503604431932,-19, -13, -11, -3, -3, -1, -1, -12, 0
1503604431955,-11, -9, -4, -3, -2, 0, 4, 24, 0
1503604431977,-7, -5, 6, 5, 1, 0, -6, 39, 0
1503604431993,-20, 1, 5, 2, 2, -1, 1, -8, 0
1503604432015,2, 4, 3, 1, -1, 1, -3, -3, 0
1503604432037,3, -5, -5, -4, -3, -5, -5, -8, 0
1503604432052,-6, -2, 1, 3, 1, 0, 2, 6, 0
1503604432075,5, -1, -4, 0, 0, 0, -4, -31, 0
1503604432097,-6, 11, 7, 0, -2, -2, -3, -4, 0
1503604432112,4, 3, 0, -1, 0, -1, -2, -1, 0
1503604432135,-4, -9, -6, -4, -2, 1, 5, 2, 0
1503604432157,9, -4, -1, -1, -4, -3, -1, 19, 0
1503604432172,0, -2, -1, -1, 0, 1, 1, -12, 0
1503604432195,-1, -1, 0, -2, 2, -1, 1, -16, 0
1503604432218,10, -1, -3, 0, 1, 0, 0, 7, 0
1503604432233,-2, 1, -3, -2, -3, -1, 2, 7, 0
1503604432255,-10, -2, -2, -2, -2, 1, 0, -13, 0
1503604432277,-4, -11, -2, -1, -1, -1, -1, -23, 0
1503604432293,-5, 3, -1, -2, 0, -2, -2, -7, 0
1503604432315,-10, 3, 4, 2, 0, 2, 1, 2, 0
1503604432337,-7, -5, -7, -1, -3, 0, -2, 3, 0
1503604432360,-20, -5, -14, -2, -3, -3, 0, -1, 0
1503604432375,-5, -8, -1, 0, 0, 1, -1, -4, 0
1503604432397,-3, 5, -3, -2, 0, -1, 1, 3, 0
1503604432412,22, -1, 1, -2, -1, -2, -1, 0, 0
1503604432435,5, 13, 7, 0, 1, 1, 1, 0, 0
1503604432457,41, 23, -3, -4, -3, -4, -4, 4, 0
1503604432473,-1, 6, -4, 0, 0, 0, -3, -1, 0
1503604432496,-8, -7, 1, -2, -1, 0, -4, 1, 0
1503604432517,-24, -21, -1, 1, 1, 2, 2, -1, 0
1503604432532,-8, -7, 11, 2, -1, -1, 0, 3, 0
1503604432555,-6, -16, -9, 5, 1, -1, -3, -3, 0
1503604432577,4, 11, 7, -3, -2, -4, 0, -3, 0
1503604432592,7, 1, -6, -3, 0, 1, 1, 1, 0
1503604432615,16, 17, 10, 5, 6, 1, -4, 0, 0
1503604432637,-11, -5, 3, 1, -2, 0, 0, -2, 0
1503604432652,1, -17, -7, -1, 0, 0, 0, 2, 0
1503604432674,-2, 0, -9, -4, -4, 0, 1, -4, 0
1503604432698,3, -1, -12, -3, -2, -3, -2, -2, 0
1503604432712,4, 5, -1, -1, 0, -2, 0, 0, 0
1503604432735,-3, 0, 1, -3, -1, -2, -2, -7, 0
1503604432757,-6, -3, -1, -1, -2, 0, -1, 3, 0
1503604432780,-4, -2, 6, 1, 0, -1, 0, 2, 0
1503604432795,-2, 6, 3, 1, -1, -1, -1, 0, 0
1503604432820,1, 2, -4, -1, -2, -2, -1, 4, 0
1503604432840,4, -4, 1, 1, -1, -1, -4, -9, 0
1503604432856,-2, -14, -2, 0, -1, 1, 2, 1, 0
1503604432877,-8, -2, -7, -3, 0, -1, -1, -10, 0
1503604432900,6, 6, 9, 0, 0, -1, -2, 6, 0
1503604432915,15, -3, -1, 0, -1, -3, -2, 9, 0
1503604432937,-7, -6, -3, -6, -2, -2, 0, -4, 0
1503604432960,-11, -19, -9, -5, -3, 0, 2, -2, 0
1503604432974,-3, -2, -3, 0, -1, 0, -1, 0, 0
1503604432997,0, 26, 9, -2, 0, 1, 3, 1, 0
1503604433020,4, 10, 9, 7, 3, 1, -1, 4, 0
1503604433035,-2, -10, -12, -5, -2, 0, -2, -5, 0
1503604433058,-2, 8, 14, 3, 0, 0, -1, -2, 0
1503604433080,0, 3, 5, 1, 0, -1, 0, 1, 0
1503604433110,2, 16, 19, 2, 1, 0, 0, 1, 0
1503604433133,-2, -10, -7, -5, -2, -4, -7, -1, 0
1503604433148,-1, 4, 1, 2, 0, -1, 0, 0, 0
1503604433170,-1, -3, -3, 2, 0, -1, -1, -2, 0
1503604433193,-1, -4, -3, -2, -1, 0, 0, -1, 0
1503604433208,-1, 2, -2, 1, 1, 1, 1, -7, 0
1503604433230,-1, -1, -2, 0, -4, -2, 1, 3, 0
1503604433253,0, 2, 2, 2, 0, 0, -2, -4, 0
1503604433268,-1, -3, -5, -5, -5, 0, -1, 0, 0
1503604433275,1, 3, 6, 5, 3, 3, 0, 4, 0
1503604433298,-2, -10, -4, -10, -4, 0, 1, 0, 0
1503604433319,-2, 3, 6, 2, 1, 5, 2, 2, 0
1503604433335,1, 12, 6, 2, 1, 1, 0, 1, 0
1503604433357,3, 13, -3, -4, -1, -1, 1, -4, 0
1503604433379,-2, -11, -10, -2, -3, -2, 1, 2, 0
1503604433403,-6, -10, -4, 1, -1, -4, -4, -8, 0
1503604433419,4, -10, -2, 0, -3, 5, 1, 3, 0
1503604433440,-5, -3, -7, -3, 0, -3, -2, 0, 0
1503604433455,-3, -3, -4, 0, 0, -2, 2, 1, 0
1503604433477,0, 13, 12, 0, -1, -1, 0, -2, 0
1503604433500,-2, -4, 2, 1, -1, 1, -5, 2, 0
1503604433514,2, 1, 0, -2, -1, -3, 0, -1, 0
1503604433531,0, 10, -2, -3, 0, 1, -3, -1, 0
1503604433553,-2, 12, 0, -1, -1, -1, 0, 4, 0
1503604433568,-1, 6, -13, -5, -2, -3, -5, -2, 0
1503604433590,0, -3, -13, -4, -3, -2, -1, -2, 0
1503604433612,-1, -5, -1, -1, -2, 1, 0, -4, 0
1503604433619,-1, -6, 6, 1, 1, 0, 0, -3, 0
1503604433635,0, -7, -4, 1, -2, 1, -3, 3, 0
1503604433657,-4, -7, -6, -6, -4, -1, -2, -2, 0
1503604433680,-1, 5, 4, 0, -1, -1, -2, 0, 0
1503604433704,-4, -22, -13, -3, -2, 0, -2, 1, 0
1503604433717,-2, -10, -13, -3, -2, 0, -1, -2, 0
1503604433734,-4, -13, 0, -2, 0, -7, -1, 0, 0
1503604433748,1, 1, -6, -2, 0, 1, 1, -2, 0
1503604433770,0, 1, -2, -3, 1, 0, -3, 3, 0
1503604433777,-1, -5, -10, -2, -2, 0, 0, 0, 0
1503604433800,-6, -21, -6, 1, 0, 2, 1, -3, 0
1503604433822,-1, 3, 0, -3, -1, -4, -4, 0, 0
1503604433837,-10, 17, 17, -2, -1, -1, -2, -7, 0
1503604433859,4, -3, 0, 1, -1, 0, 1, 0, 0
1503604433882,2, -3, -3, -2, -1, -2, 0, 1, 0
1503604433897,-1, 5, -6, -3, -2, 0, -2, 0, 0
1503604433920,0, 0, -1, -2, -2, -1, -1, 0, 0
1503604433942,-2, -12, -2, -1, 0, -1, -1, -2, 0
1503604433957,1, 2, 0, 0, 0, 0, 0, -1, 0
1503604433979,0, -2, -8, -2, -2, -3, 0, -1, 0
1503604434002,-3, -3, -4, -2, -1, 1, -1, 1, 0
1503604434017,-1, -1, -2, 0, -1, -1, 2, -2, 0
1503604434041,0, 0, 0, 2, 0, -1, -1, 1, 0
1503604434062,-1, 1, 2, 1, -1, -1, -1, 3, 0
1503604434077,2, 4, 0, 0, 1, -8, -1, 1, 0
1503604434100,-6, -6, -10, -9, -4, 4, -1, -2, 0
1503604434122,1, 3, 4, 1, 1, 0, -1, 0, 0
1503604434138,0, 2, 1, -3, 0, 0, -2, -3, 0
1503604434160,0, -3, -2, 2, 0, -1, -1, 0, 0
1503604434182,0, -2, 1, 7, -1, 2, -3, -3, 0
1503604434202,-2, 10, 1, -1, -1, -2, -1, -2, 0
1503604434220,-3, 1, 2, 2, -1, -1, -2, -3, 0
1503604434242,1, -1, -2, -4, -1, 0, 1, 2, 0
1503604434257,0, -3, -3, -6, -3, -1, -3, 0, 0
1503604434280,1, 20, -1, -3, -1, 0, -2, -1, 0
1503604434302,-3, -9, -8, -2, -2, -2, 1, -2, 0
1503604434317,2, 1, 6, 7, 1, 0, 2, 4, 0
1503604434340,0, 0, 6, 4, 1, -1, -2, -3, 0
1503604434363,-2, -6, -4, -4, -1, -3, 0, 0, 0
1503604434377,-1, -11, -3, -1, -1, 1, 0, -1, 0
1503604434401,-2, -5, 2, 10, 2, 0, -2, -1, 0
1503604434422,-3, 0, -4, -12, -4, -2, -1, -3, 0
1503604434438,6, 8, 12, -2, -1, -1, 1, 1, 0
1503604434459,3, -4, -3, 0, -2, 0, -1, 0, 0
1503604434482,9, -10, -7, -1, 1, -1, -1, -8, 0
1503604434497,-16, 1, 0, 5, -1, -1, -1, 0, 0
1503604434519,3, 6, 5, 2, 0, 0, 0, 2, 0
1503604434528,3, 2, -13, 3, 2, 0, -1, 3, 0
1503604434557,0, -10, -9, -3, -1, 0, 3, 1, 0
1503604434573,-2, -9, 1, 3, -1, -2, -2, -2, 0
1503604434588,-7, 1, -6, -6, -2, 0, -4, -7, 0
1503604434611,-12, -7, -4, -2, -2, -2, 0, -6, 0
1503604434633,-1, 0, -5, 1, 0, -3, 1, 0, 0
1503604434655,6, -15, -1, -5, -2, -1, -2, 8, 0
1503604434671,1, 0, 0, -8, -3, -1, 0, 5, 0
1503604434693,-9, -10, -3, -3, -1, -3, -4, -14, 0
1503604434715,1, -17, -15, -5, 2, 0, 0, 0, 0
1503604434731,19, 17, 3, 6, 2, -1, -1, 8, 0
1503604434753,3, -14, -3, -1, -3, 0, 1, -3, 0
1503604434776,-15, 4, 9, 9, 2, 2, 1, -4, 0
1503604434790,9, 16, 6, -1, -1, 1, -1, -2, 0
1503604434814,-1, -10, -15, -5, -1, -1, -1, -2, 0
1503604434835,0, -9, -3, 2, 2, -1, -1, -3, 0
1503604434850,-8, 6, 0, 5, 0, 0, -1, 0, 0
1503604434874,-2, -16, -10, -6, -2, -1, 0, -2, 0
1503604434894,12, 4, -2, -1, -3, -2, -6, 2, 0
1503604434906,6, 11, 1, 1, -23, 0, -1, 1, 0
1503604434925,1, -3, -5, -10, -43, -15, -3, -7, 0
1503604434940,62, -9, -8, -5, -22, -9, -5, 2, 0
1503604434955,-6, 1, 2, -2, -4, 5, 2, -6, 0
1503604434973,2, -6, -4, -4, 0, -5, -3, -3, 0
1503604434993,-7, 4, 4, 3, -2, -1, 5, 2, 0
1503604435014,11, 0, -10, -5, 6, 3, -4, 0, 0
1503604435030,2, 15, 10, 1, 15, -5, -2, 2, 0
1503604435053,12, 18, 7, -2, -44, -23, -2, 0, 0
1503604435075,-8, -9, -2, 2, 13, 1, 0, 4, 0
1503604435090,-3, 3, -3, -1, -25, -10, 0, -2, 0
1503604435114,-2, -27, -10, -3, 11, 3, -1, -4, 0
1503604435135,-4, -22, -8, -6, -3, 2, -2, -3, 0
1503604435150,3, 9, 1, 1, 7, 5, -3, -1, 0
1503604435181,0, 25, 3, 4, 5, 4, -2, -5, 0
1503604435194,-4, 15, 4, -3, -5, -4, 1, 4, 0
1503604435202,10, 14, -2, -3, 0, -2, -1, 1, 0
1503604435225,-12, -8, -1, -1, -6, 0, -1, -2, 0
1503604435246,39, 1, -6, 0, -3, -4, 0, 7, 0
1503604435262,-11, -1, -1, -1, -10, -5, -4, -2, 0
1503604435285,-1, 11, 4, 1, 13, 8, -1, -6, 0
1503604435299,11, 6, -2, -4, -23, -7, 2, -2, 0
1503604435316,7, -5, -8, -4, -30, -14, 0, 2, 0
1503604435330,-12, 2, -4, -1, 4, -1, -10, -2, 0
1503604435353,-8, -6, -5, -6, -7, -3, 2, -1, 0
1503604435375,12, 4, 7, 3, 2, -1, 2, 5, 0
1503604435390,-30, 1, 4, 4, -4, 2, 5, -20, 0
1503604435413,-21, 2, -1, 3, -1, 6, 8, 24, 0
1503604435420,-5, 0, -1, -1, 13, 5, -2, 2, 0
1503604435443,8, -3, -4, -4, -1, -7, -2, -4, 0
1503604435465,24, 1, -9, -6, -13, -8, -6, 10, 0
1503604435480,7, 17, 15, 5, 3, -2, -3, -33, 0
1503604435502,-1, -11, -5, 1, -7, -5, 4, 12, 0
1503604435525,2, -3, 0, -3, -27, -13, 1, -3, 0
1503604435539,4, 10, 4, 4, 7, 6, 4, -4, 0
1503604435562,7, -6, -1, 4, -5, 3, -2, -12, 0
1503604435585,-19, -7, -8, -2, 16, 9, 4, -1, 0
1503604435607,-3, 4, 12, 2, -5, 0, -4, -19, 0
1503604435622,0, -15, 2, -2, -1, -1, -3, 10, 0
1503604435645,-1, -1, -8, -4, -2, -1, 0, 1, 0
1503604435667,10, -1, -2, 0, 1, 2, -1, 3, 1
1503604435682,-22, 24, 15, 1, 28, 10, -5, 10, 1
1503604435704,21, -8, -1, 2, -8, -4, -2, -1, 1
1503604435727,-14, -1, -11, -3, -14, -2, -1, -3, 1
1503604435743,25, 8, -3, -2, -11, -3, -6, 2, 1
1503604435757,-14, 5, -3, -5, -6, -12, -10, -13, 1
1503604435772,-2, 2, -2, 1, 50, 15, -6, -15, 1
1503604435787,0, -16, -15, -3, 0, -3, 2, -8, 1
1503604435802,-25, -39, -13, -3, 9, 10, 5, -2, 1
1503604435824,-27, 0, -4, 0, 19, 5, -6, -4, 1
1503604435847,22, 1, -5, 0, 4, -10, -4, 15, 1
1503604435862,-2, -4, 4, -3, -3, -2, -2, -10, 1
1503604435884,-7, -2, -3, -5, -5, -5, -6, -14, 1
1503604435907,7, 6, -3, -3, -15, -1, 2, -8, 1
1503604435922,5, -1, 1, 0, -1, 6, 3, 7, 1
1503604435945,-1, -4, -3, -1, 4, -3, 1, -3, 1
1503604435966,-10, 3, -7, -3, 2, -3, -4, -8, 1
1503604435982,2, -8, -4, 1, 40, 17, -2, -5, 1
1503604436004,13, 1, 2, -1, -29, -14, 1, 15, 1
1503604436027,-15, -15, -2, -2, -7, -7, 7, 6, 1
1503604436042,1, -1, -4, 0, -17, -7, 4, 4, 1
1503604436064,20, -5, -4, 0, 0, 3, 0, 0, 1
1503604436087,-12, 0, 3, 0, -5, -9, -4, -11, 1
1503604436095,-12, -12, -1, 0, -8, -4, 0, 2, 1
1503604436117,-43, -5, -7, -1, -1, 0, -2, -69, 1
1503604436133,-12, 0, 4, 2, 8, -1, -4, 7, 1
1503604436148,-1, 2, 3, 1, -5, -3, -2, -3, 1
1503604436162,-21, -7, 4, 3, 12, 10, 4, 1, 1
1503604436185,-3, 2, 0, 2, 33, 13, -1, -1, 1
1503604436207,12, 8, 2, 1, 4, 2, -3, 0, 1
1503604436223,-19, -6, -4, -2, -8, -5, -7, -21, 1
1503604436244,-6, -5, -3, -4, -6, -6, -1, -4, 1
1503604436267,5, -2, 1, 0, -8, -8, -2, -5, 1
1503604436282,0, 6, 12, 5, 8, 4, -1, 1, 1
1503604436304,11, 0, -4, -2, -5, -4, 2, 9, 1
1503604436328,25, -1, -6, -3, -10, -2, 1, -8, 1
1503604436342,-2, 1, 1, -1, 3, -7, -7, 0, 1
1503604436364,10, 0, -4, -5, -1, -3, -3, 0, 1
1503604436388,-12, -2, -3, -3, -9, -1, 2, 2, 1
1503604436402,26, 13, 5, 3, 8, 5, 5, 4, 1
1503604436425,-20, -21, -4, -2, -2, 9, 6, 1, 1
1503604436450,-7, 7, 0, 2, 30, 15, 5, -2, 1
1503604436455,4, 3, -8, -11, -30, -10, -4, 2, 1
1503604436477,-4, -15, -7, -2, 6, -4, -9, -4, 1
1503604436499,0, -7, -2, 1, -8, 3, -1, -1, 1
1503604436517,5, 11, 1, -2, -25, -12, -1, -4, 1
1503604436537,-7, 3, 6, 3, 6, -3, -1, -2, 1
1503604436559,2, 2, -3, 0, -4, -3, -7, 3, 1
1503604436575,-7, 2, -4, -5, 9, 5, -1, -3, 1
1503604436597,-1, -11, -4, -3, 14, -6, -9, -6, 1
1503604436620,26, 0, 3, 2, -37, -3, 2, 5, 0
1503604436635,-2, -8, -7, 0, 1, 9, 1, 0, 0
1503604436650,24, 2, -1, -7, -23, -16, 3, 1, 0
1503604436657,-21, 3, 1, -1, -20, -4, 13, -18, 0
1503604436665,19, 5, 1, -10, -42, -20, 20, -4, 0
1503604436687,1, 6, -2, -3, -30, 2, 3, 8, 0
1503604436709,-2, 0, -4, -1, 1, -2, -29, 3, 0
1503604436725,7, -4, -6, 0, 9, 7, -19, 3, 0
1503604436747,6, 4, 3, 1, -1, -1, -7, -1, 0
1503604436769,-4, 2, 4, -2, -3, 1, 7, 3, 0
1503604436785,-24, -4, 6, -1, -4, -3, -10, 2, 0
1503604436808,-2, -11, -3, -4, -33, -10, 14, -5, 0
1503604436818,-3, 3, -4, 4, -20, -5, 10, 3, 0
1503604436837,2, -7, -10, -3, -17, -8, 9, 11, 0
1503604436860,2, -5, -5, -4, 23, 13, -5, 4, 0
1503604436875,-1, 9, 11, -1, -13, -19, -8, 2, 0
1503604436897,-13, -6, -6, -2, 2, 9, 12, -3, 0
1503604436919,21, 0, 2, 0, 10, 4, 11, 28, 0
1503604436935,-29, 16, 11, 0, 4, 2, -5, -10, 0
1503604436957,3, -3, -4, -5, -3, -7, -23, -1, 0
1503604436979,7, -4, -7, -7, -48, -14, -10, -15, 0
1503604436994,32, 5, -5, -2, 1, -7, -6, 6, 0
1503604437020,24, 0, 2, 5, -9, 3, 9, 24, 0
1503604437040,-16, -9, -6, -3, 4, -12, -1, -16, 0
1503604437055,-23, 12, 11, 4, 15, 7, 13, -12, 0
1503604437077,-1, -8, -2, -3, 4, 7, 4, 9, 0
1503604437099,2, -5, -4, 1, 9, 4, 14, 3, 0
1503604437115,5, -7, -13, -6, -13, -6, -7, 5, 0
1503604437137,-8, -7, -4, 1, 19, 6, -20, -30, 0
1503604437159,36, -11, -12, -2, 2, -3, -14, -1, 0
1503604437175,-13, -6, -3, 1, 8, 6, 5, 2, 0
1503604437197,56, -4, 5, -2, -5, -3, -4, 49, 0
1503604437228,13, 4, 2, 2, 36, 6, 15, 14, 0
1503604437249,5, -1, 0, -1, -10, 2, 12, 10, 0
1503604437265,-16, -5, 3, 3, 13, -1, 1, 1, 0
1503604437290,-1, 1, 5, 1, -11, -3, 5, -3, 0
1503604437309,5, -8, -6, -2, 7, -5, -9, -6, 0
1503604437325,-13, -10, -5, -6, -17, -8, -12, -4, 0
1503604437347,35, 15, 14, 6, -7, 4, 7, 21, 0
1503604437376,7, 4, -3, -2, 0, -2, 7, 6, 0
1503604437384,-23, -4, -3, -4, -46, -14, -3, -18, 0
1503604437407,12, -2, -3, -1, 19, 0, -1, 21, 0
1503604437429,-19, 1, 8, 2, -4, -5, -2, -22, 0
1503604437451,-10, -6, -9, -5, 1, 0, 2, -18, 0
1503604437468,13, 1, -5, -3, -10, -1, -3, 7, 0
1503604437493,6, -1, 2, 0, 20, 5, -2, 29, 0
1503604437511,-14, -5, -6, -5, -24, -14, -5, -6, 0
1503604437528,-5, -2, -2, 0, -1, 8, -2, -21, 0
1503604437549,13, 6, 5, 1, 3, -1, 2, 9, 0
1503604437571,5, 8, 4, 1, 1, 4, 4, -1, 0
1503604437587,3, -8, -10, -3, 1, 0, -1, -3, 0
1503604437609,-12, -2, 1, 0, -18, -11, -1, 3, 0
1503604437631,2, 1, -1, -3, -28, -4, -4, -13, 0
1503604437647,-9, 1, 1, -1, 4, 10, 10, 0, 0
1503604437662,9, 2, 1, 4, -5, 2, 4, 8, 0
1503604437677,13, 2, 5, -5, 65, 25, -4, 0, 0
1503604437699,-28, -12, -7, -5, -3, -15, -3, -31, 0
1503604437730,3, 1, 3, 3, -9, -1, -2, -7, 0
1503604437737,-1, 1, -2, 2, -19, -7, -4, 10, 0
1503604437760,10, 10, 2, -3, -11, -11, 2, 11, 0
1503604437797,-2, -3, -2, -3, -3, 1, 2, 14, 0
1503604437812,-13, -6, 1, 0, -1, -1, -2, -1, 0
1503604437828,3, -2, -6, -4, -30, -7, -1, 11, 0
1503604437853,0, 0, -2, 4, -14, -2, -1, -10, 0
1503604437871,-1, 1, 3, 0, -26, -15, -3, -9, 0
1503604437887,4, -1, -1, -1, 12, 4, 1, 2, 0
1503604437909,9, 11, -1, 1, 0, 0, -2, 2, 0
1503604437931,8, -2, -1, -4, -5, -7, -4, -4, 0
1503604437947,-5, -5, -7, -8, -13, 2, 2, -5, 0
1503604437969,-2, -24, -9, 1, 32, 9, 0, 2, 0
1503604437992,-46, -3, -5, -6, -35, -14, -5, -8, 0
1503604438008,8, -16, -15, -4, -5, 0, -1, -3, 0
1503604438031,8, 5, -17, -8, 1, -2, 0, 3, 0
1503604438051,13, -11, -13, -3, 14, 8, -1, -8, 0
1503604438067,15, 28, 20, 4, 9, 0, -7, -5, 0
1503604438089,8, 7, -2, 2, -16, -7, 4, 13, 0
1503604438117,14, 7, 15, 1, -4, -2, 0, 24, 0
1503604438132,8, 0, 7, 1, -1, 4, 0, -2, 0
1503604438148,33, 1, -11, -4, -16, -4, 2, 11, 0
1503604438157,-2, -1, 5, 3, -13, -2, -1, -10, 0
1503604438179,-4, 5, 5, 0, -7, -4, -3, 5, 0
1503604438202,-23, -6, -6, -2, -8, -1, -4, -13, 0
1503604438217,14, 0, -1, 0, 64, 17, -1, -7, 0
1503604438239,3, 1, -2, -1, -19, -5, -2, 6, 0
1503604438263,8, 5, -6, -2, -12, -5, 3, 6, 0
1503604438277,24, 11, 2, 1, -5, 3, 2, -6, 0
1503604438299,-9, -17, -4, 0, -11, -3, 1, 12, 0
1503604438322,1, -13, 1, 2, -20, -10, -2, 14, 0
1503604438337,-13, -2, -5, -6, -17, -7, -8, -11, 0
1503604438364,43, 2, -7, -7, -14, -9, -4, 30, 0
1503604438382,18, -8, -3, 0, -6, 3, 3, -25, 0
1503604438405,-27, 2, 5, 5, 17, 10, 1, -4, 0
1503604438419,-54, -18, -4, -2, 53, 14, -3, -17, 1
1503604438442,-8, 6, 7, 0, -3, -10, -1, 6, 1
1503604438464,-14, -13, -15, -4, -14, -4, -3, -34, 1
1503604438479,17, 11, -2, -3, -14, -7, -7, 5, 1
1503604438502,60, 9, 10, 4, -1, -1, 0, 1, 1
1503604438524,-16, 11, 10, 3, -15, -3, 7, 7, 1
1503604438539,10, 5, -6, -3, 0, 3, 9, 5, 1
1503604438564,42, 15, 16, 6, 2, 6, 6, 15, 1
1503604438584,13, -4, -11, -2, 1, 0, 2, 24, 1
1503604438600,8, 12, 0, -3, -28, -9, -4, -10, 1
1503604438622,-42, -13, 10, 1, -55, -21, -5, -18, 1
1503604438644,10, -3, -8, -1, 16, 4, -6, 9, 1
1503604438659,-21, -8, 2, 4, 88, 29, -3, -5, 1
1503604438682,-16, -6, -2, -1, -8, -6, -8, -5, 1
1503604438704,-20, -6, -4, -1, 0, -3, 2, 12, 1
1503604438719,13, 0, -5, -5, 9, 10, -3, 3, 1
1503604438742,-14, -5, -7, -3, -11, -8, -1, -13, 1
1503604438765,7, 5, 0, -1, 1, 6, 4, 3, 1
1503604438774,3, -14, -7, -6, -26, -8, 0, 1, 1
1503604438795,-20, -15, -6, 1, -4, -3, -1, 2, 1
1503604438817,-10, 0, -3, -5, -19, -7, -1, -9, 1
1503604438840,-4, 1, 9, -2, -3, -1, -6, -12, 1
1503604438855,-19, -3, -3, 1, 4, 10, 3, 12, 1
1503604438877,21, 9, 2, 1, 5, -7, -8, 0, 1
1503604438892,49, 7, 2, 1, -9, -4, -4, 4, 1
1503604438915,2, -12, -3, -8, -9, -3, 2, 7, 1
1503604438930,-4, 7, 10, 2, -47, -15, 2, -12, 1
1503604438952,8, -3, -3, -2, -10, -6, -3, -7, 1
1503604438975,-18, -1, -5, 0, -14, 3, 1, -2, 1
1503604438999,-8, 5, 8, 7, 29, 14, -1, 5, 1
1503604439012,8, 2, -5, -2, 38, 1, -1, -5, 1
1503604439035,7, 0, 0, 0, 6, 1, 1, 2, 1
1503604439057,-5, 4, 1, -2, 8, 4, -5, -25, 1
1503604439073,11, 5, -2, 0, -14, -5, -1, 2, 1
1503604439095,-23, -5, -5, 4, 68, 29, -3, -17, 1
1503604439117,18, 3, 1, -2, -38, -21, -3, -10, 1
1503604439133,4, 1, 4, 1, -3, -1, 2, 4, 1
1503604439155,-7, -3, -6, -2, 0, 0, 1, 12, 1
1503604439178,-6, -8, -4, -5, -14, -5, 1, -2, 1
1503604439192,-1, 2, -1, -1, 16, -2, -6, 9, 1
1503604439215,0, -1, 0, 1, -8, 5, -2, -3, 1
1503604439238,-7, -17, -6, -4, -8, -3, -1, -1, 1
1503604439252,-12, 6, 2, 3, -3, -2, 1, 4, 1
1503604439275,5, 2, 1, -4, -1, -1, 0, 6, 1
1503604439297,0, 0, 0, 0, 5, 2, -1, -1, 1
1503604439312,4, 1, -2, -1, -8, -2, 2, 21, 1
1503604439336,6, -1, 0, -2, -4, -2, 1, -7, 1
1503604439357,-10, 2, 0, 0, -7, -1, -4, -9, 1
1503604439373,-1, -3, -2, 1, -1, 2, -1, -3, 1
1503604439395,-8, -3, -3, -5, -13, -4, -1, -9, 1
1503604439417,-1, 1, -2, -2, -3, -3, 0, 5, 0
1503604439432,-26, -6, -5, -2, 3, -4, -3, -9, 0
1503604439455,2, 6, 6, 2, -10, -2, 5, 29, 0
1503604439478,6, 4, -2, -1, 3, 1, 3, -4, 0
1503604439492,6, -10, -8, -4, 3, 1, -4, -11, 0
1503604439522,4, 12, 6, 3, -2, -1, 0, 2, 0
1503604439537,2, 1, 4, -1, -18, -3, -6, -14, 0
1503604439552,1, -5, -7, -4, -8, -3, -3, -13, 0
1503604439582,-20, 0, 11, 5, 6, 0, 1, 7, 0
1503604439597,1, -4, 5, 0, 4, 2, 2, 7, 0
1503604439612,11, -3, -9, -8, 1, -3, -1, 5, 0
1503604439635,-26, 0, 5, 2, 6, 0, -1, -16, 0
1503604439657,14, -3, -5, -6, -14, -2, -2, -10, 0
1503604439673,1, -1, -5, -2, 1, -4, 1, 24, 0
1503604439695,-15, -3, -3, -4, 3, 1, 0, -11, 0
1503604439717,37, -6, 5, 2, 5, 3, 4, 24, 0
1503604439732,25, 5, -5, 0, -2, 0, 2, 16, 0
1503604439755,-18, -1, -3, -2, -5, -3, -6, -30, 0
1503604439777,-4, 1, -1, 0, -1, -3, -5, -34, 0
1503604439792,-1, -13, -17, -5, 0, 0, -1, 23, 0
1503604439816,3, 16, 5, 0, -1, -4, -3, -40, 0
1503604439839,14, -2, 0, 2, 2, 2, 3, 7, 0
1503604439852,-21, 4, 3, 1, 2, 2, 1, -9, 0
1503604439875,-9, -5, -6, -1, 2, -1, -9, -5, 0
1503604439897,16, -5, -5, -3, 1, -1, -1, -10, 0
1503604439912,-8, -14, -8, 0, 0, 2, 2, 19, 0
1503604439935,1, -3, 2, 5, 20, 4, 7, 13, 0
1503604439957,-2, -4, 0, 0, -9, -11, -5, 48, 0
1503604439974,-11, 5, 10, -1, -5, 1, -1, -20, 0
1503604439996,-4, 3, 2, 0, -1, -3, 1, 2, 0
1503604440019,-12, 0, -2, -4, -6, 1, -3, 15, 0
1503604440036,4, 8, 11, 8, 12, -4, -2, 16, 0
1503604440056,0, -4, -9, -5, -11, -1, 2, 35, 0
1503604440080,12, 7, 8, -1, -2, 1, 2, -9, 0
1503604440092,-2, 11, 2, 2, 3, 2, -2, -29, 0
1503604440123,9, 8, 3, 4, -5, 0, -3, 7, 0
1503604440145,18, 3, -3, -4, -1, 0, 1, 23, 0
1503604440167,0, 1, -3, 0, 5, 0, -1, 0, 0
1503604440183,-20, -5, 1, 2, 0, 1, -2, -37, 0
1503604440205,3, -1, -1, -2, -2, -3, -3, 25, 0
1503604440227,1, 2, 0, 0, -1, 1, 1, 7, 0
1503604440250,-21, -10, -5, -2, -1, -3, -1, -6, 0
1503604440265,15, -2, 3, 0, -2, -1, 1, 9, 0
1503604440287,13, -1, -5, -1, 0, 0, 2, 33, 0
1503604440310,-2, -5, -4, -2, 0, 1, -1, -3, 0
1503604440317,1, -5, -4, -1, -1, -1, 1, 4, 0
1503604440340,-14, -3, 3, -1, 1, 0, -2, -17, 0
1503604440351,-2, -9, -8, -6, -3, 1, -1, 5, 0
1503604440370,-5, 5, -2, -5, 0, -2, -1, 12, 0
1503604440386,-14, -5, 1, 2, -2, -2, -4, -35, 0
1503604440410,-6, -5, -1, -2, -1, 0, 3, 11, 0
1503604440431,12, 5, 1, 2, 0, -1, -4, -9, 0
1503604440445,3, 4, -2, -3, -3, -2, -2, 2, 0
1503604440467,-2, -10, -4, -2, 0, -1, 0, 3, 0
1503604440480,-2, -6, 2, -3, -1, 1, 1, -4, 0
1503604440497,28, -1, -5, 1, -3, -2, 0, 2, 0
1503604440519,-11, -8, -3, 2, -1, 1, -3, 0, 0
1503604440535,-1, -14, -5, -5, -1, 0, 0, 5, 0
1503604440557,3, -1, 1, 2, 0, 0, -2, 0, 0
1503604440579,-9, -3, 2, 7, 1, -2, -2, -3, 0
1503604440595,3, -5, -9, -6, -2, -3, 0, 1, 0
1503604440617,-7, 15, 23, 3, 1, 1, 1, -1, 0
1503604440639,-15, 6, -6, -6, -2, -1, -2, -19, 0
1503604440656,4, -5, -3, 3, 0, 0, 0, 1, 0
1503604440678,3, -18, -9, -7, -2, -3, -2, 6, 0
1503604440700,-1, 18, 20, 8, 2, 1, -2, 4, 0
1503604440716,7, -5, -3, 2, 0, 0, -2, -1, 0
1503604440737,-2, 16, -3, 0, 1, 0, -3, 4, 0
1503604440759,-23, -6, -7, -6, -3, -2, -2, 0, 0
1503604440775,9, -8, -15, -5, -1, -2, 0, -3, 0
1503604440797,5, 12, -3, -2, -1, -1, 1, -5, 0
1503604440819,1, -1, 3, 1, 2, 0, 1, 1, 0
1503604440835,7, 5, 0, -4, 5, 0, -1, -3, 0
1503604440864,-4, -16, 2, 0, -9, 0, -1, -8, 0
1503604440880,-16, -22, -10, -2, -1, -1, 0, -13, 0
1503604440895,-10, -1, -1, -3, -2, -3, -2, 2, 0
1503604440918,28, 8, 7, 3, 5, 3, 2, 7, 0
1503604440940,-25, 3, -1, -2, -5, -1, -1, 9, 0
1503604440948,5, 9, 1, 8, 1, 1, -1, -5, 0
1503604440969,-6, -14, -7, -1, -29, -6, -5, 9, 0
1503604440984,-3, -1, 3, 1, -12, -2, -1, -17, 0
1503604441007,12, -6, -4, -1, -1, -3, 1, -7, 0
1503604441029,-11, -1, 0, -1, 9, -3, -2, -6, 0
1503604441044,-30, -20, -5, -4, 7, 4, -1, -4, 0
1503604441067,26, -11, -1, -1, 9, 0, -2, -9, 0
1503604441089,-2, 7, 5, 3, 0, 0, 1, 5, 0
1503604441104,-4, 8, 1, -3, 8, -1, -2, -16, 0
1503604441127,-2, 13, 3, 0, -3, 0, 6, -5, 0
1503604441149,9, -1, -4, 2, 42, 16, 2, 3, 0
1503604441171,26, 24, 34, 8, -12, -5, 1, 16, 0
1503604441182,-10, 0, -6, -3, -13, -8, 3, -17, 0
1503604441202,-16, -6, 4, 6, -12, -4, -3, -10, 0
1503604441217,0, -15, -14, -7, -3, 9, 3, 3, 0
1503604441239,9, 6, 6, 2, 25, -8, 0, -1, 0
1503604441250,3, -10, -8, -4, -6, -4, -4, -24, 0
1503604441269,17, -12, 10, -1, -7, 3, -2, -5, 0
1503604441294,22, 4, -16, -2, 2, -5, 1, 19, 0
1503604441307,-15, 0, -12, -6, -15, -7, -4, 2, 0
1503604441329,-37, -4, -3, -3, -1, 9, -1, -15, 0
1503604441353,1, 4, 4, -1, -4, -15, 0, 3, 0
1503604441367,1, -3, 0, 5, 11, -3, -3, 2, 0
1503604441391,32, 6, 17, 1, -7, 1, 0, 4, 0
1503604441411,-32, 1, -3, -1, -5, 7, -6, -21, 0
1503604441420,11, -1, 5, -2, -38, -19, 4, 4, 0
1503604441442,-2, -4, -5, 5, -2, 6, -3, -3, 0
1503604441458,31, 12, 19, 9, 38, 17, 1, 33, 0
1503604441471,-27, -16, -19, -8, -6, -1, 2, 15, 0
1503604441491,4, 8, 2, 2, 15, 3, 2, 12, 0
1503604441509,2, 0, 0, 0, -13, -4, 2, -12, 1
1503604441531,37, 3, 2, -3, 2, -3, -1, 7, 1
1503604441547,-5, 0, 2, -3, -31, -12, -4, -11, 1
1503604441569,-1, 12, 15, 3, -36, -21, 1, -27, 1
1503604441591,-8, 2, 3, 4, 14, 8, 3, 2, 1
1503604441607,-2, -1, -15, -8, 3, 0, 5, 16, 1
1503604441629,19, 11, 9, 1, -22, -5, -3, 9, 1
1503604441652,1, -5, -6, -2, -32, -15, 1, -9, 1
1503604441667,-20, -5, 3, 1, 15, 11, -2, -28, 1
1503604441690,-37, 15, 18, 6, 6, -1, -8, 11, 1
1503604441711,3, -5, 5, 8, 20, 8, -1, -11, 1
1503604441728,5, -9, -12, -5, 46, 13, 2, 8, 1
1503604441749,-53, -5, -4, 2, 28, -1, -1, -11, 1
1503604441771,6, -7, -4, 0, -4, 0, -1, 6, 1
1503604441787,18, -1, -2, 0, 19, 13, 4, 17, 1
1503604441809,5, -15, -7, -5, -25, -9, -4, -7, 1
1503604441831,21, 9, -8, -5, -9, 0, 0, 8, 1
1503604441847,4, -6, -4, 1, -1, -3, -3, 2, 1
1503604441869,15, 7, 0, 7, -19, -13, 1, 0, 1
1503604441891,-36, -7, -6, -8, -42, -13, -4, -4, 1
1503604441907,18, -1, 2, -2, -14, -3, 0, 1, 1
1503604441929,-7, -10, -5, -7, 25, 9, 0, -14, 1
1503604441951,4, 4, 6, -3, 9, 1, -1, -7, 1
1503604441967,-10, -10, -9, -7, 24, -1, -6, -22, 1
1503604441989,24, -1, -8, -3, -3, 1, -1, 8, 1
1503604442011,8, 3, 2, 6, 12, 6, 0, 11, 1
1503604442027,-8, 3, 4, 5, 6, 3, 3, -3, 1
1503604442049,4, -2, -8, -6, -11, -1, -3, -13, 1
1503604442073,3, 1, 0, 1, -6, -1, 2, 12, 1
1503604442094,-12, -3, 2, 6, -18, 0, 1, 9, 1
1503604442109,26, 0, -2, -7, 16, 10, -1, -3, 1
1503604442147,-26, -3, 1, 6, 12, 1, 1, -3, 1
1503604442162,26, 3, 2, -3, -5, -3, 4, 22, 1
1503604442184,19, 0, -1, -4, 2, -1, -1, -2, 1
1503604442199,-6, -3, -4, -1, -5, 2, 0, 0, 1
1503604442222,8, 2, 1, -3, 8, 8, 1, -5, 1
1503604442244,9, -1, -3, -2, 4, -2, -3, 4, 1
1503604442259,-29, -4, 0, 6, -6, -5, 0, -9, 1
1503604442282,8, 1, 7, 7, 2, -2, -2, 0, 1
1503604442304,-2, 1, -4, 1, 1, -4, -3, 0, 1
1503604442319,4, -16, -13, -7, -3, 1, 0, 1, 1
1503604442341,4, 11, 2, 1, 0, -3, 1, -1, 1
1503604442365,0, -8, -3, -3, -4, -5, -1, 0, 1
1503604442380,-2, -5, -4, -4, 19, 10, -6, -8, 1
1503604442402,-20, 6, 7, 1, -8, -5, 0, -4, 1
1503604442424,10, 3, -2, 9, -5, -1, 2, 4, 1
1503604442440,6, 1, 1, -7, -5, -2, -2, 3, 1
1503604442462,-2, 1, -3, -3, -7, -5, 1, -13, 1
1503604442484,-1, -1, -2, -6, -90, -34, -5, -9, 1
1503604442500,6, 0, 0, -1, -1, 0, 3, 17, 1
1503604442522,2, 2, 3, 0, 19, 7, -1, -9, 1
1503604442544,4, 0, 1, -1, 21, 8, 1, 5, 1
1503604442560,-5, -6, -4, 2, 13, 5, -3, -4, 1
1503604442582,9, -6, -2, 2, 11, 4, 1, 3, 1
1503604442594,3, 13, 3, -5, 2, -2, -2, 12, 1
1503604442611,-2, -12, -14, -7, -4, 0, 1, 0, 1
1503604442634,6, 3, 8, 0, 2, 1, -1, -4, 1
1503604442649,2, -4, -3, -2, 20, -1, -2, 2, 1
1503604442672,-12, -4, -3, -2, -10, 0, -1, -4, 1
1503604442694,11, -2, -4, -2, -3, -3, -1, -5, 1
1503604442709,6, -4, -4, 1, -4, -1, -1, -7, 1
1503604442732,3, -3, -5, -3, -3, -2, -4, -5, 1
1503604442754,1, -1, -2, -2, -18, -4, 0, -2, 1
1503604442769,2, -2, -3, -1, 26, 0, 0, 4, 1
1503604442795,4, -8, -4, -4, 2, 0, -4, 9, 1
1503604442814,20, -1, 3, 4, -13, -2, -1, 8, 1
1503604442829,-2, 3, 3, 2, -5, 1, 1, -3, 1
1503604442852,-9, -2, -3, -11, -1, 1, 0, 2, 1
1503604442874,-3, 1, 2, 2, -3, -1, 1, 0, 1
1503604442889,-13, -3, -4, -4, 1, 1, -2, -7, 1
1503604442911,-7, -3, 4, -6, -6, -3, -3, -3, 1
1503604442933,-3, 0, -3, 0, -2, -6, 0, -1, 1
1503604442949,0, -2, 0, 8, -21, 2, 0, -3, 1
1503604442971,-3, -9, -5, 4, 16, 6, -4, -13, 1
1503604442994,7, 4, -2, -3, -1, 0, 1, 12, 1
1503604443009,-15, -1, 3, 2, 8, -7, -3, -6, 1
1503604443031,13, 0, -2, -7, -18, -8, -1, 2, 1
1503604443053,-2, 3, -3, -1, -25, -2, 0, -8, 1
1503604443076,1, -7, -2, 9, -4, -3, -1, 2, 1
1503604443093,-4, 1, 2, -4, 19, 10, -1, -2, 1
1503604443121,-1, 9, 8, -1, 7, -2, 1, -3, 1
1503604443136,-6, -12, 1, 3, -2, -2, 0, 6, 1
1503604443144,-6, 4, 3, 4, 2, -1, -3, -12, 1
1503604443167,-4, -5, -3, -3, 24, 4, 2, -2, 1
1503604443181,6, 4, -4, -3, -8, -4, -1, -2, 1
1503604443204,-5, -7, -5, 0, 2, -2, 2, 0, 1
1503604443229,-1, 8, 15, 13, 7, 6, 1, 6, 1
1503604443242,0, -2, -4, -5, -19, 1, -2, 0, 1
1503604443265,-5, 2, 3, 2, 34, 8, -2, -9, 1
1503604443287,-4, -6, 2, -3, -11, -5, -1, -4, 1
1503604443302,-12, -4, -5, -3, -7, -5, -2, -6, 0
1503604443325,-2, 0, 2, 2, -3, -3, 2, -6, 0
1503604443347,6, -1, -2, -3, -10, -2, 0, -1, 0
1503604443364,11, -2, 0, -3, -12, -6, -2, 1, 0
1503604443384,-4, 0, 1, 0, 5, 0, -2, -3, 0
1503604443407,-11, -7, -6, -1, -7, -3, 0, 4, 0
1503604443441,-2, -7, -3, -1, 9, 1, -1, -4, 0
1503604443451,17, 5, 9, -3, 9, -3, 0, 3, 0
1503604443474,-14, -2, -5, -2, -2, -1, 0, -10, 0
1503604443499,1, -6, -4, 5, -14, -6, -4, 0, 0
1503604443512,4, 1, -1, -3, 1, -6, -1, 5, 0
1503604443536,-1, 0, 2, 2, 1, 1, 0, -1, 0
1503604443558,-14, -5, -4, 1, 19, 3, 0, 3, 0
1503604443580,11, 1, -3, 1, -1, 5, -1, 9, 0
1503604443595,-4, 1, 2, -1, 1, 3, -1, -5, 0
1503604443618,-6, -3, -2, -1, 3, -1, -3, -8, 0
1503604443641,-6, -1, 2, 3, 14, -10, -4, -5, 0
1503604443647,7, -5, -5, -5, -10, -3, 3, 1, 0
1503604443662,3, -2, -1, 2, 11, 5, -2, -5, 0
1503604443684,7, 4, 4, 3, -3, -3, 0, 17, 0
1503604443707,0, -3, -3, 1, -4, -1, -2, 3, 0
1503604443722,-1, 1, 0, 3, 17, 1, -2, -6, 0
1503604443745,-21, -4, -6, -6, -11, -2, -5, -31, 0
1503604443767,1, 0, -2, 1, 11, 2, 2, 7, 0
1503604443782,10, -4, 1, -3, -6, -4, -1, 8, 0
1503604443808,-28, -7, -5, -4, -1, -3, -1, -7, 0
1503604443827,7, 0, -1, 4, -2, 1, 2, 8, 0
1503604443842,1, -3, -1, 1, 22, 10, 3, -5, 0
1503604443857,-5, 1, -1, -1, -10, -1, 1, -6, 0
1503604443880,-11, -1, 1, 0, 6, -1, -3, -20, 0
1503604443895,3, -8, -7, -7, 2, -1, -1, 2, 0
1503604443917,2, 1, -4, -2, 4, -1, -8, -7, 0
1503604443940,4, 2, 2, -3, 2, 0, -2, 9, 0
1503604443955,10, -3, 4, 4, -9, 1, 0, 21, 0
1503604443970,-8, 3, -2, -9, -4, -2, 3, -11, 0
1503604443984,9, -4, -8, 1, 1, -2, 0, 3, 0
1503604444007,-5, -2, -21, -19, 0, -3, -1, -7, 0
1503604444029,-3, -2, 6, 4, -13, -5, -4, -3, 0
1503604444044,6, 2, 5, 6, -4, 6, -1, 3, 0
1503604444060,3, 0, -5, -5, 3, -3, -1, -3, 0
1503604444075,-1, 3, 8, 5, -4, -2, -3, -1, 0
1503604444089,-8, -3, 3, 8, 1, -5, -1, -8, 0
1503604444104,1, 2, 9, 9, 0, 0, 1, 4, 0
1503604444127,9, 8, 9, 14, 4, 3, 4, 1, 0
1503604444149,-11, -4, -6, -7, -17, -5, -5, 1, 0
1503604444164,-3, -1, -2, -1, -4, -2, -1, 5, 0
1503604444187,5, 0, 2, 3, 4, 1, 0, 4, 0
1503604444211,2, 3, -3, -4, 49, 26, -4, 10, 0
1503604444224,3, 9, 6, -9, -16, -9, -2, -5, 0
1503604444247,-5, -4, -2, 4, -7, 2, 4, -8, 0
1503604444271,0, 3, 8, 11, 19, -1, -2, 3, 0
1503604444284,16, -7, -2, -1, -8, -1, 0, 4, 0
1503604444312,5, 2, 2, 1, 12, 5, -1, 0, 0
1503604444316,2, -3, -6, 0, 9, 4, 1, -2, 0
1503604444338,5, 3, 4, 4, 2, 2, -5, -9, 0
1503604444360,-7, -3, -2, -3, -3, -1, -1, -16, 0
1503604444377,-15, -1, -2, -6, -4, 0, -1, -8, 0
1503604444397,12, -1, 1, 1, -2, -3, 2, 16, 0
1503604444420,-5, -4, -4, -4, -4, -3, -2, -6, 0
1503604444437,7, -4, -1, 0, 4, -1, 2, -1, 0
1503604444457,-3, 9, 4, 0, -5, -2, -1, -1, 0
1503604444481,-31, -4, 0, 0, -1, -2, -5, -60, 0
1503604444495,6, -1, -2, -1, -4, -3, -3, 1, 0
1503604444517,-20, -9, -9, -9, 2, -1, -1, 14, 0
1503604444541,14, 2, 4, 0, -8, -1, 3, 15, 0
1503604444555,4, 3, 5, 2, 3, -8, 0, 9, 0
1503604444571,2, -4, -6, -9, 2, 0, 3, 2, 0
1503604444584,-9, -3, -3, 7, 4, -3, -5, 4, 0
1503604444607,21, 5, 2, 2, 3, 1, 2, 4, 0
1503604444630,-1, -5, -6, -4, 1, -1, -1, 2, 0
1503604444645,-1, -2, 1, -1, -8, -5, -2, 7, 0
1503604444667,-20, -5, 2, 10, -3, -8, 0, -11, 0
1503604444689,7, 7, 4, -3, -2, 1, -1, 14, 0
1503604444714,9, 3, 5, 2, 7, 2, -2, 7, 0
1503604444727,-1, 3, 4, 6, 7, 0, -1, -10, 0
1503604444749,-32, -10, -6, -2, 4, 3, 3, -3, 0
1503604444764,24, -3, -6, -3, -4, -5, -3, 19, 0
1503604444787,4, 5, 8, 13, 7, 3, 2, -3, 0
1503604444810,2, -3, -6, -7, -2, 4, 1, 3, 0
1503604444824,-11, -2, 2, -4, -6, -3, -2, -24, 0
1503604444847,-2, -2, -3, -2, 18, -4, -8, -24, 0
1503604444869,0, 2, 5, 0, -8, 0, -7, -58, 0
1503604444892,14, 8, 2, -2, -2, 0, 5, 47, 0
1503604444911,1, -3, -4, -4, -2, -5, -2, -14, 0
1503604444922,5, -2, 0, 1, -4, 0, -3, -15, 0
1503604444937,1, 4, 11, 6, 4, 4, 5, -1, 0
1503604444960,17, 6, 0, 0, 5, 0, 1, 16, 0
1503604444985,4, 1, -2, 0, -1, -3, 0, -12, 0
1503604444998,16, -2, -3, 0, -6, -1, -1, 34, 0
1503604445020,20, 0, -1, 0, 28, 7, -1, -19, 0
1503604445042,5, 2, 7, -4, -23, -12, -1, -8, 0
1503604445050,-21, -7, -6, -4, 0, 2, -2, -18, 0
1503604445073,20, 2, -3, -1, -2, -3, -2, 7, 0
1503604445087,8, 0, -5, -2, 0, -1, 5, -21, 0
1503604445110,0, 10, 17, 4, 7, 3, -1, -2, 0
1503604445132,-4, -4, -5, 0, 24, 4, -4, 15, 0
1503604445147,-9, -5, -5, -3, 1, -3, -4, 29, 0
1503604445162,9, 3, 2, -5, -11, -9, -1, 7, 0
1503604445178,7, 6, 3, -1, -5, -1, -6, -20, 0
1503604445209,7, -1, -3, 0, -5, -7, -2, -15, 0
1503604445229,-2, -2, -4, -3, -5, -1, -5, 21, 0
1503604445252,0, 5, 2, 3, 5, 3, 2, 5, 0
1503604445267,-25, -6, 0, -3, -6, -1, 0, -17, 0
1503604445289,13, 4, 0, -1, -1, -1, -4, -2, 0
1503604445319,-7, -6, -4, 0, 0, -4, 3, -1, 0
1503604445327,5, 3, -2, 2, -3, -2, -4, -9, 0
1503604445349,-1, 3, 3, 1, -2, 0, -1, -29, 0
1503604445372,1, 4, 4, -3, -22, 1, -5, -13, 0
1503604445387,25, -9, -4, -4, -8, -5, -4, 40, 0
1503604445412,-20, -5, -4, -1, 8, -6, 0, -22, 0
1503604445432,6, 5, 3, 3, 5, 4, 4, 48, 0
1503604445447,-5, -5, -3, -5, 2, 1, 3, 38, 0
1503604445469,2, -2, -2, 0, 3, 0, -3, -16, 0
1503604445492,9, 3, 1, -1, 0, 6, 3, -7, 0
1503604445507,-6, -1, 5, -1, -1, -2, 1, 3, 0
1503604445529,-25, -2, -3, 0, 3, -1, -7, -36, 0
1503604445552,-6, 1, -2, 2, 30, 3, 2, -14, 0
1503604445567,-4, 0, -2, -1, -12, -5, -4, -14, 0
1503604445589,-6, -1, -3, 0, 0, 2, 1, 28, 0
1503604445613,13, 0, -3, 0, -17, -1, 0, 17, 0
1503604445628,-42, -6, -5, 0, -10, -4, -9, -27, 0
1503604445651,1, 0, -1, -2, -2, -1, -1, -13, 0
1503604445672,13, -3, -5, -2, 2, -1, 3, 9, 0
1503604445687,9, -4, -3, 1, 1, 0, 0, -9, 0
1503604445709,23, 1, 4, 1, 3, 0, -2, -29, 0
1503604445732,-6, 7, 5, 2, 5, 4, 7, 25, 0
1503604445748,-4, -9, -12, -11, -4, -5, -1, -15, 0
1503604445769,1, 3, 0, -2, -1, -2, -2, 2, 0
1503604445792,-26, -6, 1, -3, 2, 1, -3, 4, 0
1503604445816,-4, 5, -5, -1, -1, -3, 0, 5, 0
1503604445830,20, -2, 7, 3, 0, -1, -1, 12, 0
1503604445852,3, -1, 3, 2, -1, 2, 1, 2, 0
1503604445874,-1, 3, -1, 0, 0, -3, -2, -1, 0
1503604445891,3, 0, -3, 0, -1, 0, -3, 2, 0
1503604445914,-10, -8, 3, 2, -3, -2, -1, -2, 0
1503604445934,-1, 8, 16, 1, -1, 1, -1, -2, 0
1503604445950,3, 8, 1, -3, -3, -1, -2, -5, 0
1503604445983,7, -6, 6, 2, 1, 0, -1, 0, 0
1503604446002,13, 54, 38, 17, 5, 2, -1, 2, 0
1503604446024,-4, 1, -5, -10, -2, -1, 0, -1, 0
1503604446040,-1, -3, -3, -1, -1, -2, -1, -1, 0
1503604446062,4, 2, -3, -2, -1, 1, 0, 2, 0
1503604446084,-1, -11, -8, -5, -2, -2, -1, -1, 0
1503604446100,-2, -8, -6, -3, -3, -2, -2, -2, 0
1503604446122,-1, 0, -1, 11, 3, 1, -1, 0, 0
1503604446144,0, 4, -2, -11, -1, -2, -2, -1, 0
1503604446160,-1, -2, -3, -5, -3, -2, 0, 0, 0
1503604446184,4, -4, 9, 5, 0, -1, 0, 0, 0
1503604446204,5, 5, 0, 2, 2, -1, -1, 8, 0
1503604446220,-1, 7, 0, -3, -2, 0, 1, 8, 0
1503604446243,2, -9, -10, -3, -3, -4, -5, 11, 0
1503604446264,-6, -11, -8, -5, -4, 0, 0, -10, 0
1503604446280,-3, 1, -4, -1, -2, 0, -1, -6, 0
1503604446302,2, 9, 0, -2, 0, -1, 0, -4, 0
1503604446324,4, 0, -2, -1, 1, -1, -1, 2, 0
1503604446332,3, 10, 5, -5, 0, -2, -2, -3, 0
1503604446355,12, -5, -2, -6, -2, -1, 0, 21, 0
1503604446369,2, -3, -5, -3, -1, 0, 0, -11, 0
1503604446393,1, 8, 9, 6, 0, -1, 0, -3, 0
1503604446414,-3, 9, 3, 14, 2, -1, 1, 3, 0
1503604446429,-4, -3, -4, -5, -1, 0, -2, 2, 0
1503604446452,3, 3, -3, 0, 0, -1, -1, 2, 0
1503604446461,8, -3, -4, -4, 0, 0, 1, 3, 0
1503604446482,1, 8, -1, 1, -1, -2, 0, 0, 0
1503604446490,-6, -22, -3, 0, 2, 0, -3, -8, 0
1503604446512,-7, -14, -10, 0, -3, 0, -1, 1, 0
1503604446534,-12, -5, -15, -7, -4, -1, 1, -10, 0
1503604446549,11, -3, 1, 6, 2, 0, 0, 1, 0
1503604446572,-3, 14, 4, 13, 2, -1, 1, -3, 0
1503604446595,4, 3, -2, -5, 0, 0, -2, -5, 0
1503604446609,3, 3, 4, -4, -4, -3, 0, 3, 0
1503604446632,0, 0, -5, -11, -6, -1, -2, -1, 0
1503604446654,-7, -1, -2, 7, 3, 2, 0, 1, 0
1503604446669,6, -3, -8, -10, 3, -2, -4, -2, 0
1503604446692,-1, 0, 5, 0, -3, 0, 0, -1, 0
1503604446714,-13, 0, 0, -2, -11, -1, -1, -4, 0
1503604446724,-9, -1, -1, 1, -4, 0, -2, -17, 0
1503604446744,-16, -3, -1, -1, 14, 11, -1, -10, 0
1503604446754,1, -7, -3, -1, 0, -5, -1, -7, 0
1503604446774,12, -4, 10, 12, 10, 2, -1, 11, 0
1503604446797,3, -1, -6, -4, 2, 0, 0, 8, 0
1503604446812,24, 5, 8, -1, 6, 3, 3, 7, 0
1503604446834,-14, 2, 1, -1, 1, 0, 0, -19, 0
1503604446856,12, -5, -7, -6, -1, -2, -3, -12, 0
1503604446872,-6, -3, -7, -1, -14, -14, -1, -1, 0
1503604446894,-10, 1, -3, -4, 2, -1, -4, -9, 0
1503604446916,2, 3, 4, 16, 3, -5, -2, 16, 0
1503604446932,0, 0, -13, -7, 1, 1, 2, -2, 0
1503604446956,-1, 10, 9, -5, 3, 8, 2, -9, 0
1503604446976,6, 11, 6, 1, 3, 0, -2, 5, 0
1503604446992,18, 6, 2, -2, -18, 12, 2, -19, 0
1503604447014,5, -5, 3, 2, -17, -8, 2, 3, 0
1503604447030,14, -6, 1, 0, -7, 5, -3, -2, 0
1503604447044,-3, 6, 6, 2, 3, -7, 0, 0, 0
1503604447067,-14, -4, -7, -5, 0, -2, -2, -1, 0
1503604447084,-20, -10, -2, -2, -11, -4, 1, -15, 0
1503604447104,20, 5, 5, 2, 0, 0, 3, 2, 0
1503604447112,14, -2, -4, -9, 0, 0, -1, -2, 0
1503604447134,-2, 14, 4, 17, 2, 1, 1, 4, 0
1503604447157,-16, -14, -21, -9, 1, -2, -2, 4, 0
1503604447171,7, -9, -1, 3, 1, -1, -2, -2, 0
1503604447194,2, -1, 11, -3, 0, 0, -2, -2, 0
1503604447216,1, 4, 9, 2, 2, 2, 1, 2, 1
1503604447233,-2, -5, 1, -1, 2, 0, -1, -1, 1
1503604447257,-1, -3, -7, -6, -1, 0, 1, -4, 1
1503604447276,-2, -2, -2, -1, 17, -2, 1, -1, 1
1503604447292,3, 5, 3, 2, -7, -2, -2, -3, 1
1503604447314,1, 2, -2, -9, -6, -2, 1, 3, 1
1503604447336,30, -2, -3, 1, 0, 1, -2, -5, 1
1503604447352,-30, -23, -14, -7, -4, -3, -1, -9, 1
1503604447374,3, -7, -15, -7, -8, -4, -2, -3, 1
1503604447398,13, 7, 1, -3, -2, -4, 0, 8, 1
1503604447405,-5, 3, -7, -10, -3, 0, 0, 3, 1
1503604447427,-31, -19, -6, -4, -3, 0, -1, -2, 1
1503604447442,12, 14, -3, 2, 23, 14, 1, 0, 1
1503604447465,-12, -7, -7, -8, -7, -5, 0, -2, 1
1503604447487,-6, 3, 0, -1, -4, -4, 0, 0, 1
1503604447502,8, -7, -7, -3, -3, -3, -2, 2, 1
1503604447527,7, 0, -5, -4, -5, -3, 0, 3, 1
1503604447547,5, -3, -1, -1, -3, -2, 0, 2, 1
1503604447562,20, 9, 0, -1, -1, -1, 1, 0, 1
1503604447584,-2, 13, 17, 19, 3, 2, 1, -2, 1
1503604447607,-9, -8, -7, -5, 7, 1, -3, -7, 1
1503604447622,-7, -2, 0, 1, -3, -3, -1, -1, 1
1503604447644,-12, 4, 4, -1, 7, 1, -2, -5, 1
1503604447668,9, -1, 9, 3, 0, 1, -3, 0, 1
1503604447689,-19, -7, -4, -6, -8, 1, -3, -4, 1
1503604447697,-10, -6, 0, 2, -32, -8, -2, -4, 1
1503604447718,-4, -1, 6, 3, 27, 21, 0, -3, 1
1503604447729,4, -2, -2, -5, -3, 1, 1, 7, 1
1503604447749,2, 1, -6, 0, 19, 8, -1, -8, 1
1503604447765,28, 8, 2, 3, -9, -5, 4, 15, 1
1503604447787,-6, -8, -7, -3, -4, 0, -4, -4, 1
1503604447809,4, -1, -2, -2, -5, 0, 4, 0, 1
1503604447824,-8, -2, -10, -10, -4, 3, 2, -1, 1
1503604447847,-10, 2, 1, -3, -2, -2, -2, -4, 1
1503604447870,20, -2, -2, 1, 13, -4, -2, 7, 1
1503604447884,7, -1, -1, -2, 5, 28, 2, 9, 1
1503604447907,0, -6, 5, 8, -6, -9, 1, -7, 1
1503604447929,-6, -8, -6, -5, -5, -9, -5, -12, 1
1503604447944,-4, 5, 2, 4, 0, -9, 0, 8, 1
1503604447967,-6, -4, -7, -5, -17, -7, 3, 4, 1
1503604447989,-1, 5, 3, -7, -12, -4, 1, -13, 1
1503604448000,-1, -9, -11, -9, -2, 2, -3, -6, 1
1503604448029,3, 2, -3, -3, 15, 7, 0, 3, 1
1503604448034,-6, 2, -2, 2, -12, -4, -1, -1, 1
1503604448056,2, 2, 0, -1, -2, -1, 0, 1, 1
1503604448079,7, 7, 5, 8, -23, -3, 2, -6, 1
1503604448097,-10, 1, 5, -2, -17, -5, 1, 4, 1
1503604448116,13, -6, -3, -1, -2, 3, 0, -15, 1
1503604448138,-3, 1, 1, -1, 0, -8, -3, 7, 1
1503604448154,-26, 4, 0, -6, 19, 5, 2, -1, 1
1503604448176,-12, 8, 12, 2, -16, -3, 2, -2, 1
1503604448199,0, -8, -4, 4, -4, -9, -2, 2, 1
1503604448214,-1, 0, -2, -1, 4, -2, -1, 5, 1
1503604448236,-18, 7, 4, 7, 43, 13, 1, 2, 1
1503604448258,-32, -10, -5, -2, 11, 14, -2, 21, 1
1503604448274,8, -9, -3, 1, -8, -17, -5, -26, 1
1503604448299,22, 4, 4, 0, 25, -4, -1, -8, 1
1503604448318,-6, -14, -18, -16, 15, 19, -6, 0, 1
1503604448334,18, -8, -7, -6, -39, -19, 0, 4, 1
1503604448356,57, 11, 2, -4, -25, 0, 5, 22, 1
1503604448378,-7, -3, -3, -1, -15, -8, 0, 0, 1
1503604448387,-6, -1, -1, 2, 32, 32, -1, -12, 1
1503604448409,-13, -8, -6, -4, -8, -15, -6, 4, 1
1503604448424,-16, -5, -1, 2, -9, -11, -3, -19, 1
1503604448446,30, 10, 3, 1, -13, -13, 1, 22, 1
1503604448469,41, 2, 0, 1, -5, -11, -7, 22, 1
1503604448484,-14, 0, 0, -4, -48, -6, 0, -11, 0
1503604448507,-25, -10, -8, -3, -24, -6, 2, -4, 0
1503604448536,-37, 4, -1, 7, 27, 5, -1, -23, 0
1503604448552,28, -6, -4, -4, 23, 12, 1, 7, 0
1503604448567,-4, 15, 17, 4, 6, -6, -6, 0, 0
1503604448589,16, 1, -8, -6, 1, -1, 4, -15, 0
1503604448605,-10, 9, 0, 3, 4, -1, 0, -20, 0
1503604448627,-15, 2, 10, -1, 1, -4, -3, -5, 0
1503604448649,-13, -3, 1, -3, 3, 3, 0, 8, 0
1503604448672,-12, -11, -4, -2, -40, -19, -2, -5, 0
1503604448686,-11, -17, -10, -4, -8, -4, -1, 12, 0
1503604448703,13, -1, 1, 1, -20, 2, -2, 7, 0
1503604448716,-25, -7, -10, -9, -12, -7, 0, -4, 0
1503604448739,7, 0, -2, 2, 1, -8, -4, 1, 0
1503604448761,-9, -10, -7, -5, 55, 7, -5, -2, 0
1503604448777,14, -2, -3, -7, -33, -4, -1, -16, 0
1503604448799,32, 1, -4, -5, -14, -18, 0, 5, 0
1503604448821,-1, -1, -5, 1, -2, -2, -1, 0, 0
1503604448845,1, 2, 3, -1, 8, 4, -2, 4, 0
1503604448852,2, -4, -1, -5, -29, -13, -2, -9, 0
1503604448882,-8, -5, -9, -5, 27, 5, -2, -3, 0
1503604448897,-13, 4, 2, -4, -28, -5, 2, 4, 0
1503604448920,-34, -11, -6, 3, -14, -9, 0, 22, 0
1503604448942,21, -6, -11, -5, -12, 7, 2, -9, 0
1503604448957,-13, 2, -1, 1, 1, 1, 3, -18, 0
1503604448980,-3, -2, -3, 7, 0, -9, -4, -4, 0
1503604449003,20, -5, -1, -6, -4, 0, -1, 10, 0
1503604449024,-1, -1, 4, 3, 10, 6, -3, -3, 0
1503604449040,4, -9, -15, -8, -4, -7, 0, -11, 0
1503604449062,-8, -3, 1, -1, 31, 19, 0, -3, 0
1503604449084,14, 4, 7, 9, -6, -6, -2, 4, 0
1503604449100,-16, 5, 2, -8, -27, -10, 2, -4, 0
1503604449122,13, 5, 6, 5, 13, 9, 0, 8, 0
1503604449144,-8, 3, 4, 0, 10, 8, 8, 0, 0
1503604449152,-17, -1, 4, 4, 4, 22, -1, -27, 0
1503604449174,-17, -5, -5, 1, -1, -8, 1, 1, 0
1503604449189,15, 6, 2, 3, -20, 3, -4, 23, 0
1503604449205,-8, 4, -1, 7, 6, 2, -2, -9, 0
1503604449219,-4, -4, -3, -2, -2, 4, 3, 11, 0
1503604449242,-40, -10, -6, 2, -1, 1, -4, -30, 0
1503604449265,9, -6, 0, -8, -49, -8, 9, 8, 0
1503604449281,12, 16, 9, 1, 2, -13, -4, -1, 0
1503604449305,6, 5, -1, -5, 24, 5, -6, 2, 0
1503604449324,8, 16, 24, 10, -21, -5, 9, 1, 0
1503604449331,33, 8, -2, 2, 9, 4, -8, -13, 0
1503604449341,36, -1, -7, -1, -88, -24, 7, 44, 0
1503604449362,-32, -14, -9, 1, -3, -7, -7, -7, 0
1503604449384,8, -6, 0, 2, 59, 20, -4, -4, 0
1503604449400,-28, -11, -4, 7, 7, 6, 3, 10, 0
1503604449422,21, -4, 8, 4, -13, -9, -2, -7, 0
1503604449444,-46, -7, -9, -7, 0, -3, -5, 2, 0
1503604449459,3, 11, 10, 15, 2, 1, 1, -17, 0
1503604449482,9, -19, -3, -5, 0, -1, -3, -8, 0
1503604449508,-2, 4, -4, -4, 0, 1, 1, -8, 0
1503604449519,2, 1, 0, 9, 58, 33, 2, -1, 0
1503604449543,10, 11, 5, -5, -25, -16, 0, 5, 0
1503604449564,13, 3, 0, -2, -13, -11, -1, 4, 0
1503604449579,6, 1, -1, -4, -1, 2, 4, -5, 0
1503604449602,5, 3, 8, 2, -30, 0, -1, -3, 0
1503604449624,-13, -1, -7, -9, -12, -8, -2, -1, 0
1503604449642,24, 6, 2, 1, -9, 5, -2, 2, 0
1503604449662,0, 4, 1, 4, -12, -5, 1, 1, 0
1503604449685,-6, -4, -8, -6, 5, -5, -4, 3, 0
1503604449699,4, -3, -2, -2, -19, -3, -2, -1, 0
1503604449722,-12, -5, -10, -1, 42, 2, -4, -10, 0
1503604449745,11, -2, 4, 1, -7, -1, 0, 3, 0
1503604449759,-4, -3, 0, -9, -1, -2, -1, -5, 0
1503604449782,-4, -1, -1, -1, 8, 2, 0, 9, 0
1503604449804,-2, 0, 2, 12, 32, 3, 2, 1, 0
1503604449827,0, -1, 1, -1, -9, -3, 1, 9, 0
1503604449849,-9, -3, -2, -1, -7, -4, -1, -17, 0
1503604449865,5, 3, -2, -2, -5, -5, -1, -9, 0
1503604449880,14, 1, -2, -8, -4, -2, 0, 5, 0
1503604449902,-2, -1, 1, -1, -6, 2, 4, 8, 0
1503604449924,7, 3, -3, -4, -4, -2, -1, 9, 0
1503604449939,5, -4, 0, 2, -3, -5, -1, 1, 0
1503604449962,-19, -2, -3, -1, -2, 3, -3, -40, 0
1503604449985,-7, 0, 6, 3, 0, -1, -2, -16, 0
1503604449999,28, 9, 9, -2, -1, 1, -1, 36, 0
1503604450022,11, -4, -5, -2, -3, -7, -7, 3, 0
1503604450047,-19, -3, -5, -3, -1, 1, -3, -24, 0
1503604450059,-30, -6, -7, -5, -3, -3, -8, -28, 0
1503604450082,-10, 0, 1, 0, 1, 2, 1, 11, 0
1503604450104,-5, 2, 3, -2, 0, 0, 3, 0, 0
1503604450119,-4, -5, -11, -1, 0, -1, 0, 11, 0
1503604450145,6, -9, -2, -2, -2, -2, -2, -8, 0
1503604450164,21, 3, 2, 2, -1, 0, 1, 16, 0
1503604450181,7, 4, 0, -1, -3, 1, 0, -7, 0
1503604450202,-16, -1, 2, -1, 1, -1, -1, 0, 0
1503604450224,-29, -2, -1, -2, -1, -1, 0, 12, 0
1503604450231,16, -2, -5, 0, 0, -3, -2, -3, 0
1503604450254,6, 0, 3, 4, 2, 7, 6, 14, 0
1503604450269,-6, -4, -3, -2, 0, 1, -1, 1, 0
1503604450291,8, -4, -2, -1, -1, -2, 0, 0, 0
1503604450315,-38, -4, -2, 2, -1, -4, -2, -17, 0
1503604450330,10, -5, -6, -5, -2, -1, 1, 12, 0
1503604450355,2, 3, 3, 2, 1, 2, -1, -5, 0
1503604450374,12, -2, -2, -2, 1, -7, -3, -7, 0
1503604450389,-11, 3, 2, 0, -2, 0, -3, -9, 0
1503604450413,-7, -4, -7, -8, -7, -1, -2, 4, 0
1503604450434,9, 1, 1, 1, 0, 2, 2, 8, 0
1503604450449,1, 2, 1, 4, 1, 10, 1, 3, 0
1503604450471,4, 8, 6, 2, 3, 1, -1, -6, 0
1503604450494,-17, -5, -6, -3, -2, 0, 0, 2, 0
1503604450517,-27, -6, 2, 1, -4, -7, -4, 22, 0
1503604450531,22, 1, 2, -4, 1, 5, -2, 4, 0
1503604450555,6, 21, 25, 4, 0, -3, 1, -2, 0
1503604450576,18, -7, -7, 0, -1, 2, 0, 5, 0
1503604450591,-34, -8, -7, 1, 0, -3, -6, -75, 0
1503604450616,13, -4, 6, 16, 3, 0, 1, 20, 0
1503604450637,4, 2, -5, -5, -1, -2, 3, 19, 0
1503604450652,-2, -5, -7, -6, -3, -5, -3, -8, 0
1503604450674,-13, -6, -5, -2, -1, -1, 0, 8, 0
1503604450696,-11, 0, -2, -1, -1, -1, -3, 7, 0
1503604450704,5, -4, 0, 3, -2, -2, 2, 7, 0
1503604450727,11, -9, -4, 2, 2, 2, 1, 26, 0
1503604450742,-11, -9, -1, 3, 2, 1, 1, -2, 0
1503604450764,-9, -8, -5, 2, 0, 2, -1, -24, 0
1503604450772,8, 0, -2, -5, 0, 1, 3, -11, 0
1503604450794,57, -2, -4, -1, 0, 1, -2, 6, 0
1503604450817,8, -1, 1, 3, -1, 1, 4, -7, 0
1503604450831,9, -7, -8, -2, -3, 2, 0, 29, 0
1503604450854,-7, 0, -5, -1, 0, -3, 1, 13, 0
1503604450876,-7, 1, 3, -1, 0, 0, 3, -9, 0
1503604450893,-2, -3, 1, -2, -1, 5, 0, 9, 0
1503604450917,11, -7, -6, -3, -6, -8, -12, 5, 0
1503604450937,-9, -4, 0, -1, -2, 0, 2, 26, 0
1503604450958,-5, 4, 2, 2, 1, -1, 2, 1, 0
1503604450974,-16, -2, -5, 2, 0, -4, 1, -40, 0
1503604450996,-14, 9, -1, -1, 0, 1, 2, 8, 0
1503604451012,2, -3, -4, -3, -1, -2, -5, -15, 0
1503604451034,3, -2, 2, 0, 1, -2, 3, 23, 0
1503604451056,14, -5, -8, -3, -2, 1, -2, 6, 0
1503604451072,-2, -1, -1, -2, 1, 1, 1, 13, 0
1503604451102,0, -6, -3, 0, -3, -2, -5, -26, 0
1503604451124,5, 2, 6, -1, 0, 1, 3, 21, 0
1503604451147,0, -8, -5, -4, -4, -2, -1, 17, 0
1503604451162,4, 0, 2, -2, 0, -2, -3, -28, 0
1503604451186,0, 11, 13, 6, 2, 2, 4, 23, 0
1503604451207,3, 5, -5, -4, -5, -1, -2, 10, 0
1503604451222,16, -4, -3, -1, -2, -2, -1, 19, 0
1503604451244,-6, -9, -7, -2, 1, 2, 0, -17, 0
1503604451267,4, -15, -1, -1, 1, 1, -1, 8, 0
1503604451282,-3, 0, 0, -1, 1, -1, 1, 2, 0
1503604451297,9, -7, -12, -7, -4, -1, 0, 16, 0
1503604451311,-10, -6, -4, -2, -1, -2, 0, 0, 0
1503604451334,1, 1, -7, -3, -3, 0, 1, 3, 0
1503604451357,-2, -13, -11, -2, -1, -2, -1, 5, 0
1503604451371,0, -2, -2, 0, 2, -4, 1, 8, 0
1503604451395,-8, -1, 2, -1, -1, 1, -2, -2, 0
1503604451416,3, 3, 1, 2, 0, -1, 0, -2, 0
1503604451438,-1, -5, -9, -1, -2, 1, -1, -3, 0
1503604451455,-2, -3, -9, -6, -2, -1, 0, 2, 0
1503604451477,11, 1, 17, 5, 0, 1, 2, 0, 0
1503604451498,2, -12, -11, 2, -1, -1, -1, -1, 0
1503604451514,10, 31, 31, 21, 3, 3, 0, -1, 0
1503604451544,-26, -27, -17, -11, -3, -3, -3, -5, 0
1503604451558,7, 5, 2, 1, -2, -2, -2, 0, 0
1503604451574,-5, -5, -3, -4, -3, -4, -1, -3, 0
1503604451597,-3, -4, -6, -8, -2, -2, -1, -2, 0
1503604451618,-7, -6, -12, -10, -2, 0, 0, -3, 0
1503604451634,9, 28, 8, 0, -1, 1, -2, 2, 0
1503604451657,8, -4, 1, 11, 3, 1, 0, -1, 0
1503604451665,-5, -6, -6, -5, -1, 0, -1, -1, 0
1503604451690,-8, -3, 1, -1, -1, 0, -1, -3, 0
1503604451709,7, -8, -10, -8, -3, -1, 2, 2, 0
1503604451725,-7, 5, 1, 7, 2, -1, -1, 0, 0
1503604451747,-19, -34, -13, -6, 0, -2, 0, -3, 0
1503604451769,7, 8, 2, 4, -1, -1, -1, -3, 0
1503604451784,0, 4, 7, -1, -1, 0, 0, 3, 0
1503604451807,0, 8, 3, -4, -2, -2, -2, 0, 0
1503604451830,5, -1, 2, -2, -1, 0, -2, -4, 0
1503604451837,-2, -1, -10, -5, -2, 0, 1, 3, 1
1503604451859,5, -3, -2, -2, 0, 0, -1, 2, 1
1503604451874,6, 5, -3, -8, 0, -2, 0, -1, 1
1503604451897,-4, -10, -5, -2, -3, -2, -1, -2, 1
1503604451918,-1, -4, 2, -4, -1, -2, 0, -1, 1
1503604451934,-6, -15, -16, -6, -2, -1, -1, -3, 1
1503604451961,1, -9, -5, -3, -4, 0, -2, -3, 1
1503604451978,3, 24, 45, 7, 3, -2, 0, 4, 1
1503604451994,0, 12, -3, 4, 2, 2, 0, -4, 1
1503604452016,5, -14, -15, -1, -1, -1, -1, -1, 1
1503604452038,-17, -15, -6, 0, -2, -1, 0, -3, 1
1503604452054,-9, -27, 4, 2, 4, 5, -1, -1, 1
1503604452076,-23, 21, 0, 3, -18, -8, -2, -3, 1
1503604452101,6, 6, 0, 0, 8, 0, 0, 1, 1
1503604452114,11, 12, -4, 3, 1, -2, -3, 2, 1
1503604452136,5, -6, -6, -8, -3, 0, -2, 0, 1
1503604452159,3, 8, 12, 3, 2, 2, 2, 2, 1
1503604452174,14, 13, 0, -5, 0, 1, -1, 0, 1
1503604452197,-10, -3, -6, -14, -11, -6, -2, -9, 1
1503604452219,1, 0, 3, 3, 3, 0, 0, 2, 1
1503604452235,1, -18, -9, -1, 2, 0, -1, 0, 1
1503604452263,-29, -10, -5, -5, 0, 1, -1, -3, 1
1503604452279,12, -4, -10, 0, 0, 3, 1, -1, 1
1503604452294,-15, -9, 5, -3, -1, -2, -2, -2, 1
1503604452316,-10, -9, 2, 6, 1, -1, -1, 1, 1
1503604452339,1, 8, 3, 5, 1, 2, 0, -2, 1
1503604452362,7, 7, -4, -1, -2, -2, 0, 1, 1
1503604452383,-5, -2, 2, 3, -1, -1, 1, 2, 1
1503604452407,3, -2, -1, 7, -5, -4, -2, -3, 1
1503604452429,-2, -1, -6, -8, -30, -7, 1, -5, 1
1503604452451,-11, -19, -9, -2, -4, -3, -2, -2, 1
1503604452467,5, -9, 4, 0, 6, 3, 1, 2, 1
1503604452489,-16, -24, -11, -2, 4, 1, -2, -4, 1
1503604452497,3, 6, -7, -3, -4, -3, -3, -1, 1
1503604452519,8, 13, 7, 3, 2, -1, 0, 3, 1
1503604452529,4, -9, -20, -8, 2, -3, -3, 0, 1
1503604452549,-1, 15, -4, -4, -2, -1, -2, -3, 1
1503604452571,-3, -5, 0, -2, -3, -3, -2, -1, 1
1503604452579,2, 9, 5, -2, 1, 2, -1, -2, 1
1503604452601,0, -17, -6, 5, 25, 21, 1, -3, 1
1503604452616,-2, -29, -15, -8, -6, -9, -3, -10, 1
1503604452639,8, 19, 3, -3, -2, -4, -4, -4, 1
1503604452662,0, -32, -5, -8, -6, -5, -2, 3, 1
1503604452676,3, 16, -3, 1, -8, -5, 1, -4, 1
1503604452698,4, 7, -3, -10, -8, -7, -1, 0, 1
1503604452707,8, 4, -6, 4, 3, -1, -3, -3, 1
1503604452730,11, 15, 0, -2, 0, -2, 0, 0, 1
1503604452751,-26, -26, -10, -8, -3, -3, -4, -10, 1
1503604452767,-3, -12, -8, 2, -9, -8, 1, 4, 1
1503604452789,24, 7, 1, -2, 4, -1, -1, 2, 1
1503604452811,0, 12, 15, 9, 5, 2, 3, 5, 1
1503604452830,-1, -15, -7, -10, -19, -4, -2, -6, 1
1503604452849,-17, 17, 12, 16, -35, -11, 2, 2, 1
1503604452872,-8, 1, -2, 1, 10, 1, -1, 1, 1
1503604452887,-6, 6, 3, 1, 16, 8, 0, -7, 1
1503604452909,-4, -8, -3, 6, -15, -10, 0, -2, 1
1503604452933,10, 7, 11, 1, 9, -1, -4, 3, 1
1503604452947,-1, -8, -13, -13, 11, 3, -1, -2, 1
1503604452969,5, 3, 0, -2, -2, 1, 1, 8, 1
1503604452991,-7, -11, -7, -2, 9, 4, -3, -1, 1
1503604453007,3, 2, 1, 1, 12, 2, 0, -1, 1
1503604453031,14, 6, 2, 4, -2, -2, -2, -3, 1
1503604453051,0, 0, -8, -5, 15, 3, -4, -10, 1
1503604453067,1, -2, 6, -2, -9, 3, -1, -2, 1
1503604453089,-10, -3, -7, -6, 4, 4, 2, 5, 1
1503604453112,19, 7, 4, 4, -13, -1, 1, 11, 1
1503604453127,-1, 0, -3, -1, 5, 0, -2, -11, 1
1503604453149,-9, -8, -2, -5, -11, 0, -2, -1, 1
1503604453172,-3, -5, -2, -2, -1, -2, 1, 3, 1
1503604453187,-12, 2, -3, -2, -6, -16, -4, -5, 1
1503604453209,-3, -5, -1, -1, -30, -11, 1, 2, 1
1503604453233,2, 0, 0, 7, -1, 1, -1, -2, 1
1503604453254,-3, -1, -8, -10, 14, 5, -2, -9, 1
1503604453269,-1, 4, 7, -3, 9, 8, -3, -5, 1
1503604453291,4, -5, -2, -7, -5, -16, 0, 8, 1
1503604453300,-2, -5, -2, -7, -1, -5, -6, -14, 1
1503604453321,-7, 1, -5, -3, 4, 5, 2, 0, 1
1503604453344,-4, 6, 5, 4, -19, -12, -2, -1, 1
1503604453359,16, 1, -6, 1, 30, 4, 4, 20, 1
1503604453381,-3, 7, 10, 6, 11, 3, -5, -8, 1
1503604453404,-14, -5, -6, -3, -1, -4, -2, 2, 1
1503604453411,-1, -24, -2, -1, -12, -9, 1, -2, 1
1503604453434,-2, 9, 2, 0, -51, 1, 4, -1, 1
1503604453442,12, -24, -9, -2, 13, 6, 0, 1, 1
1503604453463,-5, 1, -3, -4, -12, -1, -2, -9, 1
1503604453479,-12, -2, 0, -1, 10, 2, 3, 5, 1
1503604453501,-7, -13, -11, -4, -8, -1, 1, 0, 1
1503604453523,-16, -3, -5, 12, 7, 7, 1, -2, 1
1503604453539,-29, -3, -5, -6, 13, 3, -5, -14, 1
1503604453569,6, 5, 2, -2, -9, -10, -2, 1, 1
1503604453591,10, 2, 4, -3, 4, -1, 1, 2, 1
1503604453614,-8, 9, 7, 14, 11, 6, 0, -7, 1
1503604453629,6, -13, -12, -8, -11, -5, -3, -4, 1
1503604453651,-1, 14, 9, 3, 8, -2, -1, -1, 0
1503604453674,0, 0, 2, -3, 1, -4, -3, 2, 0
1503604453690,7, -12, -4, -3, 0, 0, -1, 2, 0
1503604453712,-3, -1, 4, 5, 1, 1, 1, 2, 0
1503604453736,-9, 6, -4, -1, 31, 6, -1, -4, 0
1503604453749,7, -2, -3, -4, -17, -17, -1, 4, 0
1503604453771,-11, -1, 3, 3, -3, 4, 1, -13, 0
1503604453794,3, 5, -3, -5, -9, -6, -1, -3, 0
1503604453809,1, 7, -5, -1, -2, 1, -5, -6, 0
1503604453831,-2, -5, -4, -8, -32, -4, 0, 4, 0
1503604453854,1, 2, 1, 3, 1, 0, -3, -2, 0
1503604453871,2, 4, 3, -1, 5, 3, 1, 2, 0
1503604453891,6, 1, 0, -3, 3, -4, 1, 5, 0
1503604453914,-5, -4, 0, 1, 3, 4, 1, 1, 0
1503604453929,1, 6, -1, -4, 5, -2, -1, 2, 0
1503604453951,6, 3, 3, 0, 0, 3, 0, 1, 0
1503604453974,-5, -3, -1, 6, 0, -5, -6, -22, 0
1503604453989,-16, -3, 9, 7, 3, 2, 0, 3, 0
1503604454011,-25, -18, -5, -7, 0, -1, -1, -12, 0
1503604454034,7, 1, -3, -2, 0, 1, -2, -3, 0
1503604454049,5, -4, -9, -1, -2, -4, -4, -15, 0
1503604454073,-3, -2, -3, -8, -1, 4, 2, 9, 0
1503604454094,-25, -6, -9, -7, -5, -3, 2, 4, 0
1503604454109,18, 8, 2, 5, -4, 2, -2, 12, 0
1503604454131,-8, -1, -1, 2, 0, 2, 1, 3, 0
1503604454154,0, -4, -5, -8, -4, -1, -3, -6, 0
1503604454169,33, 4, 12, 4, -2, 3, 0, 10, 0
1503604454191,5, 3, 0, 1, -1, -5, 6, 13, 0
1503604454214,5, 5, 11, 4, 10, -1, -3, -18, 0
1503604454236,5, -11, -11, -5, -5, -4, 2, 22, 0
1503604454251,8, -4, -4, 2, 57, 19, 0, -10, 0
1503604454276,-7, 16, 42, 14, -10, -3, 1, -3, 0
1503604454296,-3, 6, 10, -3, -9, -5, -2, 3, 0
1503604454311,9, -6, -21, -7, -7, -1, 2, 3, 0
1503604454334,-4, -7, -8, -5, -11, -4, -1, -3, 0
1503604454356,-2, -5, -5, -1, -14, -4, 0, 1, 0
1503604454376,-5, -3, -9, -3, -6, 1, -1, -3, 0
1503604454394,-1, -2, -7, 0, -5, -5, -1, -1, 0
1503604454416,-11, -4, -3, -2, 5, 0, -3, -3, 0
1503604454431,13, 17, 6, -4, -6, -2, 2, -16, 0
1503604454454,2, 3, -8, 1, -2, 1, -3, -9, 0
1503604454477,-9, -13, -7, -7, -2, -2, -4, 7, 0
1503604454491,-4, -2, -4, 3, 3, 1, 2, -4, 0
1503604454515,-1, -2, -5, 0, 1, 0, 2, 7, 0
1503604454536,-15, -5, -3, 0, -2, -1, -4, -7, 0
1503604454551,-7, -4, 2, -1, -1, -2, 0, -4, 0
1503604454575,18, -6, -1, -2, -15, -9, -4, 32, 0
1503604454596,-1, 0, -2, -4, -6, -1, 0, -19, 0
1503604454612,-12, -2, 3, 2, 7, 1, 0, 1, 0
1503604454634,-7, 0, -1, 2, 3, -1, -4, 2, 0
1503604454656,-10, -1, 2, 0, 2, -2, -2, -22, 0
1503604454671,10, -2, -5, -2, 0, 3, -2, 13, 0
1503604454694,-6, -1, -3, -1, -3, -4, -5, 6, 0
1503604454718,7, 22, 36, 13, 4, 0, 2, 6, 0
1503604454732,5, -1, -1, -8, -2, -3, -2, -3, 0
1503604454754,3, -3, -11, -8, -1, -3, -2, 3, 0
1503604454778,-8, -3, -1, 4, 1, 0, 2, 8, 0
1503604454791,-13, -9, -13, -8, -2, -1, -3, -12, 0
1503604454814,6, -1, 0, 3, 2, -4, 0, -9, 0
1503604454836,-4, -1, -6, -5, -3, 0, 0, -2, 0
1503604454852,13, 4, 0, 0, -1, 5, 1, -15, 0
1503604454874,-9, -4, -2, -3, -7, -3, -2, -8, 0
1503604454896,-15, -3, -2, -2, -3, 1, -2, -15, 0
1503604454919,12, -3, -2, 2, 5, 10, 3, 13, 0
1503604454935,-9, -1, -1, 2, -18, -1, -2, -11, 0
1503604454956,36, 1, -3, -1, 0, -3, -2, 30, 0
1503604454971,8, -1, -1, -3, 5, -4, -1, 2, 0
1503604454994,-13, -2, 1, 4, -17, -9, -1, 10, 0
1503604455016,-19, -4, 2, -2, 6, -10, -1, -7, 0
1503604455031,-2, 2, 6, 2, -3, 4, -2, -2, 0
1503604455055,-6, -25, -7, -1, 7, 2, 0, -2, 0
1503604455081,-23, 10, 7, 2, 4, 1, -2, -10, 0
1503604455091,5, 0, -8, -2, 5, 1, -2, 0, 0
1503604455114,-3, 2, -4, -5, -8, -6, 0, -10, 0
1503604455136,1, 0, 1, -3, 1, 3, 0, 1, 0
1503604455159,-5, 6, 1, 1, 4, -1, 0, -9, 0
1503604455174,-10, -3, -1, 0, 6, 2, -1, 5, 0
1503604455196,24, -1, -2, 1, -4, 1, 1, 1, 0
1503604455219,-7, 2, 0, 1, 1, 0, -1, -2, 0
1503604455236,-10, 6, -2, -4, 0, 2, -2, -17, 0
1503604455256,12, -1, -6, -7, -4, -2, 4, 21, 0
1503604455281,-3, -3, -5, 0, -11, -5, -4, -15, 0
1503604455294,6, 1, -5, 0, -1, 2, 0, 7, 0
1503604455316,2, 1, 2, -7, -1, -2, 3, -3, 0
1503604455339,3, -5, -4, -3, 3, 0, -1, 15, 0
1503604455354,-9, 0, 3, 3, -2, -2, -3, -2, 0
1503604455377,3, 0, 5, 3, 5, -1, -1, 1, 0
1503604455399,3, -5, -1, -1, 2, -2, 0, -2, 0
1503604455414,-4, -1, -2, 0, 4, -1, 1, 26, 0
1503604455436,-5, 1, 0, 1, 5, 14, -1, -22, 0
1503604455459,-12, -4, -4, -4, -23, -19, -5, -8, 0
1503604455474,14, 0, -3, 0, 8, 0, 0, 6, 0
1503604455490,-16, -6, 1, 0, -11, -7, -2, -11, 0
1503604455504,-6, -6, -6, -6, 10, 2, -2, -3, 0
1503604455527,3, -5, -4, -4, 7, 2, 1, 1, 0
1503604455550,-3, 0, -4, -5, 3, 0, -2, -4, 0
1503604455564,0, -10, -3, 2, 3, -7, -3, 4, 0
1503604455587,-6, -3, -4, 9, -5, -2, 1, 6, 0
1503604455609,-11, -9, -1, -7, 1, 2, 0, 1, 0
1503604455624,13, 6, 0, -1, 7, 2, 4, 14, 0
1503604455652,-2, 2, 3, 2, -7, -2, -4, -18, 0
1503604455669,2, 5, 2, 1, 2, 0, 0, 13, 0
1503604455685,6, 2, 0, -2, 42, 7, -5, -18, 0
1503604455707,-4, 1, 1, -2, -16, -12, 0, 2, 0
1503604455730,14, 6, 0, 3, 8, 8, 3, 18, 0
1503604455744,-6, -2, 1, 5, -3, 0, -3, -6, 0
1503604455767,-15, -8, -3, -7, 0, -3, 1, -1, 0
1503604455789,16, 1, -4, -6, -27, -4, -3, -8, 0
1503604455805,2, 1, -3, 0, -7, 1, 0, 8, 0
1503604455827,-10, -1, 3, -2, -8, -4, -1, 7, 0
1503604455850,5, 3, 2, 5, 5, 3, -2, -1, 0
1503604455864,2, 3, 4, -3, 0, -1, 1, 7, 0
1503604455890,-9, 1, -3, 1, -3, -2, -1, -4, 0
1503604455909,-16, -7, -1, -2, -12, -5, -3, -24, 0
1503604455927,-5, 6, 4, 5, -1, -3, -1, 2, 0
1503604455947,7, 3, 1, 1, 3, 1, 0, -6, 0
1503604455969,7, 0, -7, -4, 7, 5, -4, -2, 0
1503604455987,-2, -7, -5, 2, 0, -1, 0, 3, 1
1503604456007,-10, -2, 0, 1, 1, -2, 0, -6, 1
1503604456030,-4, 0, 3, -2, 0, 2, -1, -7, 1
1503604456044,12, 1, -1, -4, -13, -8, 3, 21, 1
1503604456068,13, -1, -3, -2, -4, 1, 2, 6, 1
1503604456090,-10, -7, -7, 5, 6, 2, -3, -6, 1
1503604456112,16, 0, 2, -4, 2, -1, -3, -10, 1
1503604456129,-4, -9, -8, -5, 1, -5, -5, -3, 1
1503604456149,6, 2, 1, -1, -9, -2, 3, 35, 1
1503604456172,-8, 3, -3, -4, 1, -8, -2, -8, 1
1503604456189,-2, 2, 5, 2, 0, 2, -2, -9, 1
1503604456216,8, -5, -7, -5, 0, -2, 0, -7, 1
1503604456232,-10, 3, 8, 4, 0, 0, -3, -3, 1
1503604456239,4, -5, -1, -4, -1, 0, 2, 5, 1
1503604456248,-4, 1, 2, 2, 3, 2, 2, 2, 1
1503604456263,-14, -5, -2, -4, -1, -6, -3, -17, 1
1503604456276,36, -2, -6, -1, 0, 1, 2, -8, 1
1503604456299,0, -1, 9, -2, -1, -3, -4, 7, 1
1503604456321,-12, -5, -5, -1, 1, 1, -1, 9, 1
1503604456336,-4, -6, -7, -5, -6, 0, 2, -2, 1
1503604456359,6, -2, -4, -3, 5, 0, 0, 0, 1
1503604456381,3, -2, -3, -2, -3, -5, -4, -13, 1
1503604456396,11, -2, 2, -2, -1, 2, -2, -4, 1
1503604456421,6, 9, 8, 3, 2, 0, 4, 27, 1
1503604456441,2, 3, 4, 7, 1, 2, 2, 26, 1
1503604456460,8, -2, -1, -2, -1, 2, -1, 6, 1
1503604456479,-9, -1, -4, -2, -3, -2, -2, -11, 1
1503604456501,-21, 5, 9, 3, 3, -3, -1, -21, 1
1503604456516,-3, -5, -6, -6, -6, 0, 0, -9, 1
1503604456539,-4, -4, -9, -4, -6, -3, -1, -3, 1
1503604456561,4, -8, -4, -1, -5, 0, 0, -6, 1
1503604456569,-9, -2, 5, 0, -5, -2, -1, -15, 1
1503604456591,3, 0, -3, -1, -11, -4, -3, -13, 1
1503604456607,-20, -5, -3, -1, -18, -2, 0, -12, 1
1503604456630,10, 3, -5, -3, 6, 2, 1, 1, 1
1503604456651,-4, -3, 0, 0, -5, -14, -5, 0, 1
1503604456661,7, 1, 1, 1, 7, 3, -5, -16, 1
1503604456681,4, -1, 5, 2, -13, -6, -1, -1, 1
1503604456696,-27, -5, -2, -1, -2, 2, 0, -4, 1
1503604456719,5, -2, -12, -3, -15, 0, 1, -4, 1
1503604456741,2, -4, 2, 0, 4, 3, -1, -3, 1
1503604456758,-4, 3, 2, -1, 7, 1, -1, -6, 1
1503604456779,-4, -9, -8, -3, 7, 1, 0, 18, 1
1503604456801,8, 1, -2, 1, 0, 2, -1, -2, 1
1503604456816,-1, 2, -1, -1, 4, 0, 0, 0, 1
1503604456838,-15, -9, 2, 2, 3, 0, -2, 5, 1
1503604456864,-1, -4, -5, -5, 0, 0, -1, -4, 1
1503604456876,5, 12, 5, 0, 1, 0, -2, -3, 1
1503604456899,-8, -1, -4, 0, 0, -1, -2, -4, 1
1503604456921,-11, -12, -3, -1, -1, -1, 0, 1, 1
1503604456936,3, 4, -6, -1, 2, -1, -1, -1, 1
1503604456959,4, -1, -8, -3, 27, 1, 1, 2, 1
1503604456981,-7, -7, -2, -3, -10, -2, 0, -1, 1
1503604456998,11, 8, 12, 3, -3, -1, 1, 3, 1
1503604457019,-5, 20, 10, -3, -4, 0, 1, -6, 1
1503604457041,-6, -17, -7, -10, -4, 0, -1, -2, 1
1503604457065,9, 5, 0, -1, -8, -2, -1, 2, 1
1503604457079,5, 10, 10, 4, -2, -2, 1, 0, 1
1503604457102,3, -3, -9, -3, -3, -3, -1, -1, 1
1503604457123,-9, -4, -8, -1, 3, 1, -2, -1, 1
1503604457139,19, 3, -3, -3, -3, -1, -3, 0, 1
1503604457162,-3, -15, -4, 4, -6, -4, 0, 0, 1
1503604457183,0, 5, 6, 6, 0, -2, -1, -4, 1
1503604457199,-20, -11, 1, 3, -16, 0, -1, -2, 1
1503604457221,24, -34, -14, -4, -3, -4, -1, 3, 1
1503604457243,-37, 4, 0, -1, -1, 0, 1, -3, 1
1503604457262,-27, -29, -7, -4, 6, -1, -1, -4, 1
1503604457281,0, 8, -3, -2, 2, 1, 0, 2, 1
1503604457303,19, -3, -4, -2, 5, 1, -2, 0, 1
1503604457319,3, 4, -3, -1, 3, -3, -1, -1, 1
1503604457341,19, 29, 6, 1, -7, 1, 0, 2, 1
1503604457364,-1, 12, 6, 2, -1, -1, 1, 0, 1
1503604457378,-4, -15, 1, 0, 4, 0, -2, -4, 1
1503604457401,-1, 16, 8, 2, -2, 1, 1, -2, 1
1503604457432,0, -15, -9, -4, 0, -2, -1, 1, 1
1503604457434,-9, 4, 1, 2, -1, -1, -2, -3, 1
1503604457454,-2, 30, 21, 2, -1, -1, 0, 1, 1
1503604457469,-10, -21, -9, -3, 3, 1, -1, -1, 1
1503604457491,-3, 28, 19, 3, -1, -1, -1, 1, 1
1503604457506,-3, -6, 2, -2, 1, -2, 0, -2, 1
1503604457535,-5, -20, -5, -2, 1, -1, 2, -2, 1
1503604457543,8, 11, -4, 1, -1, -1, -2, 3, 1
1503604457558,-3, 26, 9, 4, 0, -2, -2, -3, 1
1503604457581,-1, -3, 3, 2, 0, 0, -1, -1, 1
1503604457603,-16, -44, -15, -4, 1, 1, -1, 4, 1
1503604457619,-8, -28, -12, -4, -1, -2, -2, -5, 1
1503604457641,-2, -6, 4, 2, -1, -2, 0, -3, 1
1503604457663,-8, -27, -14, -8, 0, -4, -1, -4, 1
1503604457679,8, 5, -1, -8, -5, -3, 0, 3, 1
1503604457702,-1, 54, 16, 3, -3, -1, 1, -2, 1
1503604457723,15, 32, 0, -4, -3, -3, -7, -6, 1
1503604457740,-13, -1, -2, 5, 4, 3, -1, -1, 1
1503604457763,11, -21, -3, 6, 2, 2, 2, 4, 1
1503604457783,-6, -3, 8, 4, 0, 1, 0, 3, 1
1503604457799,4, -24, -18, -4, -1, -1, -3, -4, 1
1503604457821,-4, 13, 8, 0, -3, 0, 3, 1, 1
1503604457843,-1, 6, -6, -6, -4, -1, -3, 1, 1
1503604457858,2, 3, 3, 0, -15, -3, 0, 0, 1
1503604457881,-9, -21, 6, -1, -26, -3, 2, -6, 1
1503604457903,8, -7, -14, -2, 2, 0, -3, 4, 1
1503604457918,30, 24, -10, -6, 6, -3, 2, 11, 1
1503604457942,-15, 12, -2, -4, -6, -8, -7, -17, 1
1503604457971,-12, -6, -5, -1, -4, -2, -2, -4, 1
1503604457994,3, 8, -5, -3, 0, 3, -5, 16, 1
1503604458016,6, 2, -2, -2, 34, 1, -3, -8, 1
1503604458034,12, 19, -8, 0, 3, 4, -5, -4, 1
1503604458047,-1, -28, -11, 2, 13, 3, 1, 2, 1
1503604458061,-2, -6, 5, 2, 13, 2, 2, 4, 1
1503604458083,8, -7, -4, -3, 4, 2, 2, 3, 1
1503604458105,-15, -11, -4, -2, -8, 2, 0, -10, 1
1503604458121,-15, 4, 0, 0, -8, -11, 1, -15, 1
1503604458143,0, -4, 2, 1, 9, 12, 2, -5, 1
1503604458168,2, 7, -3, -3, -9, 0, -3, -1, 1
1503604458181,3, 7, 14, 5, 4, 1, 0, 4, 1
1503604458203,-5, -7, -4, 1, 8, 8, -1, 0, 1
1503604458225,-3, -25, 1, -1, -17, -10, 0, -1, 1
1503604458242,-4, -21, -10, -3, -6, -6, -3, -2, 1
1503604458263,24, 20, 0, 0, 11, 6, -1, 8, 1
1503604458285,1, -17, -3, 0, 0, 4, 0, -1, 1
1503604458294,-6, 16, 8, 1, -6, -1, 0, 2, 1
1503604458316,-4, -2, -6, -2, -9, -7, -5, -1, 1
1503604458331,-7, -23, -7, -1, -24, -6, 0, -5, 1
1503604458353,15, -19, 6, 1, -6, 2, 3, 15, 1
1503604458377,-1, 10, 5, 0, 12, 1, -6, -19, 1
1503604458391,2, -10, -1, 2, 0, -1, 3, 6, 1
1503604458414,-17, -4, -7, -2, -3, 8, 0, -12, 1
1503604458437,9, -7, -4, 0, 3, -7, -5, 13, 1
1503604458451,2, 13, 3, -1, 10, 3, 0, 5, 1
1503604458474,-14, -12, -2, 0, -13, -6, 3, -5, 1
1503604458496,-9, -26, -5, 2, 9, 8, 1, -1, 1
1503604458512,1, -2, -5, -5, 1, 2, 1, 5, 1
1503604458535,2, 8, -1, -2, -14, -7, 4, 5, 1
1503604458556,-3, 15, 12, 5, 1, -4, -2, -4, 1
1503604458564,11, 5, 0, 3, 18, -2, 2, 6, 1
1503604458585,-7, -27, -15, -6, -26, -9, -2, -1, 1
1503604458604,-12, -10, 1, -1, -1, -10, -7, -10, 1
1503604458623,5, 7, 2, -1, 3, 3, 3, -3, 1
1503604458645,-2, -2, -2, 1, 5, 11, 1, -3, 1
1503604458661,5, 8, 3, 0, -19, -14, 2, 8, 1
1503604458683,-23, -38, -10, -5, -8, -9, -10, -7, 1
1503604458706,8, 11, 2, -2, 49, 4, 7, 12, 1
1503604458714,16, 6, 2, 1, -31, -21, -7, 8, 1
1503604458738,-2, 0, 0, -2, 20, 13, 1, -14, 1
1503604458751,-5, 1, 2, -3, -29, -9, 0, 1, 1
1503604458774,2, -14, -11, -6, -29, -16, -1, 3, 1
1503604458797,-5, -4, 0, -1, -43, -1, 1, -7, 1
1503604458813,-10, -2, -1, -1, 23, 10, -7, 2, 1
1503604458834,12, 25, -2, -2, 11, 1, -5, 2, 1
1503604458856,-8, -4, -2, -2, -8, -7, 1, 1, 1
1503604458879,-11, -42, -13, -2, 5, -1, 1, -2, 1
1503604458894,2, 17, 0, -3, 5, 0, 2, -3, 1
1503604458916,-11, -24, 1, 2, -15, 2, 0, 2, 1
1503604458939,42, 45, 6, -4, 3, 1, -3, 3, 1
1503604458954,1, 4, -1, 4, -2, -4, 2, 1, 1
1503604458976,-11, 14, 3, 3, 14, 6, 2, 8, 1
1503604458999,-2, -10, -4, -3, 2, 5, 0, -2, 1
1503604459015,15, 23, 14, 3, 26, -4, 3, 4, 1
1503604459036,2, -20, -4, -1, -9, 5, -3, 3, 1
1503604459058,-6, -8, -2, -4, -14, -8, -1, -4, 1
1503604459076,-2, -6, -2, -1, 26, -2, -1, -3, 1
1503604459097,6, 3, -2, -2, -2, -5, 2, -2, 1
1503604459119,-2, 3, 1, 1, -11, -9, -3, -18, 1
1503604459134,-14, -14, -7, -5, -8, 3, -2, -1, 1
1503604459156,-2, 0, -3, 5, -7, -6, -2, -5, 1
1503604459178,4, -4, -3, -4, -7, 1, -3, 1, 1
1503604459201,-5, -9, -1, -1, 3, -2, -1, 2, 1
1503604459217,2, 2, 0, -3, -3, 0, -3, -16, 1
1503604459241,2, 7, 2, 0, -1, 0, 2, 4, 1
1503604459275,9, -1, 0, -2, -1, -1, -1, 4, 1
1503604459298,-8, -2, 1, 9, 1, 1, 3, 8, 1
1503604459314,34, 2, -4, -5, 3, -3, -6, -3, 1
1503604459336,-21, -51, -14, -5, 3, 5, 0, 0, 1
1503604459358,-6, 14, 6, 9, 10, 3, -2, -3, 1
1503604459376,-6, 3, 1, -5, -3, 0, 0, -3, 1
1503604459396,-10, -4, -3, -7, 5, -4, -6, -1, 1
1503604459419,-4, 7, 1, 9, 3, 4, 5, 6, 1
1503604459433,2, 0, -4, -7, -10, -19, 3, 3, 1
1503604459456,-1, 0, 1, -4, 3, 7, -2, 0, 1
1503604459472,2, -1, 3, -2, -1, 0, 3, -10, 1
1503604459487,23, 7, -1, -4, -6, 3, -6, 8, 1
1503604459516,31, 0, -2, 1, 2, 2, 1, 4, 1
1503604459531,18, 7, -2, -2, -3, 0, -4, 13, 1
1503604459538,-7, -5, 0, 2, -2, 1, 0, -1, 1
1503604459554,3, 0, -3, -5, -3, 2, 2, -8, 1
1503604459576,16, -6, 1, 1, 3, 4, 0, 23, 1
1503604459599,6, 3, 0, -2, 0, -4, -4, 10, 1
1503604459614,-27, -14, -2, 0, -3, -2, -2, -10, 1
1503604459636,-24, 20, 3, 0, 0, -1, -1, -50, 1
1503604459658,-3, 6, -1, 0, -12, -7, -2, 2, 0
1503604459676,30, -1, -4, -1, -8, -4, -6, 15, 0
1503604459696,3, -1, 2, 0, 8, 3, 1, 1, 0
1503604459719,-10, -9, -2, 1, 0, -5, -6, -22, 0
1503604459734,-6, -2, 0, -3, 2, 1, -1, -3, 0
1503604459756,1, -1, -1, -1, 2, 5, 3, 11, 0
1503604459779,12, 7, 3, 3, 0, 1, -2, 16, 0
1503604459793,11, 7, 3, 5, -17, -1, -2, -3, 0
1503604459817,19, -4, -5, -8, -5, -2, 1, 1, 0
1503604459832,0, 1, -1, 1, 2, -1, 2, -2, 0
1503604459848,-24, 1, 0, -2, 4, 0, -6, -7, 0
1503604459869,9, 3, -3, -5, -5, 0, -1, 18, 0
1503604459892,26, -1, -7, 0, -1, 1, 1, 24, 0
1503604459907,21, -3, -3, -3, -2, -3, 0, 26, 0
1503604459929,-15, -9, -1, -2, -1, -2, -3, -26, 0
1503604459955,-16, 0, 0, 0, 1, -1, 1, -5, 0
1503604459967,-14, 5, 8, 3, 1, 0, 1, -10, 0
1503604459982,-13, -4, 1, 1, 28, 0, 2, -4, 0
1503604459996,-2, 9, -1, -1, -8, -3, -4, 27, 0
1503604460019,-6, -5, -11, -11, -8, -3, -1, -18, 0
1503604460041,1, -8, -1, 0, -6, 3, -2, -1, 0
1503604460057,-8, -2, 3, -2, -3, -1, -5, -42, 0
1503604460101,-6, -6, -11, -9, -1, 1, -3, 8, 0
1503604460112,-1, -3, -7, -2, -1, -3, -2, -35, 0
1503604460131,1, 0, 1, 1, 9, 1, -1, -2, 0
1503604460146,-4, -4, -2, -2, -9, -3, 2, 4, 0
1503604460169,11, 1, 1, -1, 1, -4, -2, 5, 0
1503604460191,-13, -1, -2, -2, 0, 1, 4, 11, 0
1503604460207,2, -7, -3, -5, -3, 3, 0, -4, 0
1503604460229,18, 2, 3, 7, 30, 10, -2, 4, 0
1503604460251,12, -4, -1, -2, -14, -8, 2, 47, 0
1503604460258,-5, 3, -3, -2, 0, -2, 1, -1, 0
1503604460281,2, -2, -3, -2, 3, -1, -7, 0, 0
1503604460297,-5, 4, 9, -6, 0, 1, 0, 3, 0
1503604460319,-5, -12, -10, -4, 2, 1, -4, -3, 0
1503604460341,12, 2, 2, -3, 3, 1, 4, 15, 0
1503604460356,0, -3, -3, -1, -2, -1, 0, 8, 0
1503604460380,10, 5, -2, 0, -1, 1, 5, 19, 0
1503604460401,-10, -2, -3, 4, 1, 0, -3, -12, 0
1503604460417,-2, 4, -3, -1, 0, -3, 1, 9, 0
1503604460438,-1, -2, 0, -1, 0, -1, -3, -15, 0
1503604460461,1, -3, -1, 1, 0, -3, -3, -3, 0
1503604460476,9, -2, -1, -2, 0, -1, -1, -7, 0
1503604460499,-11, -5, 1, -2, -1, -3, -1, 4, 0
1503604460522,-8, -1, -2, -1, -3, 1, 3, 7, 0
1503604460536,-1, -7, -8, -4, -4, -5, -6, -2, 0
1503604460559,6, -2, 3, 6, 0, 2, -3, 0, 0
1503604460581,-3, -6, -5, -5, -2, 0, 1, 0, 0
1503604460596,-2, 3, 0, 2, 0, 1, 2, 7, 0
1503604460619,7, -8, 6, 9, 1, -1, -3, -11, 0
1503604460641,-2, 2, 1, -2, 0, 0, 1, -6, 0
1503604460657,-17, 2, -3, 0, 0, 0, -1, -12, 0
1503604460680,29, 3, -1, -3, 9, 2, -1, 17, 0
1503604460701,-19, -8, -4, 0, 0, 0, -3, -12, 0
1503604460717,27, 3, -3, -6, 1, 4, 1, 7, 0
1503604460732,0, -6, -13, -3, -5, -2, -6, -43, 0
1503604460754,-7, -8, -10, -4, -1, 1, 1, -5, 0
1503604460769,11, 9, 9, -2, 0, -1, 0, 22, 0
1503604460791,11, 0, -5, 1, -1, 0, 2, 8, 0
1503604460815,-2, -2, -6, 1, -2, 0, 0, 6, 0
1503604460829,-5, 4, 5, 6, 2, 1, 0, -4, 0
1503604460852,6, 1, 0, -2, -1, 0, 0, 0, 0
1503604460873,-9, -9, -1, -2, 0, 1, -2, -2, 0
1503604460889,25, 8, 4, 2, -1, -2, -3, -6, 0
1503604460911,8, -4, -1, -1, -3, 0, -2, 22, 0
1503604460933,-32, 1, -3, -1, 1, -1, 2, 41, 0
1503604460951,-7, -9, -5, -6, -2, -1, 2, -29, 0
1503604460982,12, 6, 7, 7, -4, -1, 2, -5, 0
1503604461001,-2, 0, 0, -7, 0, 2, 4, 18, 0
1503604461024,-9, 3, 2, -3, 0, 1, -1, 16, 0
1503604461038,-14, -1, 0, 0, -3, 0, 3, -9, 0
1503604461061,-21, -3, -4, 0, -3, -2, -6, -43, 0
1503604461085,-49, -2, 3, 3, 2, -1, -2, 3, 0
1503604461099,27, 7, 4, 2, 0, 0, 1, 12, 0
1503604461121,-4, -14, -7, -1, 20, 5, 2, 2, 0
1503604461143,1, 2, -2, 1, 26, 4, -1, -2, 0
1503604461159,3, -6, -3, -2, -18, -5, 0, 15, 0
1503604461181,-1, -4, -6, -4, -7, -1, 1, 2, 0
1503604461204,1, 7, 6, 3, -5, -3, -1, 21, 0
1503604461233,-42, -10, -4, -2, 1, -3, 3, 39, 0
1503604461254,-33, -4, -3, -2, 0, 1, -3, -16, 0
1503604461272,8, 7, 1, 1, 0, 2, 10, 13, 0
1503604461294,14, 13, 14, 7, 0, 0, -1, 27, 0
1503604461309,32, 0, 1, 1, 0, -1, 3, 42, 0
1503604461338,6, -5, -2, -2, -2, 1, -2, 0, 0
1503604461356,1, 4, 3, 3, 4, 0, -5, -31, 0
1503604461369,-52, 6, 5, 1, 1, 1, -5, -62, 0
1503604461391,20, 6, -11, -4, -3, 0, 0, 3, 0
1503604461413,19, -6, 2, 2, 63, 15, 2, 26, 0
1503604461429,-6, -2, -2, 0, -21, -7, -1, 2, 0
1503604461454,27, 1, -4, -2, -12, -4, 2, 7, 0
1503604461473,-10, -3, -3, -2, -4, -1, -2, 16, 0
1503604461491,-5, -9, -4, 0, -7, -1, 3, 27, 0
1503604461504,-1, -4, -3, -2, 25, -1, -3, -9, 0
1503604461519,12, -3, -1, 0, -6, -1, -1, -4, 0
1503604461541,16, -1, -2, -3, -10, 0, 2, -3, 1
1503604461563,2, -2, 8, 0, -5, -2, -4, 0, 1
1503604461578,-4, -3, -3, -2, -7, -6, -2, -15, 1
1503604461601,-4, -9, -6, -4, -15, -5, -8, -22, 1
1503604461625,-7, -2, 1, 0, 10, 1, -3, -13, 1
1503604461638,5, 2, 8, 8, 0, 1, 2, 4, 1
1503604461662,1, 7, -3, -4, -19, -4, -3, 5, 1
1503604461684,31, 0, -4, -4, -3, -3, 0, 25, 1
1503604461705,-3, 2, -8, -1, 1, 3, 1, -4, 1
1503604461721,-8, -2, -4, 2, 5, 2, 2, 9, 1
1503604461743,-5, -1, 1, -2, 2, 1, -1, -5, 1
1503604461766,-4, -1, -3, -3, -1, -1, 0, -16, 1
1503604461781,-4, -6, 3, -2, -3, -2, -3, 16, 1
1503604461803,-30, 5, 17, 5, 2, 0, 0, -10, 1
1503604461826,-9, -32, -14, -7, 0, -1, -2, 7, 1
1503604461841,6, 14, 4, 3, -2, 0, 1, -1, 1
1503604461863,6, -1, -2, 4, 0, -1, 1, 2, 1
1503604461887,2, -1, -5, -5, -1, -1, 0, 0, 1
1503604461901,11, 0, -4, -1, 0, -2, -1, -8, 1
1503604461924,10, 18, 8, 5, -7, -5, -2, 4, 1
1503604461946,8, -6, -8, -3, 6, 0, -1, 0, 1
1503604461966,2, 1, -3, -8, -12, -1, 0, 4, 1
1503604461983,-14, -9, -8, -2, 0, -1, -1, -3, 1
1503604462006,1, 6, -6, 0, 3, 4, -1, 2, 1
1503604462036,-8, -14, -8, -3, -2, 1, -1, -8, 1
1503604462044,-14, -4, -1, 4, 5, 1, -2, -2, 1
1503604462066,6, -27, -6, -10, -7, 0, 0, 13, 1
1503604462081,-12, -10, -2, 1, -6, -2, 1, -3, 1
1503604462103,-4, 5, 0, 0, -2, -4, 0, 3, 1
1503604462127,15, 16, 1, 2, -2, 0, -2, -1, 1
1503604462141,-7, -5, -2, -4, 16, 11, 1, 8, 1
1503604462164,-1, 3, -6, -5, -9, -4, -3, 5, 1
1503604462188,7, 14, 15, 5, 4, 3, -1, -11, 1
1503604462194,1, -16, -1, -2, 12, 7, -1, 3, 1
1503604462216,-7, 9, 1, 0, -1, -4, -2, -5, 1
1503604462232,-1, 3, 1, -2, -2, 0, -1, -5, 1
1503604462256,49, 10, 0, 0, -8, -7, -4, -9, 1
1503604462276,5, 2, 5, 2, -2, -10, -3, 6, 1
1503604462292,5, 0, -6, 5, 26, 3, 1, -2, 1
1503604462314,-18, 2, -2, -7, -11, -2, -2, 0, 1
1503604462336,1, 17, 21, 4, -2, 0, 4, 14, 1
1503604462352,-7, -9, -3, -4, -25, -1, 2, -3, 1
1503604462374,2, 6, -4, -7, -1, 5, 2, 6, 1
1503604462396,11, -4, -18, -11, -12, -7, -7, -4, 1
1503604462414,4, 25, 38, 10, 1, 2, 1, 13, 1
1503604462434,1, -11, -12, 0, 5, 4, -2, -20, 1
1503604462457,-2, -7, -2, 0, -12, -14, -4, 3, 1
1503604462471,-17, -9, -9, 2, 2, 1, -1, -8, 1
1503604462498,-3, -1, -2, 1, 34, 4, 1, -6, 1
1503604462516,-7, -4, 2, -6, -14, 1, -2, -2, 1
1503604462532,0, -4, -1, 3, -3, -4, 2, 3, 1
1503604462555,2, -2, -5, -4, -2, -4, -3, -13, 1
1503604462576,-10, -12, -10, -6, -6, -3, -5, -13, 1
1503604462594,-17, -27, -15, -4, 7, 3, -1, -2, 1
1503604462624,-4, -4, -2, 2, -2, -2, 1, 5, 1
1503604462636,-14, 24, 9, 0, 0, 4, -2, -1, 1
1503604462660,-12, -7, -6, 0, 6, 1, 0, 7, 1
1503604462674,19, 12, 9, 8, -5, -3, 3, 2, 1
1503604462696,-10, -21, -7, -7, 10, 2, 1, 4, 1
1503604462704,7, 2, 6, 2, 11, 1, -1, 5, 1
1503604462727,14, -4, -4, -7, 16, 2, -8, 4, 1
1503604462748,0, 20, 9, -1, -15, 2, 5, -5, 1
1503604462763,-7, -6, -5, -4, -40, -15, 0, -5, 1
1503604462786,-5, -3, 0, -3, -33, -7, -2, -9, 1
1503604462808,3, 5, 1, -3, 10, 1, -1, 8, 1
1503604462825,-5, -7, 1, 1, 16, 5, -2, 8, 1
1503604462846,-8, -2, -2, -2, -2, -4, -1, -12, 1
1503604462868,-13, -11, -7, 1, 32, 11, -1, -3, 1
1503604462883,-10, -15, -4, 1, 17, -6, 0, -2, 1
1503604462906,36, 20, 24, 8, -4, 1, -1, 0, 1
1503604462928,-29, -9, -9, -1, -11, -3, -4, -8, 1
1503604462943,8, 3, -3, -3, -16, -16, -1, 0, 1
1503604462969,7, -1, -4, 0, 10, 6, 1, 10, 1
1503604462990,-2, -4, -5, -5, -64, -12, -1, -1, 1
1503604463003,-8, -4, -1, 1, -11, -10, 0, 1, 1
1503604463027,3, -9, -5, 1, 0, 3, 3, 5, 1
1503604463050,-15, -17, -21, -14, 9, 7, -2, -1, 1
1503604463063,-33, 0, 2, 9, 19, 2, -3, -7, 1
1503604463086,-14, 13, -4, -2, 14, 4, -2, -18, 1
1503604463108,13, -5, 5, 0, 15, 2, 0, 1, 1
1503604463123,13, 10, 9, 9, 3, 1, 1, 1, 1
1503604463146,4, 12, 8, 11, 25, 0, -1, -12, 1
1503604463176,-14, -11, -4, -10, -5, -1, 1, 2, 1
1503604463183,14, 9, 7, -5, 6, 4, -1, 5, 1
1503604463206,-1, -3, -5, -4, -8, -2, -1, 3, 1
1503604463229,15, 7, 2, -5, 1, 7, -1, 11, 1
1503604463243,-2, -18, -11, -8, -4, 0, -1, -5, 1
1503604463266,-3, -5, -2, 0, -3, 0, 0, 0, 1
1503604463288,1, -2, 3, 5, 3, 0, 2, 3, 1
1503604463303,-5, 2, 2, 2, -3, -1, -1, -3, 1
1503604463330,-2, 5, 2, 0, 29, 1, 0, -9, 1
1503604463348,6, -2, 4, 10, -8, 1, 1, -5, 1
1503604463364,-4, -5, -1, -8, -8, -1, 1, 12, 1
1503604463388,-5, 3, -3, -3, -3, -2, 0, 7, 1
1503604463408,8, -5, 4, 5, -2, -2, 0, 0, 1
1503604463423,-5, -4, -12, -7, -7, 0, -1, -1, 1
1503604463446,24, 9, 0, 0, -3, -2, -3, -11, 1
1503604463468,-6, 0, -4, -1, -2, -3, -4, -5, 1
1503604463483,-5, -1, 0, -2, -2, -2, -2, -3, 1
1503604463506,-3, -5, -2, -3, 0, 1, 2, 4, 1
1503604463531,18, 4, 0, -3, -2, -1, -1, 5, 0
1503604463550,-8, -2, 0, -1, -1, 1, -2, -5, 0
1503604463568,-19, 1, 9, 26, 6, 0, -1, -4, 0
1503604463588,-11, 5, 7, -13, -4, 0, -1, 3, 0
1503604463611,16, -8, -11, -4, -2, -2, -2, 2, 0
1503604463629,20, -5, 1, 7, -1, 0, 0, 3, 0
1503604463648,-9, -3, -4, -10, -1, -2, 1, -2, 0
1503604463671,-20, -7, -9, -8, -1, -3, -1, 11, 0
1503604463686,15, 1, -6, 1, -1, 0, 2, -6, 0
1503604463708,-11, -7, 0, -3, -1, -3, -2, -23, 0
1503604463733,-8, 1, 2, -2, -1, -2, -2, -1, 0
1503604463746,6, 4, -1, 0, -1, 0, 4, -3, 0
1503604463768,-11, 0, 0, -10, -2, -8, -3, -9, 0
1503604463790,0, -1, -1, -6, -1, 1, 1, 19, 0
1503604463806,22, 9, -10, 0, -2, -3, -4, 18, 0
1503604463831,-7, -10, -12, 0, -1, 0, -3, -9, 0
1503604463850,-34, 3, 10, 8, 4, 5, 5, -2, 0
1503604463866,23, -1, 2, 7, 2, 2, 3, 13, 0
1503604463905,-10, -2, -5, -5, -1, -3, 1, 4, 0
1503604463918,-9, -3, 0, 1, 1, 3, -1, 2, 0
1503604463941,0, 2, 4, -1, -1, -2, -1, 1, 0
1503604463956,-2, -10, -8, -2, 0, 2, 0, 6, 0
1503604463978,2, -6, -5, -2, -1, 1, -1, 1, 0
1503604464001,-2, 0, -5, -4, 0, 1, -1, 2, 0
1503604464016,-23, 0, -5, -3, -1, 0, -3, -4, 0
1503604464040,7, -2, -6, 0, 2, 1, 0, 3, 0
1503604464046,-9, -3, 3, 1, 0, -5, 0, 8, 0
1503604464068,-3, -11, -7, 0, 0, 0, -3, -4, 0
1503604464090,-5, -3, -5, -4, -4, -3, -4, -20, 0
1503604464099,-19, -2, -7, -7, -2, -1, -2, -4, 0
1503604464121,15, -1, -1, 1, -1, -2, 0, 9, 0
1503604464136,7, 3, 7, 3, 0, -1, 1, 5, 0
1503604464158,1, 0, 5, 4, 0, 1, 0, -10, 0
1503604464181,-8, -1, 2, 0, 0, 0, 2, 9, 0
1503604464199,3, -1, 1, 0, -2, -8, -6, -19, 0
1503604464218,9, 0, 0, -1, -1, 1, -1, -10, 0
1503604464242,-55, -4, 1, 15, 2, 0, -2, -18, 0
1503604464256,12, -1, -5, -10, -2, -1, 1, 0, 0
1503604464278,2, -7, -9, -7, 0, 0, -1, -1, 0
1503604464301,6, 2, 2, 5, 2, 3, 1, 11, 0
1503604464316,8, 5, 2, 15, 3, 0, -2, 0, 0
1503604464339,-13, -2, -1, -12, -3, -1, -1, -13, 0
1503604464363,24, 0, 5, 1, -1, -2, 0, 9, 0
1503604464376,23, -2, -3, -5, -4, -2, -3, 6, 0
1503604464400,-2, -1, 0, -1, -2, -3, 1, -10, 0
1503604464407,7, -4, -3, -1, -2, -4, -4, 16, 0
1503604464428,8, 3, -1, -1, 0, -5, 2, -2, 0
1503604464450,-4, -2, -3, 2, 1, 2, -5, -24, 0
1503604464473,-6, -2, 0, 0, -1, 2, 0, 2, 0
1503604464488,11, 3, 1, -4, 0, 0, 0, 7, 0
1503604464511,-13, 0, -3, -1, -2, -3, -5, -30, 0
1503604464535,-1, 0, -2, 1, -1, -2, -2, -19, 0
1503604464548,-12, 2, 4, 0, -1, -1, 0, -9, 0
1503604464570,-8, -3, -5, 2, -1, -1, -1, 15, 0
1503604464592,7, 2, 4, 3, -1, 3, 1, 19, 0
1503604464609,3, 0, -4, -5, -1, -2, -3, -2, 0
1503604464630,-6, -10, -5, -3, 1, 0, 3, 11, 0
1503604464639,-14, -3, 1, -3, -3, -2, -4, -12, 0
1503604464661,-8, -2, -2, -2, 0, 1, 1, 0, 0
1503604464683,-15, -6, -2, -1, 0, -1, -2, -21, 0
1503604464701,0, -2, -2, 1, 1, 1, 0, -3, 0
1503604464721,1, -2, -2, -2, -1, 0, -3, 2, 0
1503604464744,-1, 2, 4, 2, -1, -1, -1, 1, 0
1503604464758,-5, 2, -2, -5, -3, -3, -2, -7, 0
1503604464781,-1, -22, -11, -4, -2, -1, -1, 0, 0
1503604464804,5, -7, -10, -6, -5, -4, -3, 17, 0
1503604464818,7, -5, -15, -1, 0, -1, 2, 1, 0
1503604464842,-10, -20, -5, -6, -1, -3, -2, -7, 0
1503604464863,-2, 10, 5, 0, 1, 1, 0, -7, 0
1503604464878,-2, 6, 3, 4, 1, 0, 0, 3, 0
1503604464902,24, 4, 5, 4, 0, -1, -3, -8, 0
1503604464923,-6, 7, 6, 3, 2, -1, 1, -7, 0
1503604464940,-5, -1, 4, 1, -2, 1, -2, -3, 0
1503604464961,-13, 2, 0, -3, -2, -4, -3, -1, 0
1503604464983,12, 5, 9, 2, 1, 0, 0, -3, 0
1503604464998,-15, 0, -5, -9, -2, -1, 1, 0, 0
1503604465021,8, -6, -8, -2, 1, -1, 1, -11, 0
1503604465043,2, 2, -3, -1, -1, 1, 1, 9, 0
1503604465058,18, -4, -3, -4, -1, -2, -2, 10, 0
1503604465081,-13, -1, 9, 11, 1, 4, 1, -7, 0
1503604465103,16, -4, -5, -5, -2, -2, -1, 9, 0
1503604465112,2, -25, -17, -8, -2, -2, -1, -20, 0
1503604465136,-9, 1, 0, -4, -1, -3, -1, 3, 0
1503604465156,6, -2, 0, -1, -3, -1, -3, 10, 0
1503604465179,7, 0, 0, -2, -2, -3, -1, 8, 0
1503604465201,-3, -3, -3, -1, -2, -1, 0, -3, 0
1503604465223,35, 1, 5, 1, -1, -2, -1, 25, 0
1503604465244,-16, -4, -13, -9, -4, -1, 0, -13, 0
1503604465261,7, -7, -5, -3, -1, 0, -1, 14, 0
1503604465283,-11, 0, -2, 2, -1, -3, -2, 10, 0
1503604465299,-5, 1, 0, -5, -1, -1, 0, -17, 0
1503604465321,-12, -2, 6, 3, -1, 0, -1, -19, 0
1503604465343,8, 1, 11, 6, 1, -1, -1, 4, 0
1503604465358,-1, 2, -10, -7, -2, -7, -1, 1, 0
1503604465381,-1, 5, 3, 3, 0, 2, -2, -5, 0
1503604465408,-12, -5, -1, 0, 0, -1, -3, -28, 0
1503604465426,9, -2, -2, -4, 0, -2, -4, -3, 0
1503604465441,-13, 0, 0, 1, -1, -1, 0, -12, 0
1503604465463,-8, -1, -1, 1, 0, -3, 0, 7, 0
1503604465486,-1, 2, -2, -1, 0, 2, 1, 2, 0
1503604465501,8, -13, 0, 3, -1, 0, -1, 6, 0
1503604465523,1, -5, 0, -1, -3, -4, -1, -7, 0
1503604465546,2, 0, -4, 4, 3, 3, 0, 2, 0
1503604465561,-16, -4, -10, -3, -5, -2, -2, 7, 0
1503604465583,-7, 10, 2, -6, 0, -1, -1, -18, 0
1503604465609,-24, -21, -13, -5, -3, -2, 0, 4, 0
1503604465621,-8, 5, 7, 0, 2, 2, 2, 4, 0
1503604465644,7, 4, 1, -1, 0, 1, 1, 2, 0
1503604465666,35, 7, 3, 0, -1, -1, 1, 4, 0
1503604465681,-4, -2, 0, -1, 0, -1, -3, -12, 0
1503604465707,9, 5, 2, -1, -3, -3, -1, 1, 0
1503604465726,-3, 2, 1, 0, 1, 0, 0, 1, 0
1503604465742,-6, 0, -1, -2, -1, -1, -2, 4, 0
1503604465763,4, 0, -2, -1, -2, 2, -3, -1, 0
1503604465786,4, 7, 5, 1, 0, -1, 1, -3, 0
1503604465801,19, 2, 2, 4, 0, -1, -1, 15, 0
1503604465823,-3, -18, -12, -1, -1, -1, -3, -4, 0
1503604465850,-10, -2, -6, 3, 0, -1, 3, 31, 0
1503604465861,-6, -4, -11, -10, -3, -2, -3, -13, 0
1503604465883,-6, 4, 2, 1, 1, 0, -1, -11, 0
1503604465909,3, 8, 10, 9, 1, 1, 2, -3, 0
1503604465921,-19, -4, -8, -5, -2, -3, -1, -4, 0
1503604465944,-4, -2, 2, 2, 0, 1, 0, -9, 0
1503604465966,14, 5, 4, -1, 0, 1, -2, -4, 0
1503604465981,3, -2, -1, -3, -1, -2, -3, 12, 0
1503604466003,-19, -2, -2, -3, -3, -2, -2, -3, 0
1503604466026,-7, -1, 0, -2, 0, 1, 0, -20, 0
1503604466042,-3, 0, -3, -1, -1, -5, -5, -14, 0
1503604466063,2, 0, 5, 8, -1, -5, 0, 10, 0
1503604466086,5, -10, -17, -12, -3, 0, 0, 7, 0
1503604466101,3, -4, -4, -1, -1, -1, -2, -11, 0
1503604466123,5, 7, 6, 5, 3, 0, -4, 2, 0
1503604466147,-3, -3, 0, -11, -2, 4, 1, 2, 0
1503604466161,2, -15, -8, -8, -5, 2, 1, -19, 0
1503604466184,4, 2, 3, -2, 3, -1, -2, -7, 1
1503604466206,13, 6, 5, 1, -1, 2, 2, 13, 1
1503604466215,0, -6, -11, -8, -7, 2, -1, -9, 1
1503604466236,14, -6, -5, 0, 0, 0, 0, 18, 1
1503604466252,5, 3, -5, 1, -4, -2, -3, -2, 1
1503604466278,4, 1, 0, 3, 1, 0, 2, 16, 1
1503604466296,-26, -5, 6, -1, -5, -2, -3, 7, 1
1503604466312,12, -3, -4, -4, -2, -1, 2, 13, 1
1503604466334,11, -6, -5, -7, -3, 0, -2, -11, 1
1503604466356,-17, -5, -2, -2, -2, -3, -4, 4, 1
1503604466378,7, -2, -2, -3, -3, 1, 2, -7, 1
1503604466394,15, -6, -2, 2, 0, -2, -1, 6, 1
1503604466417,2, -1, 4, 1, -1, 0, -1, 9, 1
1503604466445,-1, 2, -3, 2, 0, -1, 2, 9, 1
1503604466454,-1, 10, 2, 5, 1, -1, 1, -15, 1
1503604466478,-13, -4, 0, -1, 1, 0, 0, 5, 1
1503604466498,5, -3, -1, 1, 0, -2, -1, -11, 1
1503604466514,7, 19, 3, -1, 1, 0, 1, 0, 1
1503604466536,-28, -12, -7, -1, -1, 1, -5, -13, 1
1503604466558,-12, -5, -1, -1, -2, 0, -2, -26, 1
1503604466574,16, 0, -3, -1, -2, -2, 2, 30, 1
1503604466596,11, 1, -1, -1, 0, 0, -3, 9, 1
1503604466619,-6, -2, 5, 4, 1, -2, -3, -13, 1
1503604466634,13, 2, 0, 0, 0, -1, -3, -10, 1
1503604466656,12, -1, -1, 1, 1, 0, 4, 4, 1
1503604466678,-13, -2, -4, -3, -3, -1, -1, 0, 1
1503604466694,-16, 1, 4, -1, 0, 3, 2, 4, 1
1503604466717,11, -6, -5, 1, 1, -1, -1, 12, 1
1503604466738,16, 0, 0, -2, -2, -2, -3, -1, 1
1503604466754,-2, -2, -1, -2, -2, 0, 2, 4, 1
1503604466779,-14, -2, -3, -3, -3, -4, -1, -8, 1
1503604466798,2, -1, -4, -2, -2, -4, -3, -6, 1
1503604466815,-11, -2, 0, -1, -1, 1, 1, -3, 1
1503604466836,-5, 0, -3, -1, 3, 1, 3, -11, 1
1503604466858,7, 1, -1, 2, -1, 0, 0, 9, 1
1503604466874,-3, 6, 10, 0, -2, -1, -2, -3, 1
1503604466896,2, -7, -1, -3, -4, -1, -4, -29, 1
1503604466919,3, 7, 25, 4, 4, 1, -1, 13, 1
1503604466934,6, -11, -16, -5, 2, -1, 1, 1, 1
1503604466957,-12, 11, 1, 1, -2, -1, -3, -4, 1
1503604466979,-1, -6, -6, -1, -1, -1, -3, 9, 1
1503604466994,4, 0, -3, 3, -3, -2, 1, -2, 1
1503604467016,-3, -2, -7, -1, 0, 0, -1, -4, 1
1503604467038,5, 8, 4, 0, 4, -1, -1, -1, 1
1503604467056,-5, -7, -3, 1, -3, -2, 0, 0, 1
1503604467079,9, 3, 4, 0, -4, -1, -1, 7, 1
1503604467083,5, 11, 0, 1, 4, -1, -1, 1, 1
1503604467105,0, 0, -4, -3, -1, -1, 0, 0, 1
1503604467115,-4, -16, -13, -5, -3, 0, 1, 3, 1
1503604467136,0, -5, 1, 5, 5, 1, -2, -2, 1
1503604467158,-5, 1, -4, -3, -2, 2, 1, 1, 1
1503604467166,2, -7, -4, -1, 23, -4, -6, 0, 1
1503604467189,-1, 0, -5, 2, -2, 15, 24, 1, 1
1503604467203,-4, 0, 0, -4, -6, -3, -2, -2, 1
1503604467225,1, 29, 32, 2, 0, 1, -5, 2, 1
1503604467250,1, 9, 4, 9, 11, -2, -4, 0, 1
1503604467270,3, -11, -14, -2, 2, -3, -6, 2, 1
1503604467286,-1, -16, -8, -5, -11, -3, -4, -3, 1
1503604467308,-3, 0, -10, -4, -9, -3, -2, -1, 1
1503604467330,-4, -9, 5, -1, -2, -1, -2, 0, 1
1503604467350,-12, -3, -3, -3, -3, -1, -1, -7, 1
1503604467368,-4, -1, -1, -3, -2, 1, 0, 21, 1
1503604467392,3, -3, 0, 5, 11, -2, -2, -5, 1
1503604467405,-5, -11, -4, -3, -2, -1, -4, -1, 1
1503604467421,5, -3, -2, -1, 4, 0, -1, -5, 1
1503604467436,7, -6, -5, 1, -2, 0, 0, -2, 1
1503604467459,-11, 3, 1, -3, 0, 1, 0, -1, 1
1503604467485,26, 0, 4, 3, -1, -2, -2, 26, 1
1503604467496,-7, 7, -1, -1, -2, 2, -1, -8, 1
1503604467518,-4, -12, -15, -3, -5, 0, -1, -7, 1
1503604467541,-4, -6, -1, -4, -2, -5, 0, 2, 1
1503604467556,7, 3, 5, 3, 27, 5, 1, -2, 1
1503604467578,-3, 13, 5, 2, -10, -2, 1, 0, 1
1503604467600,5, 19, 4, 0, -9, -5, 0, -1, 1
1503604467608,-5, -9, -13, -7, -12, -2, -2, -8, 1
1503604467631,-5, -18, 2, -5, 2, 2, -1, -7, 1
1503604467646,6, 7, 4, 4, 0, 2, 0, -3, 1
1503604467668,4, -7, -10, -4, -2, -1, 0, -2, 1
1503604467691,4, 3, 0, 1, 6, 1, -3, -5, 1
1503604467706,-1, 2, 5, 3, 0, 0, 0, -1, 1
1503604467729,1, 5, 5, 5, 3, 3, -1, -13, 1
1503604467751,0, 3, 4, 2, 4, 3, 2, 0, 1
1503604467765,9, -8, -10, -5, -3, -4, 0, 6, 1
1503604467790,-26, -3, -5, 0, 2, -4, -2, -16, 1
1503604467810,42, -10, 9, 2, -2, 4, 4, 16, 1
1503604467826,4, 12, 0, -3, -3, -1, 0, 4, 1
1503604467851,8, -5, -8, -5, 1, -6, -2, -13, 1
1503604467871,16, -2, -7, -3, -2, -1, -2, 19, 1
1503604467886,-15, -1, -7, -5, -2, -3, -1, 3, 1
1503604467909,-10, -1, -5, -3, -2, -2, -1, -2, 1
1503604467931,17, 16, 1, 2, 1, 1, -2, 3, 1
1503604467939,-12, -5, 0, 2, 1, -1, -1, 3, 1
1503604467961,15, -1, -3, -3, -15, -3, -1, 0, 1
1503604467976,-13, -12, -10, -5, -5, -6, -3, -10, 1
1503604467998,2, 4, 6, 0, -1, 1, 0, 1, 1
1503604468021,-10, -1, -2, -3, 0, 0, -1, -5, 1
1503604468036,-28, 1, 2, -1, 1, -9, -2, 3, 1
1503604468058,18, 5, -2, 1, -1, 3, -1, -4, 1
1503604468081,-5, -6, 0, 0, 10, 9, 2, 4, 1
1503604468089,-20, -6, -5, -1, 8, 4, -1, -8, 1
1503604468110,-4, -7, -4, 0, 38, 15, 2, 0, 1
1503604468127,10, 21, 32, 8, -16, -6, 0, 4, 1
1503604468148,-6, -5, -13, -8, -8, 1, 2, 2, 1
1503604468171,16, 1, -2, 6, 5, 5, 1, 0, 1
1503604468188,5, 21, 9, 1, -2, 0, -2, 4, 1
1503604468208,13, -12, -14, -6, -10, -4, -2, -2, 1
1503604468230,-8, -10, -6, -2, 29, -2, -1, -12, 1
1503604468252,3, -3, 1, 14, -37, -20, -3, 2, 1
1503604468268,1, -8, -12, -9, -41, -22, -1, 3, 1
1503604468291,-5, -5, 0, -4, -4, -1, -2, 15, 1
1503604468312,-7, -9, -3, 1, 5, 7, -1, -2, 1
1503604468329,-6, -7, -7, -5, 5, 6, -1, -1, 1
1503604468354,18, 0, -6, -6, 9, 6, 0, 6, 1
1503604468372,-20, 6, 5, 3, 5, 5, -2, -11, 1
1503604468388,-2, -5, -2, -4, -3, 2, 2, 6, 1
1503604468413,-20, 7, 1, -1, 5, 0, 0, 1, 1
1503604468432,-8, -5, -5, 0, 2, 4, 0, -10, 1
1503604468448,-13, 0, 3, 0, -1, -2, -3, -21, 1
1503604468471,6, -7, -3, 8, -12, 0, -1, 1, 1
1503604468492,6, -2, -1, -3, -14, -8, -2, -16, 1
1503604468508,-2, 5, -2, -5, 5, -2, -1, 3, 1
1503604468531,-15, 0, 6, 5, 10, 4, -1, 1, 1
1503604468554,8, 3, 4, 0, 2, 0, -1, 4, 1
1503604468568,-1, -5, -3, -6, 4, -2, -5, -3, 0
1503604468590,-9, -5, -6, -3, 3, 3, 5, 4, 0
1503604468612,1, -1, 2, -2, 14, 8, -1, -3, 0
1503604468629,14, 0, 0, 2, -31, -19, -2, 4, 0
1503604468650,10, -3, 1, -6, 5, 5, 1, -3, 0
1503604468659,40, 19, 13, 4, -1, -6, -4, 11, 0
1503604468680,-15, -8, -4, -1, 10, 7, 4, 4, 0
1503604468689,4, -4, -3, 5, 20, 0, -1, 1, 0
1503604468711,5, 15, 3, 2, 3, -2, -3, 6, 0
1503604468720,-13, -14, -12, -5, -4, -2, -2, -1, 0
1503604468733,-11, -7, -1, 3, -12, -13, 2, -5, 0
1503604468748,-5, -8, -5, -5, 50, 18, -3, -3, 0
1503604468771,-3, 12, 14, 5, -11, -3, 1, -4, 0
1503604468794,-4, -9, -17, -10, -13, 0, 0, -1, 0
1503604468808,-10, 1, 4, 7, 2, 1, -2, -2, 0
1503604468824,-17, -4, 6, 8, 3, 0, -1, -9, 0
1503604468839,10, 8, 8, 6, 20, 4, -4, -8, 0
1503604468861,-19, -11, -5, -2, -10, -3, 0, -6, 0
1503604468883,-5, 5, -1, 0, -8, 1, 0, 2, 0
1503604468899,17, 13, 6, 1, -5, 3, 4, 10, 0
1503604468922,15, -4, -1, -4, 10, 9, 2, 8, 0
1503604468943,-17, -11, -6, 3, 9, -3, 0, -7, 0
1503604468960,-4, -3, 1, 0, 7, -3, 0, -3, 0
1503604468980,3, -1, -1, 5, 23, 2, 0, 2, 0
1503604468989,-2, 2, -2, -2, -13, 9, 2, 6, 0
1503604469011,2, 7, -2, 1, -2, -2, 1, -20, 0
1503604469019,-18, -10, -6, 0, 22, 11, -4, -9, 0
1503604469040,1, -8, -5, -4, -11, -13, -4, -10, 0
1503604469064,4, -2, -5, 1, -13, 0, 2, 13, 0
1503604469079,-6, -10, -6, -8, -32, -10, -2, -2, 0
1503604469101,4, 10, 4, 3, 0, -1, 0, 3, 0
1503604469123,1, 8, 6, 0, -14, -3, -1, 4, 0
1503604469146,7, -3, -6, 0, 16, 1, -2, -2, 0
1503604469164,-8, -2, -6, 1, 2, -3, -3, -3, 0
1503604469183,1, 5, 9, -2, -6, -8, 1, 4, 0
1503604469205,-23, -1, 0, -3, -14, -5, -3, -16, 0
1503604469212,-7, -2, 0, -10, -32, -12, -2, -3, 0
1503604469229,-4, 0, 5, -3, -11, -7, 1, 0, 0
1503604469243,-11, -2, -1, -3, 35, 4, -5, -5, 0
1503604469266,8, 7, -1, 2, 20, 35, 3, 10, 0
1503604469280,-4, -6, -4, -2, -20, -12, -4, -3, 0
1503604469303,10, 9, 2, -3, -25, -5, -2, -2, 0
1503604469326,24, 4, 1, 2, 63, 12, 4, -1, 0
1503604469340,3, 0, -6, -6, -61, -11, 0, 6, 0
1503604469363,-21, -2, -7, -3, -4, -8, -3, -25, 0
1503604469385,0, 5, 7, -4, -22, -26, 0, -6, 0
1503604469401,3, 0, 27, 15, 6, 4, 2, 4, 0
1503604469425,-1, -15, -8, -5, 19, 13, -2, 6, 0
1503604469445,-15, 8, 4, -1, -3, 1, -1, 1, 0
1503604469461,7, 11, -6, -1, -5, -6, -2, 0, 0
1503604469484,-7, -6, -9, 3, 16, 19, 1, -4, 0
1503604469506,9, 1, -1, -1, -2, -7, -2, -10, 0
1503604469520,2, -7, 7, 3, -1, 0, 2, 6, 0
1503604469544,-2, -3, -6, -4, -7, -5, -5, -4, 0
1503604469551,14, 34, 35, 11, 5, 1, 3, -3, 0
1503604469572,2, 6, -5, 2, 23, 5, -3, -17, 0
1503604469597,-17, -10, -4, -1, 8, 11, 1, 18, 0
1503604469611,-10, 9, 4, 1, 0, 7, 1, -9, 0
1503604469632,-6, -11, -4, -1, -15, -10, -3, -9, 0
1503604469655,0, -1, -3, -5, -7, -5, 0, 5, 0
1503604469671,10, -6, -9, -5, -21, -14, -1, 4, 0
1503604469686,-38, 2, 2, 2, 5, -2, -2, -14, 0
1503604469701,-5, -3, -5, 1, 7, 2, -2, 6, 0
1503604469723,8, -7, -2, 2, -4, -5, 1, -1, 0
1503604469745,-8, 5, 0, -1, -2, -6, -2, -12, 0
1503604469763,19, 3, 1, 1, 19, 7, -1, 4, 0
1503604469783,14, 1, 0, -2, -5, -3, 1, 6, 0
1503604469806,25, -1, -2, -1, -4, 0, -2, 0, 0
1503604469820,-1, -22, -13, -7, 4, -1, -2, -6, 0
1503604469836,-16, -8, -3, -3, -3, 1, -1, -3, 0
1503604469850,22, -6, 0, 0, -3, -2, -5, 12, 0
1503604469866,12, 4, 2, -6, -5, 2, 1, 2, 0
1503604469881,1, 0, 0, -3, -4, -2, -3, -4, 0
1503604469903,-19, 18, 16, 7, -1, -1, -1, -4, 0
1503604469929,-27, -8, -6, -2, 5, 0, 1, -3, 0
1503604469935,-2, -2, -2, -1, -3, -2, -4, -4, 0
1503604469955,-5, -1, 6, 3, -2, -3, 0, -3, 0
1503604469971,7, -4, -7, -2, -1, 1, -3, -3, 0
1503604469995,16, 0, -1, 2, -3, 1, 1, 8, 0
1503604470016,-9, 1, 2, 0, -2, 1, 0, -7, 0
1503604470038,12, 12, 10, 1, -2, 0, 2, 3, 0
1503604470063,-14, -4, -7, -6, 4, 0, -2, -2, 0
1503604470076,-7, -9, -8, -10, -8, -1, -1, 0, 0
1503604470099,-35, -13, -7, -2, -4, -4, 2, -18, 0
1503604470121,1, 3, -3, 0, -1, -1, -2, 14, 0
1503604470137,14, -6, -1, -2, -1, -2, -4, -1, 0
1503604470159,-7, -4, 2, 2, 0, 0, 0, -6, 0
1503604470182,-4, -5, -10, -3, -3, -2, -4, -12, 0
1503604470203,8, 29, 22, 5, 1, 2, 3, 14, 0
1503604470219,-2, 2, 6, 5, 2, 2, 0, 3, 0
1503604470241,-5, -6, -11, -4, -2, -3, -1, -9, 0
1503604470256,8, 2, 1, 2, 0, 1, 1, 5, 0
1503604470278,24, 10, 8, 2, -2, -3, -5, 8, 0
1503604470301,-23, -9, -5, -2, -2, -2, -2, -18, 0
1503604470323,-1, 1, 3, 8, 1, -1, -1, -6, 0
1503604470338,4, -6, -6, -5, -1, -1, -1, -5, 0
1503604470353,8, -12, -1, 0, 1, 0, 0, 18, 0
1503604470376,-1, -2, -5, -4, 0, -3, 0, -7, 0
1503604470399,-3, -2, -8, -2, -1, 0, -1, -4, 0
1503604470421,1, -2, 2, 0, -1, -2, 0, 0, 0
1503604470436,9, 1, -1, 0, 0, 1, -2, 13, 0
1503604470459,-7, 12, 1, -4, -2, 0, 1, -6, 0
1503604470481,1, -5, -4, -2, 1, -1, -1, -1, 0
1503604470497,-12, -7, 1, -4, -4, -1, -1, -4, 0
1503604470519,-6, 0, -1, 0, -1, 0, -1, -6, 0
1503604470541,6, 13, 13, 5, 3, 0, 0, -2, 0
1503604470556,-5, -6, -9, -1, -1, -1, -1, -2, 0
1503604470579,34, 7, -2, 0, -1, -2, -1, 7, 0
1503604470601,-13, 4, 4, 0, 0, -1, 0, -10, 0
1503604470616,-6, 0, -4, -2, -4, 0, 0, -2, 0
1503604470639,2, 3, 7, 5, 2, 1, -4, 1, 0
1503604470661,-8, -10, -3, -6, -6, -4, -4, -21, 0
1503604470676,-1, -4, 2, 2, 2, 1, 4, 13, 0
1503604470701,-7, 2, -9, 0, 0, -4, -4, -4, 0
1503604470722,-6, -13, -9, -1, 0, 2, 0, -2, 0
1503604470737,-3, -6, -1, -3, -3, 1, 1, -14, 0
1503604470759,5, 0, 0, -2, 0, 1, 2, 9, 0
1503604470781,-14, -20, -8, -6, -4, -2, -1, 1, 0
1503604470798,12, -5, -5, 0, -1, -1, 0, 2, 0
1503604470804,-4, 1, 2, -1, 2, -1, 0, 0, 0
1503604470819,10, 12, 0, 0, 1, 1, 1, -1, 0
1503604470841,3, 0, -1, -3, -2, -3, 0, -3, 0
1503604470856,25, 4, 0, -2, -2, -2, 0, 15, 0
1503604470878,-2, 0, 1, 1, 2, -1, 2, 8, 0
1503604470886,-10, 0, 1, 0, -3, 0, 1, -5, 0
1503604470908,-13, -1, -1, 1, 0, 0, -1, -7, 0
1503604470923,-10, -3, -2, 1, -1, -2, -2, -2, 0
1503604470945,-23, -6, -6, -2, -3, -2, -7, 8, 0
1503604470968,5, 14, 11, -1, -7, -1, 1, -9, 0
1503604470983,-2, -4, -11, -4, -12, 0, 2, -4, 0
1503604471006,2, -3, -4, 1, 6, -1, 2, 1, 0
1503604471028,-2, 2, 0, 1, 5, 1, 1, 2, 0
1503604471051,3, 6, 4, 0, 2, 0, -2, -2, 0
1503604471066,-7, -4, -2, -2, 0, -2, -1, 1, 0
1503604471082,-5, -4, -7, -3, 0, 1, 1, -9, 0
1503604471096,-9, -2, -1, 2, 1, 2, 0, 8, 0
1503604471118,-1, 0, -1, 0, 1, -1, 2, -4, 0
1503604471125,0, 0, -2, 0, 3, -1, -2, 1, 0
1503604471148,5, -1, -4, -1, 0, 0, -1, -5, 0
1503604471171,2, -3, -4, 1, 6, 2, -1, 4, 0
1503604471185,0, -2, 3, -2, -12, -2, 1, 2, 0
1503604471208,-3, -2, 1, 2, 1, -1, 0, 7, 0
1503604471231,3, 0, 0, 0, 1, 0, 0, -2, 0
1503604471245,-7, -4, -2, -4, 2, -1, 0, -4, 0
1503604471268,-1, 11, 19, 7, 1, 2, -1, -4, 0
1503604471291,3, 7, -3, -3, -2, -1, 0, -3, 0
1503604471306,-4, -8, -3, 0, -2, -1, -1, -1, 0
1503604471328,2, -1, -1, -5, -1, -1, -3, 0, 0
1503604471351,-3, -8, -7, 2, 2, -3, -4, 0, 0
1503604471369,-4, -15, -10, -6, -2, -1, -2, -5, 0
1503604471388,-3, 1, -6, -1, -2, -1, 0, -2, 0
1503604471412,0, 3, 9, 1, 1, -1, -1, 1, 0
1503604471425,4, 7, 10, 4, 1, 1, 0, -3, 0
1503604471448,4, 0, -2, 9, 3, -1, -1, 3, 0
1503604471471,5, -9, -10, -10, -5, -1, 1, 2, 0
1503604471485,24, 12, 0, -2, -1, 0, 0, 1, 0
1503604471508,-12, -1, 0, -3, 1, 2, -1, -6, 0
1503604471530,-4, -12, -4, 2, 6, 2, -1, -3, 0
1503604471538,-25, -16, -3, -2, -2, 0, 0, -2, 0
1503604471561,-2, -26, 2, 1, -1, 1, 1, 2, 0
1503604471576,-8, -3, -6, -2, 17, 5, -1, -3, 0
1503604471598,0, 5, 2, 1, 1, -3, -5, 0, 0
1503604471621,58, 23, -3, -6, -3, -4, -1, 0, 0
1503604471637,-6, 9, 0, -1, -40, -6, -1, -1, 0
1503604471658,-6, 6, 3, -1, 2, -1, 1, -2, 0
1503604471666,-15, -8, 4, 5, 0, -1, -1, -3, 0
1503604471688,-10, 4, 19, -3, -19, -9, 2, 0, 0
1503604471711,-3, 3, -11, -7, -8, -2, -2, -4, 0
1503604471726,-4, 7, 12, 10, 2, -1, 1, 1, 0
1503604471748,3, -1, -4, -3, 0, 0, -2, 0, 0
1503604471771,-4, 6, -1, 0, 0, 1, -1, 1, 0
1503604471780,-7, -9, -5, -5, -2, -2, -1, -1, 0
1503604471803,-15, 27, 19, 0, 1, 2, 1, -3, 0
1503604471816,-6, 2, -3, -3, -1, -3, -1, -1, 0
1503604471839,9, -2, 0, 5, 1, 0, 0, 3, 0
1503604471861,3, 7, -1, 5, 1, -2, -1, 0, 0
1503604471876,-9, -24, -14, -6, -2, 0, -1, -1, 0
1503604471899,0, 11, 11, 4, 0, -2, 0, 1, 0
1503604471921,-2, -8, -14, 4, 1, -1, -1, 0, 0
1503604471950,-6, -4, 22, -4, 1, 0, 0, -2, 0
1503604471958,-5, -1, 1, 9, 1, 0, -1, -2, 0
1503604471981,-3, 6, -6, -9, -7, -4, -5, -7, 0
1503604472004,-5, 0, -10, -5, 1, 1, -1, 1, 0
1503604472018,19, 11, 6, 2, 1, 0, 0, 1, 0
1503604472041,-7, -10, -9, -11, -4, -4, -5, -4, 0
1503604472063,-1, -24, -18, -15, -3, -1, -4, -9, 0
1503604472081,-10, -7, -5, 2, 0, 5, 2, 2, 0
1503604472101,-16, -4, -2, 8, -7, -8, 1, 5, 0
1503604472123,-16, 4, 16, 6, 0, 1, 1, -3, 0
1503604472140,0, -4, -4, -2, 5, 4, -2, 8, 0
1503604472162,-4, -6, -4, -4, -3, -2, -1, -9, 0
1503604472183,4, -1, 5, 3, -2, -3, 0, -3, 0
1503604472199,5, 4, 2, 3, 2, 1, 1, 0, 0
1503604472221,26, 5, -3, 5, 16, 25, -3, 1, 0
1503604472243,1, 0, -11, -7, 2, -12, -4, -11, 0
1503604472258,-24, -12, 4, 12, 4, -4, 0, 1, 0
1503604472281,-10, -12, 0, -8, -10, -4, 2, -3, 0
1503604472307,-7, 7, -2, -3, -18, -5, 1, -2, 0
1503604472318,0, 5, 2, -3, -4, -4, 0, 0, 0
1503604472341,2, -8, -11, -8, -4, -13, -3, -1, 0
1503604472363,-1, -13, -2, -1, 10, 7, -2, 5, 0
1503604472378,4, 9, 6, 4, -25, -9, -2, 2, 0
1503604472401,5, 17, 6, -2, 2, 2, 2, -2, 0
1503604472423,-24, 10, 8, 0, 15, 11, -3, -8, 0
1503604472441,11, 1, -8, 1, 4, -2, -1, -6, 0
1503604472461,12, 5, -6, -5, -2, -8, 0, 5, 0
1503604472483,-3, -5, 6, 4, -2, -9, 0, 4, 0
1503604472500,6, -23, -8, -6, -7, -3, 0, -2, 0
1503604472521,8, 20, 10, 6, -6, 5, 2, 9, 0
1503604472543,-4, -9, -6, -6, -25, -3, -1, 9, 0
1503604472559,-1, 2, -2, 4, -1, 1, 3, 5, 0
1503604472581,-1, -2, -10, -9, -2, 2, -2, -7, 0
1503604472603,2, 3, 2, -3, 17, 17, -1, -2, 0
1503604472616,6, -3, 1, -4, -13, -4, -3, 6, 0
1503604472637,-10, -2, -12, 3, 8, 4, -3, -2, 0
1503604472649,-10, -2, -19, -10, 0, 0, 0, 3, 0
1503604472671,-1, -5, 1, -2, 7, 9, 1, 1, 0
1503604472696,1, 3, 9, 10, -1, -2, -4, 2, 0
1503604472709,-5, 1, -4, -2, -18, -3, 2, -2, 0
1503604472723,-4, -7, 3, -4, 13, -6, -1, -12, 0
1503604472744,1, 1, -5, -2, -8, -2, -1, -4, 0
1503604472762,4, -4, -6, -1, -7, -3, 1, 4, 0
1503604472784,-9, 0, 0, 0, -14, -14, 2, -7, 0
1503604472798,-20, -3, 0, 1, 6, 5, -3, -8, 0
1503604472821,-11, 7, 1, -5, -9, -6, -2, 10, 0
1503604472851,-4, -7, -4, -4, -7, -3, -3, -2, 0
1503604472872,-2, -2, 0, 16, -2, -1, -1, -1, 0
1503604472881,1, 16, 11, -11, 0, 2, 1, -5, 0
1503604472903,11, 9, 6, -5, -6, -3, 1, 6, 0
1503604472926,0, -7, -4, 5, 15, 23, -4, -1, 0
1503604472945,0, -2, -2, 1, 2, -7, 2, 0, 0
1503604472963,-6, -14, -13, -8, -10, -4, -2, -5, 0
1503604472986,-9, 3, 3, -9, -8, -5, -2, -5, 0
1503604473001,3, 11, 4, -3, -5, -3, -5, 6, 0
1503604473023,-13, -12, -5, 1, 8, 10, 1, -1, 0
1503604473046,-5, 2, -4, -1, -22, -10, -2, 0, 0
1503604473061,13, -2, 2, 7, -12, -10, 0, 1, 0
1503604473085,8, 0, 3, 11, 9, -2, 1, 1, 0
1503604473105,12, 6, -5, -6, 0, -4, 0, 1, 0
1503604473121,-17, -12, 3, 3, 7, 2, -4, 1, 0
1503604473143,1, 9, 7, -2, 3, 3, -2, -7, 0
1503604473165,-4, -8, -8, -4, -2, -1, -1, -1, 0
1503604473189,1, 5, 7, 5, 26, 5, 0, 3, 0
1503604473204,-23, -6, -4, -4, -7, -11, -7, -9, 0
1503604473225,2, -1, -5, -5, -8, -3, 1, 15, 0
1503604473244,5, 2, 1, 1, -2, -3, -2, 2, 0
1503604473263,2, -8, -6, -7, -29, -7, 1, -2, 0
1503604473287,2, 4, 2, 6, -8, -2, 4, -4, 0
1503604473301,-3, -7, -3, -2, 6, 7, 0, -6, 0
1503604473323,1, 1, 0, -1, 21, 19, 0, -2, 0
1503604473345,0, -2, -2, -6, -22, -8, 0, -1, 0
1503604473362,-12, -7, -6, 1, 3, -3, -5, -7, 0
1503604473383,-5, -3, -2, 13, 21, 10, 3, 4, 0
1503604473406,0, -2, -4, -6, 3, -2, 1, -2, 0
1503604473421,-5, 6, 11, -3, -12, -9, -1, -1, 0
1503604473444,4, 9, 3, 3, 6, -9, 0, -5, 0
1503604473465,19, 12, -2, -4, -13, -6, 1, 7, 0
1503604473481,-5, -4, -3, -3, -1, 1, -2, -10, 0
1503604473503,16, -8, -4, 1, 12, 10, -1, 5, 0
1503604473525,15, -18, -13, -7, -2, -1, -2, 3, 0
1503604473541,-2, 3, -2, -7, -9, -8, 6, 18, 0
1503604473563,-11, -6, -1, -3, 0, -2, 0, -6, 0
1503604473585,-7, -6, -5, -4, -5, 2, -4, -4, 0
1503604473601,-4, 1, 6, 6, -7, 19, 0, -8, 0
1503604473623,-3, -1, -2, -2, -4, -6, -3, -4, 0
1503604473645,-10, 5, 4, 1, 7, 6, -1, -10, 0
1503604473661,4, 10, 3, 0, 6, 0, 0, 2, 0
1503604473683,-3, 3, 4, 7, 19, 8, 2, 7, 0
1503604473705,2, -18, -10, -6, -14, -7, -3, -2, 0
1503604473722,-8, 6, 6, 1, -2, -5, 0, -8, 0
1503604473743,-13, -14, -9, -1, 4, -4, -2, 4, 0
1503604473765,30, 2, -4, -4, -36, -12, 1, 9, 0
1503604473782,-13, -4, -1, 0, -9, -26, -7, -19, 0
1503604473803,14, 5, 2, 2, 32, 17, -2, 3, 0
1503604473827,-11, 7, 8, 2, 8, 4, -3, -12, 0
1503604473849,-13, 1, -2, -3, -44, -36, -1, 3, 0
1503604473863,-6, -6, -6, 4, -1, 10, -1, 2, 0
1503604473887,-11, -9, -9, -5, 5, 2, -4, -7, 0
1503604473908,10, 12, 3, -1, 5, 2, -2, 1, 0
1503604473923,3, 0, -3, -7, 11, 5, 1, 1, 0
1503604473947,13, -24, -17, -11, 9, 0, -2, 2, 0
1503604473968,12, -10, -5, 0, -14, -4, 0, 2, 0
1503604473985,-20, -3, -1, -2, -19, -9, -1, -2, 0
1503604473997,3, 2, 1, 1, 1, 1, -2, 2, 0
1503604474016,6, 9, 10, 2, -6, -1, -1, 2, 0
1503604474034,-10, -14, -5, 1, 3, 2, 0, -2, 0
1503604474057,0, -10, 1, 0, 3, 1, 0, 0, 0
1503604474073,-4, -4, -4, -1, -1, 0, 2, 0, 0
1503604474095,-14, -3, 1, -4, 4, 1, 0, -3, 0
1503604474118,-8, 7, 2, 3, -3, -1, 0, -1, 0
1503604474140,12, 4, 3, -1, 0, -1, -1, 5, 0
1503604474163,0, -8, -4, -6, -6, 0, 0, -2, 0
1503604474177,-4, -4, 0, 3, 0, 0, 0, -2, 0
1503604474201,9, 2, -2, -10, 3, -2, 2, 2, 0
1503604474216,2, -14, -10, -4, 0, -1, 1, 11, 0
1503604474237,11, 16, 5, 3, -1, 1, 0, -5, 0
1503604474253,-18, -9, -4, -5, 0, -2, -5, 4, 0
1503604474275,10, 3, -4, 1, 0, 1, -2, -14, 0
1503604474297,-20, -17, -2, 0, -1, 5, -4, -18, 0
1503604474313,7, 13, 5, 5, 0, -6, 0, 1, 0
1503604474335,-4, 1, 3, 0, -3, -2, 0, -7, 0
1503604474358,-6, 1, -1, 4, 2, 2, 1, 4, 0
1503604474373,1, -2, 2, 5, -2, -7, 1, -3, 0
1503604474395,-16, -9, -2, -4, -3, 5, -4, -10, 0
1503604474403,17, -6, -1, -2, -2, -1, -3, 20, 0
1503604474426,-6, -2, -4, -7, -1, 2, 2, -2, 0
1503604474449,-5, -2, 0, 1, -3, -7, -2, -12, 0
1503604474464,-10, -6, -5, 0, -1, 0, 0, 0, 0
1503604474486,16, 8, 4, 2, -1, 2, 3, 23, 0
1503604474508,1, 3, -2, -1, 0, -1, 2, -10, 0
1503604474523,-10, 9, 8, -1, 1, 1, -1, -10, 0
1503604474545,-8, -1, -6, -4, -9, -3, -1, -4, 0
1503604474568,-18, -8, 3, 3, -4, -2, 6, -18, 0
1503604474584,16, 2, 1, -3, 2, -1, -2, 18, 0
1503604474605,14, 2, 3, 6, 3, 2, 0, -6, 0
1503604474628,12, 3, 10, 2, 1, 0, 1, 1, 0
1503604474644,-11, 1, -1, 1, 3, -5, -3, -6, 0
1503604474665,-7, -4, -6, -2, -2, -4, 2, 0, 0
1503604474690,-5, -4, -5, -15, -2, 2, -5, -7, 0
1503604474703,2, 1, -6, -9, 1, -3, -4, -2, 0
1503604474727,-1, -1, -3, 2, -3, -1, -2, -4, 0
1503604474748,0, 0, -4, -2, 0, 4, 2, 5, 0
1503604474770,-38, -11, -4, 0, 6, -2, -4, -13, 0
1503604474786,10, -2, -1, 8, -9, -5, -1, 0, 0
1503604474808,3, -1, 1, 2, 0, 1, -2, 1, 0
1503604474831,7, -2, -5, -2, -1, -5, -3, 4, 0
1503604474845,-6, 0, 1, 4, 3, 1, -1, 0, 0
1503604474868,2, 5, 6, 1, -1, -1, 0, -1, 0
1503604474891,-1, -6, -5, -8, -14, -4, -7, -8, 0
1503604474905,-8, 1, -1, 0, 0, 1, -1, -12, 0
1503604474928,7, 0, -2, 0, 0, 0, 0, -5, 1
1503604474954,8, 3, -3, -4, 0, 0, 4, 17, 1
1503604474958,-8, 8, 4, -1, 0, 2, -3, -5, 1
1503604474979,16, 4, 5, 7, 1, 2, 5, 12, 1
1503604474988,22, 1, -1, 1, 3, 2, 3, 0, 1
1503604475011,2, 17, 0, -1, -1, -1, -1, -1, 1
1503604475026,-2, 4, 2, 1, 3, 0, -6, -3, 1
1503604475048,-7, -15, -3, -7, -2, -1, -2, -30, 1
1503604475070,-10, 1, 6, 6, -1, 1, 0, 1, 1
1503604475087,-4, 0, -4, -6, -5, 0, 2, 7, 1
1503604475108,1, -16, -5, -5, 2, -5, -4, -5, 1
1503604475130,-2, 5, 2, 3, -2, 4, 17, 3, 1
1503604475145,-6, -4, 0, 2, 0, -2, -7, 10, 1
1503604475168,17, 0, -1, 8, 2, 0, -3, 11, 1
1503604475191,5, 2, 2, -3, 20, 5, 3, -7, 1
1503604475205,6, 0, 0, -4, -7, -4, -7, 21, 1
1503604475228,-13, -4, -5, -3, -5, -2, -4, -16, 1
1503604475250,-4, -1, -2, 0, -1, -2, -2, -1, 1
1503604475265,-18, -4, -3, -4, -6, -2, -4, -10, 1
1503604475290,0, 1, -2, 0, 1, -2, -1, -5, 1
1503604475303,-8, 6, 0, -2, -3, -5, -2, 11, 1
1503604475322,11, 1, -2, -2, -2, 1, 4, -5, 1
1503604475341,3, 1, 2, 1, 2, 0, 1, 11, 1
1503604475364,-11, -2, -2, -7, -6, -3, -3, -6, 1
1503604475378,21, 9, 9, 3, 1, -1, 0, 26, 1
1503604475389,-11, -1, 2, 0, 2, 0, 2, 15, 1
1503604475408,-7, -5, -3, 1, 0, 1, -1, -2, 1
1503604475431,12, 3, 0, -1, 19, 1, 1, -6, 1
1503604475445,2, 3, 0, -2, -4, -1, 9, 1, 1
1503604475468,1, 3, 2, 1, -2, 0, -2, 0, 1
1503604475491,-2, -1, -2, -1, -1, 0, -2, -4, 1
1503604475505,14, -1, 0, -3, -8, 0, -3, 37, 1
1503604475528,-9, -2, -3, -3, -4, 1, 1, 0, 1
1503604475550,20, -8, -3, 2, 0, -6, -8, -12, 1
1503604475566,-6, -1, -1, 1, 0, -1, -3, -12, 1
1503604475589,-6, -2, -1, -3, -5, -2, -1, -10, 1
1503604475610,21, 4, 1, -1, -8, -5, 0, 10, 1
1503604475625,-12, -1, 1, 0, 0, -3, -1, 4, 1
1503604475648,-10, 0, -2, -2, -4, 4, 2, -16, 1
1503604475670,10, -1, -1, 2, 2, -1, 0, -2, 1
1503604475693,-1, 1, -3, 0, 0, 0, -3, 2, 1
1503604475708,-1, 0, 12, 3, 4, -5, 0, -4, 1
1503604475731,2, -6, -1, -4, 0, -1, -2, 1, 1
1503604475739,8, -4, -1, -2, -1, -1, -1, -1, 1
1503604475763,-24, -11, -1, 2, 48, 15, 13, -4, 1
1503604475783,4, 1, 0, -1, -11, -6, -4, 5, 1
1503604475799,7, 2, 0, -1, -10, -3, -1, 5, 1
1503604475823,-12, 0, -1, 0, -8, -5, -9, -16, 1
1503604475843,-6, 2, 0, -3, -5, -4, 0, 8, 1
1503604475859,9, 0, -1, 0, -7, -2, -1, 8, 1
1503604475881,-23, -2, -2, -1, -7, -2, -3, -7, 1
1503604475903,-3, -4, -3, -3, -10, -2, -2, 4, 1
1503604475919,1, 0, 11, 7, 6, 1, 1, -8, 1
1503604475941,-1, -5, -12, -6, 2, -3, -6, -21, 1
1503604475964,4, -1, 1, 0, -4, -2, 1, 5, 1
1503604475971,-18, -2, -4, -3, 4, -1, -3, -7, 1
1503604475994,18, 0, -3, -1, 1, 1, -1, 11, 1
1503604476008,-15, -3, -3, -1, 1, 0, -2, -21, 1
1503604476030,-11, -10, -1, 0, -5, 0, -2, -2, 1
1503604476039,-12, 4, 2, 1, -5, 7, 4, -9, 1
1503604476061,-4, -7, -1, 1, -6, -6, -2, 1, 1
1503604476083,7, 7, -2, -2, -2, -2, -1, -7, 1
1503604476099,7, -1, -3, -2, -21, -3, 0, 1, 1
1503604476121,-3, -2, -2, -5, -10, -4, 3, 3, 1
1503604476143,-8, -3, 1, 1, 5, -2, -3, -6, 1
1503604476159,4, -2, 0, -1, 5, 1, -2, -5, 1
1503604476181,-1, -2, -4, -4, 0, 1, -1, 9, 1
1503604476203,6, 1, 3, -1, 6, 0, 1, 4, 0
1503604476218,-6, 3, -1, 1, -5, -3, -2, -3, 0
1503604476241,-4, -3, -2, -1, 0, -1, -3, -14, 0
1503604476264,18, 3, 2, 1, 4, -5, -1, 31, 0
1503604476278,-10, -6, -5, -1, -6, 1, -5, -21, 0
1503604476302,0, -1, 2, 0, 1, -1, -1, 7, 0
1503604476328,6, 5, -1, -1, 0, 2, 1, 6, 0
1503604476338,-11, 1, -1, -2, 1, 0, 1, 5, 0
1503604476363,-4, 2, -1, 0, -4, -4, -4, -8, 0
1503604476383,6, -6, 0, -2, -3, -5, -5, 0, 0
1503604476398,-2, -1, -1, 0, -2, 0, -1, -15, 0
1503604476421,6, -1, -3, -1, 1, 1, 2, 14, 0
1503604476443,2, 0, -1, 0, 1, 2, 1, -12, 0
1503604476461,-2, -4, -3, -3, -1, -1, 0, -13, 0
1503604476481,6, -5, 2, -1, -1, 0, -2, -12, 0
1503604476504,-4, 11, 1, 0, 2, 3, 1, 3, 0
1503604476518,17, 3, 2, 5, 4, -1, 1, 12, 0
1503604476541,14, -7, -1, -4, -3, -3, -5, 10, 0
1503604476563,3, -1, -4, 4, -1, -2, -1, 18, 0
1503604476578,-19, -5, -3, -5, -1, -2, 1, -9, 0
1503604476595,16, -4, 0, 0, 1, 6, -1, 4, 0
1503604476615,-3, 3, -2, -2, -2, 0, -3, -5, 0
1503604476631,3, 1, -1, 0, -20, -3, 1, 11, 0
1503604476653,-5, -3, 0, 0, 0, -3, -2, -5, 0
1503604476675,-2, -8, -2, 2, 4, -1, 0, 2, 0
1503604476694,8, 2, 0, -1, 3, -1, -1, -7, 0
1503604476713,-7, 1, -3, -2, 2, -1, 3, 9, 0
1503604476736,0, -4, -2, -4, 0, -2, -2, 7, 0
1503604476750,5, -2, 2, 6, 26, 2, -3, -12, 0
1503604476773,10, 1, -4, -6, -8, 5, -1, 14, 0
1503604476796,-2, 1, 23, 11, 4, -2, -1, 2, 0
1503604476810,19, -3, -10, -4, -8, -6, -1, 11, 0
1503604476834,-12, 1, -5, -1, -10, -3, -1, -11, 0
1503604476855,-5, -2, -4, -6, 20, 7, 2, 8, 0
1503604476871,-10, 2, 4, 2, -4, -3, 0, -4, 0
1503604476895,3, 3, -3, -2, -7, 0, 1, -11, 0
1503604476915,-9, 0, 2, 1, -3, -2, -1, -14, 0
1503604476931,0, 0, -1, -2, -2, -1, 1, 13, 0
1503604476953,-3, 1, -2, -1, 9, 2, 0, -9, 0
1503604476975,14, -5, -3, -2, -9, -8, -2, 17, 0
1503604476990,-3, 2, 1, 8, -3, -1, 0, -5, 0
1503604477013,-6, -4, -6, -11, 5, 3, -5, -8, 0
1503604477036,-3, -6, -7, -7, 4, -4, 0, -31, 0
1503604477050,2, 5, 12, 14, -9, -1, 2, -6, 0
1503604477073,-16, -6, -5, -1, -4, -2, -3, -2, 0
1503604477097,0, -7, -3, -3, 0, 2, -1, -8, 0
1503604477106,1, 3, -5, -2, 2, -1, -1, 3, 0
1503604477125,-22, -22, -12, -7, -9, -3, -1, 8, 0
1503604477141,-3, -1, -2, -3, 2, 0, 2, 4, 0
1503604477168,6, 6, 1, 4, 9, 3, -1, -8, 0
1503604477185,16, -6, -4, -3, -3, -2, -2, 24, 0
1503604477201,11, 6, 1, 0, -8, -4, -1, -15, 0
1503604477223,-8, 1, -2, -3, -14, -3, 3, -1, 0
1503604477246,-10, -3, -3, -3, 3, -2, -13, -10, 0
1503604477263,-5, 3, 1, 1, 4, 2, -1, -8, 0
1503604477283,-2, -5, 6, 3, 3, 0, 1, 4, 0
1503604477306,0, -7, 11, -1, 0, -1, 0, -1, 0
1503604477321,-6, -5, -9, -3, 5, 1, 0, -12, 0
1503604477343,8, 2, -6, 2, -4, -2, 3, 8, 0
1503604477371,-11, 0, 0, -2, 1, 0, -2, -13, 0
1503604477381,17, 3, 1, -2, -1, -1, -2, 18, 0
1503604477404,-8, -5, -6, -2, 1, -1, 2, -8, 0
1503604477426,-21, -2, -2, -4, -4, -8, -5, -14, 0
1503604477441,19, 14, 6, 3, -3, 0, 2, -9, 0
1503604477465,-13, -2, -1, 2, -6, -4, -7, -17, 0
1503604477486,32, 11, 2, 0, 4, 4, 3, 41, 0
1503604477501,-1, -1, -1, 3, 4, 1, -5, -2, 0
1503604477523,-10, -3, 0, 0, -3, -3, 4, 13, 0
1503604477546,-2, -4, -5, -3, 52, 21, 1, -6, 0
1503604477570,-19, -13, -8, -4, -18, -10, -4, 1, 0
1503604477583,-29, 3, 6, 2, -2, 5, 9, -39, 0
1503604477606,4, -6, -5, -3, -10, -5, -1, -10, 0
