1503685034971,0, -2, 0, -2, -1, 1, -1, 0
1503685034992,-1, 0, -1, -1, -2, -1, -2, -1
1503685035007,0, 0, -1, 0, -1, -1, -1, -1
1503685035029,0, -1, -1, 0, 0, 0, -1, 0
1503685035052,-2, -1, -1, -1, 0, -1, 0, 0
1503685035075,1, 1, 0, -2, 0, -1, 0, -2
1503685035090,0, -2, 0, 0, -1, -2, -2, -1
1503685035112,-1, 0, -1, -2, -1, -1, 0, -1
1503685035135,-1, -1, -2, -1, -2, -2, -1, 0
1503685035150,-2, 0, 0, -1, 1, -2, -2, -5
1503685035173,-1, -2, -2, 0, 0, -1, 0, 1
1503685035196,-1, -2, 1, 0, -1, -1, -1, -2
1503685035211,-2, -2, -1, -2, 1, -1, -1, 0
1503685035232,-1, 1, 0, -1, 0, 0, 0, -1
1503685035241,-2, 0, 2, 0, 0, -1, -2, 0
1503685035263,-1, -2, 0, -1, -1, 0, -1, 0
1503685035285,0, -1, -1, -2, -1, -1, 0, 0
1503685035308,-1, 0, -1, -2, -1, -1, 1, 0
1503685035323,0, 0, -1, -1, -1, -1, -2, -1
1503685035345,-1, -2, -2, 0, -3, -1, -1, -1
1503685035363,-3, -2, 0, -2, 1, -1, 1, -2
1503685035383,0, -1, -2, -1, 1, -2, -2, -1
1503685035406,0, -2, 0, 1, -2, -1, 1, -1
1503685035420,0, 2, 0, 1, 0, 0, 0, -1
1503685035443,-2, 0, 1, 1, 1, -1, -1, -1
1503685035465,-2, -2, 0, -1, -1, -1, -1, 0
1503685035480,-1, -1, -2, 0, 1, -1, -1, 0
1503685035504,0, 1, -1, -1, -1, -2, -1, -1
1503685035526,1, -2, 0, -1, -2, 0, -2, -1
1503685035541,1, -2, -1, -1, -1, -1, -3, -1
1503685035563,0, -1, -1, -1, 1, -2, -1, 0
1503685035587,-1, 0, -1, 0, -2, 1, -2, 0
1503685035600,0, 0, 1, 0, -1, -2, 1, -2
1503685035623,-2, -1, -1, -1, -1, -1, -1, -2
1503685035646,-2, -2, -1, -2, 0, 0, -1, -1
1503685035662,-1, 0, -1, 0, -2, 0, 0, 2
1503685035683,-1, 0, -1, 1, -2, -2, 0, 0
1503685035705,-1, 0, -2, -1, -1, 0, -3, 0
1503685035721,-1, -3, -1, -2, 1, -1, -1, -2
1503685035743,1, -1, 0, 1, -1, 0, -1, -2
1503685035766,-2, -3, -1, -1, 1, 0, 1, 0
1503685035780,0, 0, -3, 0, -1, 0, 1, 0
1503685035803,1, 0, 0, 0, -1, 0, -1, -1
1503685035825,0, -1, -1, -1, -2, -2, -2, -2
1503685035840,2, 2, 2, 0, 1, -1, 0, 1
1503685035866,-1, 0, 0, -1, -1, -1, -3, -1
1503685035885,-2, 0, -1, 0, -1, -2, -3, -3
1503685035900,-2, -1, -1, -1, -2, 0, -1, -1
1503685035915,0, -1, -2, 0, -1, -1, -1, -1
1503685035930,0, 1, 1, 0, 0, -1, -1, 0
1503685035952,0, -2, -1, 0, -1, 0, -1, 0
1503685035975,2, 1, 0, -2, -1, -1, 0, -1
1503685035999,-2, 0, -2, -2, -1, -1, 0, -2
1503685036012,-3, -3, -2, 0, -1, 0, -2, -2
1503685036036,-1, -2, 0, -2, -2, 0, -1, -3
1503685036057,1, -1, 0, -1, -1, -1, 0, 0
1503685036073,-1, -1, -2, -1, 1, 0, -1, -1
1503685036095,0, -3, -1, 1, -1, 0, -2, -1
1503685036117,0, 2, -2, -2, 0, -1, 1, -1
1503685036141,-2, -1, 1, 0, -2, -1, -1, 1
1503685036155,-1, 0, -2, -1, -1, -1, 0, 1
1503685036177,-3, -1, 0, -1, 0, -2, -1, -1
1503685036192,-1, -2, -3, -2, -2, -1, -1, -1
1503685036215,-1, 0, -1, 0, 1, 0, -2, 0
1503685036237,0, -2, -2, 0, -2, 0, -1, -1
1503685036252,-1, 0, 0, -2, 0, 0, 0, 0
1503685036279,-1, -2, -1, 1, -1, 0, -3, 0
1503685036297,0, 0, 0, -2, 0, 0, -1, 0
1503685036312,0, -1, 0, 0, -1, -1, 0, -3
1503685036335,1, -1, 0, -1, 0, -2, 0, -1
1503685036357,-1, -2, -2, -2, -2, -1, -1, -2
1503685036372,-2, 0, -1, -1, -2, -1, -1, -1
1503685036395,2, 2, 0, 0, -1, 1, -1, -1
1503685036417,-2, 0, 1, -1, 1, -2, -2, -1
1503685036434,1, -1, 0, -1, -1, -2, 1, 1
1503685036454,0, 1, 1, 0, 0, 1, 1, -2
1503685036462,-1, -3, -1, 0, -3, -3, 0, -1
1503685036492,0, 0, -1, -2, -1, 1, 1, -1
1503685036508,-2, -1, -1, 0, -1, -2, -1, -2
1503685036523,0, -1, 0, -1, 1, 0, 0, 2
1503685036545,-1, -1, -1, -1, 0, -1, -2, 2
1503685036568,-1, -2, -1, -1, -1, -1, -1, 0
1503685036583,0, -2, 1, -2, -1, -1, -1, -3
1503685036606,0, -1, -1, 0, -3, -1, -2, -1
1503685036627,-1, 0, -1, -1, 0, -1, -1, -1
1503685036643,-3, -1, 0, 0, -1, -1, 0, -1
1503685036665,1, 1, -1, -3, -1, -2, 0, 0
1503685036687,-1, -1, -3, -1, 0, -1, -1, -1
1503685036703,0, -1, -3, 0, 0, -1, -2, -1
1503685036725,0, -1, -1, -1, 0, -2, -1, 0
1503685036747,-1, -4, -2, -1, -2, -2, -3, -2
1503685036763,-3, 1, -2, 0, -1, 2, -1, 0
1503685036785,1, 0, 1, -1, -1, -1, -1, 0
1503685036810,-1, -2, -1, 1, -1, -1, 0, 0
1503685036823,-1, 1, 0, -1, 0, -2, -2, 1
1503685036845,0, -1, -4, -1, 0, -2, -1, 0
1503685036852,2, -2, 1, -1, -2, 1, 0, 2
1503685036875,-2, -1, -1, 1, 0, -1, -1, -3
1503685036897,0, 0, -2, -2, 0, -2, 0, 0
1503685036919,0, -1, -2, -2, 0, -1, -1, 1
1503685036937,-1, 0, -1, 0, 0, 0, -2, -4
1503685036957,-1, 0, -1, -2, -1, 0, -1, -2
1503685036980,-1, -3, -1, 0, -1, -2, -1, -1
1503685036995,-1, -1, 1, 0, -1, -1, -1, 0
1503685037017,0, -2, -1, -1, -3, 0, -4, -2
1503685037039,-2, 0, -1, -1, -1, 0, 0, 2
1503685037055,1, -1, -1, -1, -1, 0, 0, 1
1503685037077,-3, -1, 0, -2, 0, 1, -1, -1
1503685037099,0, 0, -2, 0, 0, -3, 0, -2
1503685037115,0, -1, -1, -2, -2, -2, 0, -1
1503685037139,0, 1, -2, -1, -1, -2, -1, -1
1503685037159,-1, 0, 0, 0, -1, 0, 0, 0
1503685037175,0, -1, -1, 0, 0, 0, 0, 0
1503685037197,-2, -2, 0, -1, -1, -1, -1, -3
1503685037221,-2, 0, -2, 0, -1, -2, 1, 0
1503685037235,0, -1, 1, -1, 0, 2, -1, 0
1503685037257,-1, -1, -1, 0, 0, -1, 0, -1
1503685037281,0, -1, -3, -2, -1, 0, -1, 0
1503685037295,-1, -3, 0, 1, -2, -1, -2, -1
1503685037317,0, -1, 0, 0, 0, 0, -1, -1
1503685037341,-1, -1, -1, -1, -1, -1, -2, 0
1503685037348,-1, -1, 0, -1, 0, 1, 1, 1
1503685037371,-1, -1, -1, -1, -1, 0, -1, -1
1503685037386,-2, -1, -1, 0, -1, -2, -2, -2
1503685037408,1, 2, 0, 0, 0, -1, 1, -2
1503685037430,1, -1, -2, -2, -1, 0, -1, 1
1503685037445,0, -1, -1, 0, -1, -1, 0, -1
1503685037467,-2, -1, -1, -1, -1, 0, -2, 0
1503685037490,1, -2, -1, -1, 0, -1, 0, -1
1503685037505,-1, -1, -3, -1, -2, 0, -1, -2
1503685037527,-3, -1, -2, -2, -1, -2, -2, -4
1503685037550,-1, -1, 0, 0, -2, 0, 1, 0
1503685037565,-1, -1, 0, 1, -1, 0, -1, 1
1503685037589,-1, 0, -1, 0, 0, -2, -2, 1
1503685037610,2, 0, -1, -2, 0, -1, -1, 0
1503685037626,0, -1, 0, 0, 2, -2, -3, 0
1503685037647,-1, -2, -1, -1, -1, 0, 2, -1
1503685037670,1, -3, -1, -1, -3, 0, 1, -2
1503685037685,-2, 0, -1, -3, -1, 1, 0, -2
1503685037710,0, -1, -1, 0, -1, 0, -3, 1
1503685037730,0, -1, 0, 0, -2, -1, -2, 0
1503685037746,0, 0, 0, 1, 1, -2, 0, 2
1503685037767,1, -1, 0, 1, 0, 0, 0, -1
1503685037790,0, -1, -1, -1, -2, -1, -2, 0
1503685037805,-2, 1, -1, 0, -1, 1, -1, -1
1503685037827,-2, -1, 0, -2, -2, -1, 0, -1
1503685037843,0, 0, 0, 0, -1, 0, -1, -1
1503685037857,0, -2, 0, 0, -1, 0, -1, 0
1503685037879,0, -2, -2, 0, -2, -3, -2, 0
1503685037902,0, 0, 0, -1, 0, 0, 1, -1
1503685037917,-1, 0, 0, -4, -1, -1, -1, 0
1503685037939,-1, 1, -1, -2, -1, -1, -2, -3
1503685037962,-1, -1, -1, -1, -1, 0, -1, -1
1503685037980,-2, -1, -2, -1, -2, 0, 0, 1
1503685037999,-1, -2, 0, 0, 0, -2, -2, 0
1503685038022,1, -1, -1, 0, 0, 1, 0, -1
1503685038037,-1, -1, -1, -2, -1, -2, 0, 0
1503685038059,-1, -2, -2, 1, -2, -1, -2, -1
1503685038082,-3, 0, -1, -1, -2, -2, 0, -3
1503685038097,-1, 2, 0, -1, 0, -1, -1, -1
1503685038119,-1, -1, 1, 0, 0, 0, -1, -2
1503685038141,-1, -3, 0, -1, -1, -1, 0, -1
1503685038157,0, 1, -1, -2, 0, 0, 0, 0
1503685038180,-1, -1, -1, 1, 0, 0, 0, -1
1503685038201,1, 0, -1, -1, -2, 0, -2, -2
1503685038210,-1, 0, -2, 0, 0, 0, -2, 0
1503685038232,-1, -2, -1, 0, -1, 1, 0, 0
1503685038240,-2, -2, 0, -1, 0, -1, -1, 1
1503685038261,-2, -2, 0, 0, -1, -1, -1, -2
1503685038277,-2, -1, -2, -2, -1, -1, -1, 0
1503685038299,-2, 0, -2, 0, -1, -1, -1, -2
1503685038323,-1, -1, -1, -1, -1, -1, -1, -2
1503685038337,0, 0, -1, -1, -1, -1, -1, 0
1503685038360,1, 1, 0, 0, -1, -3, -2, 0
1503685038381,0, 1, 0, 1, -1, 1, 1, -1
1503685038397,0, -1, -1, -1, -1, 0, -1, -1
1503685038420,0, -3, -1, -1, -1, 0, 0, -1
1503685038442,-2, -1, 0, 2, -1, -1, 0, -1
1503685038457,0, -1, -3, -3, -1, -2, -1, 0
1503685038481,0, -3, 0, -1, 0, 0, -1, -3
1503685038501,-2, -1, -1, 0, -2, -3, -1, -2
1503685038517,0, 0, 1, -1, 0, 0, 0, 1
1503685038539,-1, -2, -2, -1, -2, -1, 0, -1
1503685038550,-1, 0, 0, 1, -1, -1, -3, -1
1503685038570,0, -2, 0, 1, -1, -1, 0, -4
1503685038592,-1, 1, -1, -2, -1, -1, 0, -2
1503685038607,0, 0, 0, -2, 0, 1, 0, 1
1503685038630,0, -2, -3, -2, 0, -1, 0, -1
1503685038652,-1, -2, 0, 1, -1, -1, -3, 1
1503685038667,-1, 0, -1, -2, -1, 0, -1, -3
1503685038690,-1, 0, -1, 1, 0, -1, 0, -1
1503685038712,0, -1, -1, -1, 0, -1, 2, 1
1503685038728,0, 0, 0, -1, -2, -1, 0, -1
1503685038750,0, 1, -3, -1, -1, -2, -1, -1
1503685038772,-1, 0, 0, 0, -1, 0, 0, 0
1503685038794,1, -2, -1, -2, -1, -1, -2, -2
1503685038809,-1, -2, -1, 0, -1, 0, -2, 0
1503685038832,-1, -2, -1, -2, -1, 0, -2, 0
1503685038855,-1, -1, -1, 1, -1, -1, -1, -1
1503685038870,-2, -1, 1, 1, -1, -2, 1, 0
1503685038892,0, 0, -1, -1, 1, -1, -1, -1
1503685038915,-1, 0, -1, -1, -1, -2, 0, -1
1503685038930,0, -1, 0, -1, -1, 1, -1, -2
1503685038952,-1, 0, 0, 0, -1, -1, -1, -1
1503685038975,-1, -2, -2, -2, -1, -2, -1, 0
1503685038991,0, -3, -1, -1, -1, -1, -1, 0
1503685039012,0, -1, 0, -1, 0, 1, -1, -2
1503685039042,-1, -2, -1, 0, -3, -1, -1, -1
1503685039064,0, -1, 0, -2, -1, 0, 0, 2
1503685039080,-1, 0, 0, -1, -1, -1, -2, -1
1503685039101,1, 0, -2, -1, 0, 1, 0, -1
1503685039124,-1, 0, 0, 0, 0, -2, -1, 1
1503685039139,-3, -1, -1, -1, -2, 0, -1, -1
1503685039162,-1, -1, -1, 0, -1, -3, -2, 0
1503685039184,0, 0, -2, 0, -1, 1, 0, -1
1503685039199,-1, 0, -1, -2, -2, -2, 0, -1
1503685039222,-2, 0, -3, -1, 0, -1, -1, -2
1503685039244,1, -2, 1, -2, -1, 0, 0, 0
1503685039260,-1, 0, 0, 0, 0, -2, -1, -2
1503685039281,-1, -3, -2, 0, -2, 1, 0, -3
1503685039304,0, 1, -1, 0, 1, 0, -1, -1
1503685039322,2, -1, 2, -2, 0, -2, 0, 0
1503685039341,-1, -2, 0, 1, 0, 0, -2, 0
1503685039365,-2, -1, -2, -1, -2, -1, 0, -1
1503685039379,-2, -3, -1, -1, 0, -1, 1, 0
1503685039395,0, -1, 0, 0, 0, -1, -1, -2
1503685039409,-1, -2, -3, 0, -1, 0, -2, 0
1503685039432,0, -1, -2, 0, -1, -1, -1, -1
1503685039456,-2, 0, -2, 1, 0, -2, -1, -2
1503685039461,2, 1, -3, 1, 1, -1, 0, 1
1503685039484,-1, 0, -1, 0, -1, -1, 0, -1
1503685039500,-2, -2, -1, 0, -2, -1, -1, -1
1503685039525,-1, -1, -2, -1, -3, 0, 0, -3
1503685039544,0, -1, -1, -1, -2, 0, -1, -1
1503685039566,-3, 0, 0, 0, 0, 1, -1, -2
1503685039584,1, -2, -1, 0, -1, -1, -1, 0
1503685039604,0, -2, -2, -2, 0, -1, -2, 0
1503685039619,0, 1, 0, -2, -2, -1, -1, -2
1503685039641,-1, 0, -2, -2, 1, -1, 0, -1
1503685039664,-1, -1, 0, 1, 0, 0, 0, -1
1503685039680,-1, -2, -2, 0, -2, 0, -1, -2
1503685039701,0, -1, -2, 0, 0, -1, 0, 0
1503685039726,-1, 0, -3, -1, -1, 0, -1, 0
1503685039746,-1, -1, 0, -2, -1, -3, -2, -2
1503685039763,-1, 0, -2, 0, -3, -1, 0, -2
1503685039785,0, 0, 1, 0, 2, 1, -1, 2
1503685039807,0, 1, 0, -1, 0, -2, -1, -1
1503685039826,-1, -2, 1, -4, -1, 0, -1, -1
1503685039845,0, -1, -1, 0, -1, 0, -1, 0
1503685039868,-1, -2, 1, 0, -1, 0, 0, -1
1503685039883,-1, 0, -2, 0, 0, -1, 0, -1
1503685039905,-5, -2, 1, -1, 0, -2, 0, -1
1503685039929,9, 8, 0, 1, 0, -1, 1, 1
1503685039943,-4, -1, -2, -3, 0, 0, -1, -1
1503685039966,0, -1, -1, -1, -2, -3, -2, -2
1503685039987,-3, -2, -1, 2, -1, -2, -1, -1
1503685040002,0, -1, -1, -2, -1, -1, -1, -1
1503685040028,-1, 0, 1, 0, 0, 2, 0, 0
1503685040048,0, -2, -3, -2, -1, -1, -1, 0
1503685040055,-1, -6, -1, -2, 0, 1, 1, -2
1503685040077,0, -2, -3, -3, 0, -3, -2, 0
1503685040093,-1, 1, 0, 0, -5, -5, -3, -3
1503685040114,0, 0, 1, 0, 0, 1, 2, -2
1503685040137,-4, -6, -7, 0, -3, -1, -3, -4
1503685040152,0, 1, 3, -1, 0, -2, 1, -3
1503685040174,-1, -3, -3, -1, 0, -3, -3, 0
1503685040197,1, 2, 4, 0, -1, 2, 1, 2
1503685040212,-5, -5, -1, -1, 1, 4, 0, -1
1503685040235,8, 5, -3, 6, 11, 2, 0, -1
1503685040257,-1, 2, -1, -2, 0, 3, 0, 1
1503685040272,-1, -8, -4, -2, -5, -5, 2, 0
1503685040295,4, 5, 6, 1, -1, 3, 3, 2
1503685040317,-4, -6, -3, -2, -11, -6, 0, -3
1503685040333,-2, 7, 6, -1, 1, 2, 0, -2
1503685040354,3, 3, 13, 4, 2, 4, 4, 3
1503685040377,5, 2, -15, -1, 5, 8, 2, 0
1503685040392,-1, -1, -2, 1, -6, 3, -5, -2
1503685040422,1, -11, -10, -8, 1, 0, -5, 1
1503685040437,-13, -11, 2, 4, 7, -2, -4, -2
1503685040452,-12, 2, 22, -2, 2, -13, -5, -6
1503685040474,12, 15, -17, -13, -6, 28, 1, -1
1503685040497,14, -10, -38, 3, 15, -17, -3, 0
1503685040512,-19, 33, 36, -6, -16, -22, -11, -12
1503685040534,-1, -26, -3, 37, 58, -14, 5, 4
1503685040550,-13, -2, -12, -28, -46, -13, -6, -9
1503685040565,-46, -39, -11, 49, 42, -37, -4, -14
1503685040587,-5, 11, 62, -22, -37, 79, 43, -6
1503685040610,-4, -57, -91, -14, -42, -65, -6, -20
1503685040625,12, 20, -1, -1, 50, 57, -1, 13
1503685040647,5, 26, 19, 12, -5, -20, -11, 4
1503685040670,10, 22, 8, -22, -19, 8, -1, 13
1503685040685,12, -45, -56, -1, 16, 3, -11, 2
1503685040708,9, -18, -23, -15, -4, -10, -3, 2
1503685040731,9, 23, 13, -6, 1, 9, 2, 5
1503685040745,-3, 15, 10, 7, -8, -13, -5, -5
1503685040768,-3, 7, 10, 3, 2, -11, -6, -5
1503685040790,-3, 4, 2, 1, 19, 17, 1, 0
1503685040806,2, 8, 2, -12, -10, 11, 1, 3
1503685040828,2, -20, -32, -5, -15, -6, 2, -2
1503685040850,-1, 8, 6, 4, 0, 0, -5, -6
1503685040865,4, 8, 9, 2, -8, -4, 8, 9
1503685040888,0, 1, 4, 5, 8, -1, -3, -2
1503685040910,-4, 44, 32, -1, 3, 4, -6, -9
1503685040925,1, -19, -19, -7, -3, -9, 6, 6
1503685040947,3, -3, -20, -10, -10, -16, -14, 0
1503685040955,1, -6, -6, -3, 2, -5, -4, 3
1503685040977,-1, -5, -3, 8, 10, 3, 65, 5
1503685041000,-1, -15, -10, 0, -5, -9, -15, -15
1503685041014,2, -6, -3, -3, -5, -5, -15, 6
1503685041037,-3, 5, 0, 0, -2, 0, -19, -14
1503685041060,3, -3, -3, -4, -1, 3, 7, 6
1503685041075,15, 3, -2, -3, -3, -15, -44, -1
1503685041097,-24, -2, 1, 0, -1, 1, -25, -10
1503685041120,-3, 3, 6, 16, 18, 4, 9, 3
1503685041135,-14, -4, -1, -7, -11, -23, -5, -1
1503685041157,-46, -24, -9, -7, -8, -2, 14, -3
1503685041180,8, 11, 7, 4, 0, 32, 4, -3
1503685041195,15, 10, 3, 0, 1, 10, 10, -4
1503685041217,20, 4, -3, -9, -13, 4, 5, 3
1503685041240,12, 2, -3, -9, 0, -1, 7, 10
1503685041254,-1, 2, -5, -3, 1, -5, -5, 2
1503685041277,-15, -7, -1, 1, 2, -1, 13, 7
1503685041301,18, 7, 2, 2, 1, -1, 1, 15
1503685041314,-13, -7, -2, 1, 3, -9, 4, -13
1503685041337,5, 12, -3, 4, 5, 4, 1, 13
1503685041360,-20, 9, 20, 7, -5, -6, -17, -11
1503685041374,10, -5, -6, 0, 7, -3, 2, 1
1503685041397,-6, -11, -4, -2, 1, 0, -14, 10
1503685041420,6, 0, -2, -1, -5, -4, 4, -3
1503685041436,33, -5, -4, -1, -4, -1, 9, 11
1503685041457,5, 2, -2, -1, 2, 1, -3, 5
1503685041480,-25, -1, 4, 0, -3, -5, -12, -17
1503685041494,6, 0, -4, 13, 28, 7, 5, -5
1503685041517,7, 1, 2, -8, -14, -3, -5, -2
1503685041540,-25, 0, 7, -1, -6, -4, 3, -8
1503685041554,-4, 4, 6, 0, -1, -4, -10, -7
1503685041578,0, 5, -7, -3, -2, 1, 2, -5
1503685041600,10, 0, -6, -6, -6, -3, -2, -1
1503685041608,0, 1, -2, -2, -12, -3, -1, 3
1503685041630,0, 3, 0, 4, 3, -1, -5, 0
1503685041652,12, 3, 1, -2, -3, 2, 18, 14
1503685041667,4, 5, 7, 1, 2, 0, -2, -1
1503685041690,-7, -6, -3, -2, 1, -3, -16, -6
1503685041713,16, -2, -11, -4, 0, -1, -5, 5
1503685041727,19, 22, 13, 5, 1, -1, 3, 7
1503685041750,11, 2, 0, 3, 3, 4, 1, -4
1503685041772,4, 2, -2, -6, -2, -2, -2, -4
1503685041787,-8, 1, -4, -2, -1, 0, -3, -5
1503685041810,-16, -16, -2, -2, -3, -6, -6, -4
1503685041832,-5, -6, -7, -4, -1, 1, 3, 4
1503685041847,-20, -14, -3, -1, -1, -2, -4, -12
1503685041873,6, 4, 4, 3, 0, -1, 0, -1
1503685041892,4, 8, 3, -1, 0, 0, 1, -6
1503685041907,-7, 3, -2, 0, 0, 1, 1, 2
1503685041930,-3, -9, -5, 3, 6, 1, -3, 1
1503685041952,-2, 2, 4, -1, -4, -3, 1, 0
1503685041967,2, 12, 5, 9, 5, 4, -2, 1
1503685041990,-5, -11, -4, -9, -9, -3, 1, 7
1503685042012,-12, -14, 0, 6, 4, -1, 1, -3
1503685042027,4, 7, 6, -2, -7, -1, 2, 1
1503685042043,-1, -2, -2, -2, -8, -4, -2, -4
1503685042057,-5, 0, 7, 3, 0, 0, -6, -6
1503685042080,-30, -22, -11, -7, -2, -6, -10, -12
1503685042102,-1, 0, -2, 4, 8, 1, 2, 10
1503685042117,16, 14, -3, -1, 0, 2, 1, -1
1503685042141,-1, -4, 1, -5, -6, -2, -4, -2
1503685042162,-34, -32, -10, -1, -4, -4, -6, -12
1503685042178,0, -13, -5, -4, 0, 1, 5, 1
1503685042199,26, 21, 7, 0, -1, -4, -2, 4
1503685042222,-9, -3, 2, 5, 7, 3, 3, 0
1503685042237,-8, 4, 13, 8, 15, 8, 5, 0
1503685042260,-28, -10, -3, -2, -2, 2, 1, -7
1503685042282,0, 2, -3, -3, -2, 0, 1, 7
1503685042297,12, 4, 1, -4, -9, 0, 4, 1
1503685042320,0, 7, 8, 12, 10, 0, 0, 2
1503685042342,-16, -14, -6, 4, 6, 2, 2, -1
1503685042350,-14, -15, 0, -5, -7, 0, 2, -7
1503685042357,-18, 2, 8, 1, -6, -2, -6, -14
1503685042380,-7, 14, 22, 6, 0, 2, -2, 1
1503685042402,-10, -30, -14, -9, -3, -1, 0, 7
1503685042418,8, 0, 1, -3, -12, -1, -5, 1
1503685042439,11, 8, -5, -1, 6, -2, 2, 3
1503685042462,19, 9, -11, -7, -2, -3, -1, 4
1503685042477,-3, -7, -8, -7, -2, -4, -3, -9
1503685042499,-11, -9, -5, 0, 2, -1, -3, 1
1503685042515,-14, -12, -6, -6, -3, 0, -2, -3
1503685042530,-1, -10, -6, 7, 14, -1, -1, -5
1503685042552,0, -7, -2, 7, 22, 8, 0, -4
1503685042574,5, 1, -3, -6, -10, -5, -4, -4
1503685042590,19, 14, 3, 0, 0, -2, -8, -10
1503685042619,-11, -4, 3, 5, 8, 0, 6, 7
1503685042634,8, 5, 5, 6, 8, -2, 2, -3
1503685042650,-8, -5, -4, -10, -16, -6, -8, -1
1503685042672,12, 9, -4, -9, -17, -2, 0, -10
1503685042694,5, 2, 3, 0, -3, 4, 9, 7
1503685042711,-3, -3, -6, -7, -7, -1, -2, -4
1503685042732,1, 3, 2, -1, 3, -1, -16, -4
1503685042754,2, -7, -2, -4, -22, -4, 4, 18
1503685042770,-2, -1, 0, -1, -4, 0, 4, 6
1503685042792,-14, -13, -6, -3, 2, -1, 1, -1
1503685042815,14, 8, 3, -5, -20, -8, 5, 4
1503685042830,12, 7, 9, 0, -7, 0, 10, 30
1503685042852,-21, -10, -8, -4, 3, -10, -17, -68
1503685042883,-9, -11, -7, -6, -5, -7, 1, -18
1503685042904,15, 3, 4, 4, 8, 8, -7, 15
1503685042920,-11, -3, 0, 0, 0, 3, 17, 23
1503685042942,5, -2, -4, -2, 1, -3, -11, -15
1503685042964,5, 4, 2, 2, -5, -3, -3, -9
1503685042973,-3, -9, -13, -8, -5, -2, -9, -25
1503685042995,-11, -8, -10, -6, -4, -6, 0, -6
1503685043010,6, 3, -5, -6, -7, -3, 2, 13
1503685043032,7, 8, 7, 3, 3, 5, 8, 29
1503685043055,-10, -7, 0, 1, 0, -3, -4, -4
1503685043070,0, 2, 4, 3, 0, 2, 0, -6
1503685043092,14, 6, 6, 4, 2, 4, 8, 29
1503685043115,1, -9, -9, -7, -5, 1, 7, 1
1503685043137,-12, -26, -14, -4, -4, -3, -9, -17
1503685043152,-1, 0, -2, 1, 0, -1, 0, -14
1503685043174,4, 10, 6, -1, -5, -2, -6, -4
1503685043190,-14, -12, -12, -1, 3, -2, -7, -7
1503685043212,-9, -3, 3, 4, 1, 0, 4, -8
1503685043234,0, 23, 12, 3, 4, 1, 8, 3
1503685043251,3, -1, -3, -1, 2, 2, 5, 15
1503685043272,15, -1, -7, -5, -4, -3, -2, 16
1503685043294,-9, -11, 2, 2, 2, 0, -2, -6
1503685043310,1, 6, 12, 5, 1, 2, -4, -19
1503685043332,0, -4, -7, -8, -7, -5, -11, -9
1503685043354,1, -1, -3, -5, -3, -3, -1, -9
1503685043370,11, 3, -1, 0, -2, -3, -13, 10
1503685043392,4, 7, 4, 2, 2, 0, 8, -12
1503685043416,8, -5, -7, -3, -2, -2, -2, -3
1503685043437,-21, -2, 4, 1, 2, -1, -1, -24
1503685043453,4, -10, -10, -4, -3, -1, -3, 3
1503685043474,-5, -10, -4, -4, -3, 0, -1, 7
1503685043497,6, 5, 3, 2, 2, 1, 1, -12
1503685043512,-1, 8, 7, 7, 3, -1, -8, 15
1503685043534,-25, 24, 27, 14, 6, 3, 8, 12
1503685043557,17, -5, -14, -10, -6, -4, 3, 15
1503685043572,13, -8, -7, -5, -2, 1, 0, 11
1503685043595,2, -2, -2, 0, 2, -2, -5, -4
1503685043618,-20, -12, -4, -2, -2, -2, -9, -36
1503685043632,-1, -3, -2, -1, -1, -1, 8, 13
1503685043655,-2, 8, 9, 7, 4, 1, -3, -4
1503685043677,-5, 9, 1, -2, -3, -4, -2, -5
1503685043692,0, -5, -7, -2, -5, -2, -2, 0
1503685043714,-1, 1, 1, 0, -4, 2, 5, 7
1503685043737,5, -3, -5, -7, -3, -1, -4, 0
1503685043753,1, -4, -3, -2, -2, -1, 3, 4
1503685043774,-13, 3, 5, 1, 2, -2, -4, -13
1503685043797,2, -6, 0, 0, -1, 2, 0, -10
1503685043812,6, 1, 0, -2, -1, -2, -3, 5
1503685043834,0, -9, -5, -8, -10, -1, 4, 4
1503685043857,-5, 6, 5, -4, -5, -1, 1, -2
1503685043872,-4, -5, -3, 0, 2, -1, -1, -5
1503685043895,0, 11, 3, 2, 3, -1, -2, -1
1503685043917,-5, -4, 1, 4, 5, 3, -4, -3
1503685043932,5, -7, -9, -2, -1, -2, 7, -1
1503685043955,-6, -6, -1, 1, -2, -1, -4, -1
1503685043977,11, 7, 1, 1, 3, -1, 0, 7
1503685043993,5, 15, 4, -1, -2, -1, 5, 4
1503685044015,4, 1, -1, 0, 1, -1, -3, 1
1503685044037,2, -2, -2, 0, -1, 0, -6, -1
1503685044055,-1, 8, 1, 1, 1, 0, 0, -1
1503685044074,-10, -8, -1, 13, 25, 9, -3, -5
1503685044097,0, -7, -5, -10, -12, -4, -5, -7
1503685044112,-4, -8, -9, 4, 2, -1, 2, 3
1503685044134,2, -1, -1, 3, 0, 0, 0, -2
1503685044164,-4, -14, -17, -18, -15, -5, -2, 0
1503685044172,-3, -2, -1, -6, -5, -2, 2, -5
1503685044194,-8, 6, 9, 4, 3, 1, -4, -5
1503685044217,4, 3, 3, -5, -7, -3, 1, 1
1503685044232,-3, -7, -4, -3, -3, -2, 8, 0
1503685044255,5, 4, 7, -4, -3, -4, -3, 0
1503685044277,-3, -13, -3, 17, 5, 1, -1, 7
1503685044294,4, 10, 12, -1, 0, -1, -4, -2
1503685044314,-4, -2, -10, -8, -6, -3, 8, 4
1503685044337,-1, -2, -5, 2, 4, 1, -7, -10
1503685044360,1, -9, -3, 1, 2, 1, -2, -3
1503685044374,-8, -7, -2, -6, -4, -2, -4, -4
1503685044398,-6, -4, -7, -7, -5, -2, -1, -13
1503685044419,-2, -7, -11, -14, -11, -3, 3, 6
1503685044434,1, 9, 9, 2, 2, 1, 4, 0
1503685044457,1, -5, 1, 19, 16, 7, 3, 4
1503685044479,2, -11, -12, -8, -10, -3, -1, 7
1503685044494,0, 2, 0, 0, -2, -1, 1, 6
1503685044517,3, 4, 6, 7, 4, 2, -6, -2
1503685044539,-8, -2, -4, -8, -8, -5, -4, -11
1503685044554,10, 8, 4, 0, 6, -1, -3, -9
1503685044577,-5, 3, 4, -2, -6, -4, -2, -1
1503685044599,-3, 5, 1, 4, 6, 0, -1, 3
1503685044614,5, 10, 2, 0, 8, 1, -5, -6
1503685044637,0, -5, -5, -7, -8, -3, 1, 1
1503685044659,4, -3, -1, 16, 15, 1, -1, -1
1503685044674,-1, 2, 1, -4, -4, 0, 0, 2
1503685044704,-2, -3, 1, -5, -6, -2, -1, 0
1503685044719,-5, -13, -8, -4, 2, 1, -6, 1
1503685044734,0, 3, 0, -5, -9, -4, 2, 1
1503685044759,-3, -1, 7, 3, -2, 0, -1, 4
1503685044779,3, -3, -7, -5, -3, -4, -4, -3
1503685044796,1, 4, 5, 7, 2, 4, -2, 4
1503685044818,-3, -1, -8, -4, -1, -1, 0, -3
1503685044839,0, 9, -1, -1, 0, -2, 0, -1
1503685044854,0, -10, -9, -5, -4, -2, 0, -3
1503685044877,-1, 0, 4, 1, -3, 0, 4, 0
1503685044899,-1, -4, -4, -4, -2, -1, -2, -5
1503685044914,-1, 6, 5, -5, -9, -3, 0, 2
1503685044937,-2, 0, -2, -6, -10, -3, 1, 1
1503685044961,-1, -2, 1, 0, 6, 3, -1, -1
1503685044974,0, -2, -2, 1, -1, -1, -1, 0
1503685044989,0, -2, -3, -2, 1, -1, 3, -1
1503685045012,1, -1, -8, -7, -6, 0, 0, 0
1503685045028,0, 1, 3, 1, -2, -1, -3, -8
1503685045050,0, -1, -2, -1, -1, -1, -2, -1
1503685045072,-2, -2, 0, -5, -2, -2, -3, -2
1503685045087,-1, 4, 5, 6, 10, 2, 4, 2
1503685045110,0, 0, -1, -2, -3, -3, 2, 1
1503685045135,0, 2, 6, 2, -1, 3, 1, -4
1503685045147,-3, -4, -5, -3, -3, 1, -4, 0
1503685045170,1, 1, 1, 1, 6, -1, -1, 3
1503685045192,0, 2, -1, -3, -5, -1, -3, -2
1503685045214,-4, 0, 3, 2, -2, -1, 2, -3
1503685045230,-2, -2, -2, -3, -3, -1, -1, 0
1503685045238,-8, -7, -5, -3, -2, -2, -2, -1
1503685045259,4, 1, -2, 3, 3, 2, -1, -1
1503685045274,3, 0, 2, -2, -2, -2, -1, -3
1503685045297,3, 0, 0, -1, -1, 1, 0, 3
1503685045312,0, 2, 4, 0, -3, -1, 0, -2
1503685045330,2, 2, 3, 11, 18, 2, 2, -2
1503685045350,0, -1, -1, -3, -3, -2, -1, -2
1503685045373,0, -4, -6, -7, -10, -2, 1, 1
1503685045387,0, -1, -1, -1, -2, -2, -1, 1
1503685045410,-1, 0, 2, 0, -5, -1, -1, 0
1503685045439,-1, 0, -1, -6, -4, -2, -3, 0
1503685045447,0, -2, 0, 1, 0, -1, -2, -3
1503685045477,3, 1, 0, -1, 0, 3, -1, -2
1503685045492,-2, 2, 0, 2, 2, 2, -2, -3
1503685045507,-4, -2, -2, -1, -2, 1, 0, -1
1503685045535,0, -2, -3, -3, -4, 2, -1, -1
1503685045552,-2, -1, -2, -1, -3, -2, 0, -1
1503685045567,-1, -2, 0, -1, 1, -3, 4, 2
1503685045582,0, -1, -2, -2, -2, -2, -2, -5
1503685045601,-6, -7, -4, -2, 0, -1, -3, -5
1503685045619,0, -2, -3, -2, -2, -2, 1, -2
1503685045649,-1, 2, -1, -10, -14, -6, -2, 4
1503685045657,2, 1, -1, 0, 2, 0, -1, -3
1503685045674,0, -2, -2, -5, -6, -4, 0, 0
1503685045695,-2, 4, 3, 3, 0, -1, 0, -2
1503685045710,1, 0, 5, 2, 2, 1, 2, 2
1503685045733,-6, -6, -6, -3, -2, -2, -2, -2
1503685045754,0, 0, -2, -2, -4, -2, -1, -4
1503685045770,-2, 0, -1, -8, -8, -2, 2, -3
1503685045792,-1, -1, -1, -3, 2, 0, -2, 2
1503685045814,2, -1, -2, -6, -6, -4, 1, 1
1503685045830,-2, -8, -6, 0, -2, 0, -3, -5
1503685045852,-8, -8, -7, -4, -4, -2, -1, -2
1503685045876,-4, 0, 1, 0, -6, -1, -4, -6
1503685045890,0, 2, 4, 3, -2, -7, 0, 3
1503685045912,-1, -6, -4, 0, 0, -5, -9, -4
1503685045935,4, 8, 6, 3, 2, 1, -3, 3
1503685045950,-1, -1, 1, -2, 0, 5, -3, -7
1503685045972,0, 1, -1, 2, 2, 10, 8, -1
1503685045995,1, 3, 10, 3, 2, 7, 2, 2
1503685046010,-1, -4, -2, -1, 0, -8, -3, 0
1503685046034,3, 0, -5, 0, 0, -9, -2, 4
1503685046055,-2, 3, -1, 0, -1, -11, -3, 0
1503685046070,-2, 1, 3, -1, -2, -10, -3, 0
1503685046092,-2, -3, -9, -3, -5, -5, -3, -1
1503685046115,-1, -1, -1, -1, 0, 7, 4, -1
1503685046130,1, -4, -5, -4, -1, 9, 4, -3
1503685046153,-3, -7, -8, -3, -1, 8, 6, 1
1503685046175,3, 6, 2, 2, 2, 5, 2, 3
1503685046190,1, 3, 2, 1, 0, 0, -2, -1
1503685046212,-3, -3, -3, -3, -3, 2, 3, -4
1503685046238,-3, -4, 0, -1, 1, 3, 3, 1
1503685046250,1, -4, -2, -3, -1, -1, -5, -1
1503685046273,2, 1, 0, -1, -1, -13, -8, 1
1503685046295,3, 3, 3, 1, 0, -7, -1, 3
1503685046310,-4, -3, -3, 1, 1, 0, 3, -1
1503685046332,0, 6, 4, 0, 0, 5, 0, -4
1503685046354,-2, 11, 10, 2, -2, 3, -1, -3
1503685046372,-3, -7, -4, -1, -2, 0, 0, 2
1503685046392,-2, -6, -5, -2, -3, -2, -3, -6
1503685046414,0, -2, 1, -2, 1, 0, 1, 0
1503685046430,0, -2, -3, 0, -1, -2, -2, 0
1503685046452,-1, -4, -5, -4, -1, -4, -3, -2
1503685046474,1, 1, -3, 0, -1, -2, -3, -2
1503685046490,0, -1, -4, -1, -1, -2, -3, -1
1503685046512,-1, 2, 1, 0, -3, -1, 0, -6
1503685046519,-3, -3, -1, -1, 0, -1, -3, -2
1503685046542,-1, 4, -2, -1, -1, -1, 0, 0
1503685046564,2, -1, -3, -1, -1, 1, -1, -1
1503685046579,0, -2, 0, -1, -1, -1, -1, 1
1503685046602,-4, -5, -1, -1, 0, 2, 0, -2
1503685046624,0, 1, 0, 0, -1, -1, 0, 0
1503685046639,-4, -4, -1, -2, -1, -2, 2, -1
1503685046662,-3, 2, -2, -1, -3, -2, -1, -2
1503685046684,2, 2, 2, 1, -2, -3, -2, 1
1503685046699,0, -1, -2, 0, -1, -2, -5, -2
1503685046722,0, -3, -2, -2, 0, -1, 1, 0
1503685046744,0, 1, 2, -1, -2, -1, -3, -2
1503685046759,-1, -7, -7, -3, -1, -2, 1, 0
1503685046782,-5, -3, -2, 1, 0, 0, -1, -3
1503685046806,2, -1, -1, -2, 1, 0, 0, 2
1503685046813,0, 3, 5, 2, 0, 0, 0, 1
1503685046834,-3, -6, -8, -4, -2, -3, 0, -8
1503685046850,1, -3, -2, -2, 1, -2, -3, -2
1503685046874,0, 0, -1, 1, 0, -2, -2, -1
1503685046901,-1, 1, 2, 1, -1, 1, -1, 1
1503685046910,-3, 2, -1, -1, -1, -2, -5, -8
1503685046932,1, -2, -3, -1, -4, -1, 0, 4
1503685046954,-2, -2, -2, -1, -1, 0, -1, 0
1503685046970,-1, -1, -1, 1, 1, 0, 0, 1
1503685046992,-3, 1, 1, 0, 0, 0, -4, -1
1503685047014,1, 2, 3, 0, -1, -1, 2, 2
1503685047030,1, 5, 4, 1, 1, -1, -4, -3
1503685047052,0, -3, -4, 0, -2, -1, 5, 1
1503685047075,-2, 0, 0, -2, -1, -3, 0, -4
1503685047090,-1, 1, 0, -1, 0, 1, -1, 1
1503685047112,1, -2, -5, -2, 0, 0, -1, 0
1503685047134,-1, 0, 1, -2, 0, -1, 0, 0
1503685047157,-1, -2, -2, -2, -2, -3, -2, -6
1503685047175,-2, -4, 0, -2, -1, -1, -3, 2
1503685047194,0, 0, 2, 6, 4, 1, 2, 1
1503685047217,0, -5, -3, -2, -8, -5, -3, 8
1503685047232,-2, 1, 1, -6, -6, -2, -2, -2
1503685047254,-1, 1, -1, 3, 3, 4, -3, -5
1503685047277,1, 1, -1, -2, 0, 0, 1, 3
1503685047292,-2, 2, 0, -3, 2, 0, 2, -1
1503685047314,-1, 1, 1, 0, -1, 0, 2, 0
1503685047336,1, -9, -6, -1, -1, 2, 1, -1
1503685047352,-1, -1, 2, -1, -1, -2, -6, 0
1503685047377,-4, -3, -1, 0, 0, -3, -1, -4
1503685047397,-3, 1, 0, -2, -2, -4, -1, -2
1503685047412,-2, -4, -5, -3, -2, -3, -7, -9
1503685047435,0, -2, 1, 1, 1, -2, 6, 2
1503685047457,4, -2, -2, 1, 0, 0, 5, 5
1503685047472,0, -1, 0, -1, 0, 1, 1, 1
1503685047495,2, 5, 2, 1, 1, 1, 4, -1
1503685047517,2, -1, -2, -4, -2, 0, 0, 1
1503685047532,0, -3, -2, 1, -1, -3, -4, -2
1503685047555,0, -1, -1, 0, 0, 0, -1, -3
1503685047579,-2, 0, -1, -1, 0, 0, -3, -5
1503685047592,-4, -2, -1, 1, -1, -1, -5, 0
1503685047614,0, -1, 2, -3, 0, -1, -2, -1
1503685047637,-2, 0, 1, -1, -1, -2, -3, -4
1503685047652,-4, -3, 0, 0, -1, -2, -2, -1
1503685047674,1, 3, 0, -2, -1, 2, -2, -4
1503685047696,2, 1, -3, -2, -2, 0, 2, 3
1503685047713,-3, -3, 0, -2, -1, -2, -1, -5
1503685047734,0, -1, -2, -1, 1, 0, 0, 1
1503685047757,-3, -5, -2, -1, -2, -1, 0, 2
1503685047772,-2, 1, 2, -1, -1, 0, 0, 2
1503685047794,-1, -1, -2, -2, -1, 2, 2, -1
1503685047801,-1, -2, 0, 0, -1, -1, 0, -5
1503685047824,0, -4, -4, -1, -2, 1, 2, 3
1503685047847,-1, -2, -2, 0, 3, 0, 1, -2
1503685047861,0, -2, -3, -1, -2, -2, -1, 0
1503685047885,0, -3, -1, -2, -1, -1, 0, 0
1503685047907,-2, 2, 0, -1, -1, -1, -2, -4
1503685047922,-4, -1, -2, 0, 0, -2, -3, -7
1503685047944,1, -1, 0, -1, 1, -2, -1, 0
1503685047967,-2, -2, -1, -2, -3, 0, -2, -2
1503685047982,0, -2, 0, 0, -1, -1, 0, -2
1503685048005,-3, -1, -1, -3, -3, -1, -2, -1
1503685048027,-7, -8, -1, -2, -1, -1, -1, -1
1503685048042,1, -1, -3, 0, -2, -3, -3, -3
1503685048064,0, -1, 1, -1, -1, 0, 1, 4
1503685048087,0, 0, -1, -1, -1, -2, 0, -1
1503685048108,-2, -7, -3, -1, -2, -1, 0, 0
1503685048125,9, 5, 0, 2, 1, 1, 0, 2
1503685048147,2, 7, 1, 3, 5, 3, -1, 1
1503685048168,-10, -3, -2, -6, -4, 0, -1, -1
1503685048184,2, 0, -1, 1, 2, 2, 1, 0
1503685048207,3, 2, 1, 1, 0, -1, 0, 0
1503685048228,-2, -2, 1, 6, 2, -2, 0, 0
1503685048244,1, 2, 3, 3, 3, 3, 2, -1
1503685048266,2, 2, 0, 1, -2, 0, 1, -1
1503685048288,-6, -5, -1, -3, -4, -2, -3, -2
1503685048304,0, -2, -5, -12, -8, -2, -1, -1
1503685048327,-7, -6, -4, -2, 2, 9, 2, -2
1503685048351,-3, -3, -1, -2, -1, 18, 3, 1
1503685048363,2, 0, -1, -4, -6, 0, 1, 3
1503685048379,-3, -3, -2, -8, -10, -10, -5, 0
1503685048395,-8, -3, 0, 5, 8, -1, 1, -1
1503685048418,2, -1, -4, -11, -14, -12, 0, 2
1503685048439,4, 4, 0, -6, -8, -10, -4, -4
1503685048455,-9, -4, 2, 25, 9, -2, 0, 0
1503685048477,0, -3, -3, -8, 1, -2, 3, 0
1503685048499,-9, -8, -4, -6, 2, 3, 0, -2
1503685048507,-2, -1, 3, 2, -3, -3, 1, 3
1503685048528,7, 1, -2, -3, 1, 1, -1, 1
1503685048536,-1, -3, -3, -7, -5, -1, -1, -1
1503685048560,-1, 1, 0, -2, 4, -3, -1, -2
1503685048575,-10, 3, 1, -1, -1, 1, 0, -1
1503685048597,13, -1, -3, -4, 0, 1, -2, 0
1503685048619,-2, -10, -6, 1, -2, 0, -4, -3
1503685048635,-3, -1, 0, 3, -2, 1, 0, -1
1503685048657,-16, -18, -4, -9, -8, -4, -2, -1
1503685048664,0, 1, 0, 2, 8, 3, 0, -2
1503685048687,-4, 3, 0, -3, -2, -5, -4, -14
1503685048709,-2, 2, 0, 0, -4, 1, 0, 1
1503685048725,0, -8, -8, -1, -5, -4, -5, -3
1503685048747,-5, -9, -2, 1, 1, 1, 3, -7
1503685048769,3, -2, -2, -6, -8, -3, 0, -1
1503685048787,8, 10, 6, 7, 4, -2, -2, 5
1503685048806,0, 3, -4, 0, -1, -2, -4, 0
1503685048829,-2, -2, 2, 3, 2, 2, -10, -1
1503685048844,2, 3, 4, -1, -4, 1, -1, -4
1503685048866,-2, 5, 10, 3, 7, 1, 2, 1
1503685048889,2, -9, -7, -1, 6, 2, 1, -3
1503685048905,-28, -8, -5, -6, -3, -5, -2, -7
1503685048927,0, -4, -9, -4, 0, -1, -1, -17
1503685048935,7, 9, 7, -3, -3, -2, 0, 1
1503685048957,9, 2, 2, 1, 0, 2, -1, -5
1503685048979,5, 7, 0, 7, 13, 3, -1, -4
1503685048995,-11, -9, -1, 1, -7, -4, -2, -3
1503685049016,6, -7, -12, -12, -12, -4, -7, -4
1503685049031,10, 15, 9, -3, -8, -4, 9, 32
1503685049046,-18, -3, -6, -5, -1, -4, -10, -22
1503685049068,2, -6, -2, 4, 7, 0, 5, 12
1503685049094,0, -3, -1, 3, 7, 3, -6, -4
1503685049107,22, 10, -3, 1, -6, -2, -1, -1
1503685049129,-21, -9, -2, -12, -7, -4, 4, 3
1503685049151,3, -7, -5, -5, 1, 4, -1, -16
1503685049167,12, 0, -1, 0, -1, 0, -2, 1
1503685049182,-15, -12, -4, 3, 3, -2, -11, -20
1503685049197,10, 1, -6, -1, 2, 0, 6, 6
1503685049219,13, 5, 0, 3, 15, 8, 7, 19
1503685049241,2, -2, -2, -7, -9, -6, 0, 5
1503685049259,-25, -9, -10, -5, -2, 1, -3, -8
1503685049279,4, 1, -6, -2, 3, 2, 2, -19
1503685049301,-2, 7, 7, 0, -4, -8, -6, -10
1503685049318,-1, 11, 8, -1, -5, -3, 0, 7
1503685049339,-8, 5, 15, 12, 4, -7, -13, -10
1503685049365,8, 16, 6, -3, -7, -1, -2, -2
1503685049376,-4, 8, 20, 6, 3, 2, 3, 3
1503685049399,12, -7, -11, -2, -2, 0, 0, 6
1503685049406,-6, -1, 9, 4, 0, 2, 10, 3
1503685049429,-7, -10, 1, -5, -6, -3, 2, 1
1503685049451,-35, 10, 28, 7, 2, -1, -1, -6
1503685049467,-9, -14, -12, 6, 30, 7, -3, 4
1503685049488,5, -6, -4, -6, -12, -3, -8, -6
1503685049511,0, 7, 3, 6, -4, -6, -11, -5
1503685049527,10, 6, -6, -10, -12, -4, 0, 6
1503685049548,12, -8, -8, -4, -3, 0, -4, -6
1503685049571,-35, -27, -16, -9, -11, -4, 1, -6
1503685049596,34, 69, 58, 12, 3, 0, 3, -4
1503685049608,6, -7, -9, -2, -10, 2, 2, 12
1503685049631,24, 13, 5, 0, 1, -2, 0, 14
1503685049646,17, 21, 18, 4, -4, 1, 5, 7
1503685049668,-12, -18, -16, -7, 7, 2, -4, -28
1503685049694,-8, -16, -9, -2, -4, -2, 5, 21
1503685049706,-25, 9, 10, 1, 3, 1, 0, -13
1503685049729,0, -13, -11, -3, -7, -5, 1, 6
1503685049751,-4, -14, -13, -5, -7, -8, -4, -28
1503685049767,2, 7, 1, -3, 3, 6, 4, 1
1503685049789,-9, -19, -2, 9, 13, 0, -4, 3
1503685049811,-12, -14, -11, -11, -13, -2, 0, -3
1503685049834,11, 4, 0, 0, 1, -2, 1, 6
1503685049848,4, -7, -14, -22, -26, -7, -10, -5
1503685049871,14, 15, 12, 44, 85, 22, 3, 6
1503685049887,7, 11, 7, 4, -14, -7, 3, 2
1503685049908,1, -2, -1, -3, -17, -2, 15, 14
1503685049931,-28, -13, -3, -12, -14, -4, -5, 0
1503685049953,11, 6, -3, -2, -2, -3, -6, -17
1503685049968,-34, -21, -6, -4, 0, 2, 3, -1
1503685049991,6, -1, -6, -14, -19, -8, -3, 5
1503685050013,1, 0, -1, -1, 4, 6, -5, -12
1503685050030,5, 3, -6, -8, -16, -4, -8, 6
1503685050051,27, 17, 10, 5, 6, 4, -12, 14
1503685050073,-12, -20, -14, -8, 0, 2, 0, -7
1503685050089,13, 6, -1, 0, -7, -7, -3, -6
1503685050111,9, 0, -11, -15, -10, -3, -3, -6
1503685050133,-14, 18, 24, 13, 9, -2, -4, -3
1503685050149,-14, -6, -6, -1, 3, -3, -2, -3
1503685050171,-20, -19, -8, 2, 2, -1, 5, -10
1503685050193,8, -4, -3, 4, 7, 2, -5, 8
1503685050209,10, 9, 3, -2, -2, -2, -5, -3
1503685050231,9, 1, -4, -1, 1, 0, 3, -2
1503685050240,11, 15, 17, 1, -8, -6, -4, 5
1503685050266,-12, 3, 9, -1, -6, -4, -1, 1
1503685050284,-29, -3, 6, 7, 8, 2, -8, -13
1503685050299,30, 16, 10, -1, -3, -1, 4, 10
1503685050322,-23, -9, -5, -2, -1, -4, -5, -21
1503685050344,0, 10, 7, 2, 3, 2, -2, -5
1503685050359,8, 4, 3, 5, 7, 2, 5, 1
1503685050382,4, -20, -21, -2, 3, 2, -3, 7
1503685050411,-21, -3, -13, -4, -4, -1, 2, -3
1503685050419,20, 3, 4, -1, -3, -1, 3, 5
1503685050441,12, -8, -4, -1, 0, 2, 6, 37
1503685050465,-9, -8, -19, -9, -4, -2, -1, -14
1503685050472,0, -3, -8, -1, 1, 3, -3, -6
1503685050494,19, 19, 5, 1, 1, 2, 0, -7
1503685050501,5, 4, 6, 3, 3, 2, 10, 22
1503685050524,7, -6, -8, -5, -1, -3, -4, 36
1503685050539,-14, 6, 11, 5, 3, 2, 1, -5
1503685050561,12, 15, 6, 2, -1, 0, 0, -11
1503685050577,-45, -13, -1, -1, -1, -3, -7, -19
1503685050601,-19, 1, 1, -2, -3, -3, -8, -32
1503685050622,-29, -6, 1, -1, 0, -4, -4, -30
1503685050644,18, 12, 3, -2, -2, 2, 0, 9
1503685050659,-12, -3, 1, 3, 4, 1, 3, 2
1503685050681,5, 1, -2, -2, -1, 2, 5, 1
1503685050705,-1, 6, 7, 1, -1, 0, -3, 5
1503685050719,6, 4, 5, 3, 1, 1, 1, -7
1503685050742,12, -6, -12, -3, -2, -2, -6, 17
1503685050764,-1, -8, -5, -4, -2, -1, 1, 2
1503685050779,17, 11, 3, 4, 1, -1, -1, -4
1503685050802,-10, -15, -11, -3, 0, 1, 6, -8
1503685050824,18, 1, 2, 0, -2, 0, 1, 2
1503685050839,2, 11, 3, 0, -1, -1, -1, 5
1503685050862,6, 1, 2, 0, -2, -1, 1, 5
1503685050884,0, -1, 4, 5, 8, 0, -1, -1
1503685050907,-9, -5, -7, 0, 8, 2, -4, -3
1503685050921,-8, -3, -1, -3, -5, -1, 5, 2
1503685050944,-7, 4, 8, 1, -3, -2, 0, 2
1503685050968,2, -9, -15, -5, -2, -1, 3, 4
1503685050981,7, 11, 7, 0, -1, 1, -2, 5
1503685051005,6, -1, -4, -2, -4, -2, 0, -7
1503685051026,4, -3, -5, -10, -14, -3, 0, 0
1503685051042,-3, -7, -6, -5, -5, -2, -5, -1
1503685051064,-14, -7, 1, 2, 0, -1, 2, -3
1503685051087,-1, -4, -3, -2, 0, -1, 1, -4
1503685051102,22, -2, -3, -3, -1, 1, 3, 2
1503685051117,5, -4, -6, -4, 0, 0, -1, 2
1503685051132,3, -3, 1, 3, 1, -2, -1, -2
1503685051155,7, -1, -7, -9, -8, 0, 5, 6
1503685051177,0, -8, -7, -5, -2, 0, -1, -2
1503685051192,0, -5, -5, -2, -3, -3, 2, 0
1503685051214,4, -4, 4, 7, 5, 3, 2, 0
1503685051246,-2, -5, -3, -1, -1, 0, 0, 2
1503685051266,3, 2, 0, 3, 3, -1, -2, -4
1503685051275,5, -8, -9, -4, 0, 0, 0, 2
1503685051297,6, 1, 1, 1, 3, 2, 0, -4
1503685051313,-12, -8, -7, -5, -6, 0, 0, 1
1503685051334,-11, 23, 13, 0, 3, 0, 5, 1
1503685051357,-13, -29, -18, -6, -4, -3, -2, -8
1503685051372,9, -4, -4, -4, -3, -3, 0, 8
1503685051387,-5, -11, -2, 2, 4, 3, 4, -3
1503685051401,5, 4, -1, -2, -3, -1, 0, 7
1503685051424,10, 0, -4, -9, -6, -1, -2, -3
1503685051447,4, -7, -5, -1, -1, -2, 0, -1
1503685051461,-7, -2, -1, 3, 3, 1, 0, -5
1503685051484,-7, 0, -1, 0, -1, 0, -1, 0
1503685051506,11, 4, 6, 14, 10, 1, -3, 2
1503685051523,-9, 4, -5, -18, -16, -6, -1, 0
1503685051545,4, 9, 11, 0, -2, -1, -1, 1
1503685051567,-10, -9, -4, 2, 3, 3, 2, 1
1503685051577,6, -17, -9, 5, 5, 1, -1, -1
1503685051597,0, -1, -9, -1, 0, 0, -2, -4
1503685051612,-4, -3, -2, 1, 3, -2, 2, 2
1503685051634,1, 22, 15, 4, 2, -2, -6, -6
1503685051642,-3, -20, -8, -2, -2, 1, -1, 1
1503685051664,-3, -1, 0, -1, -1, 0, -2, -7
1503685051686,15, 9, 0, 0, 0, -2, -7, 11
1503685051701,-2, 0, 1, 1, 9, 4, 2, -1
1503685051724,-3, 2, 3, -2, -1, -1, -3, -4
1503685051746,-7, -7, -6, -8, -8, -3, 1, 5
1503685051761,-1, 1, 0, -3, -2, -3, 0, -3
1503685051784,1, 12, 10, 3, -3, -2, 1, 1
1503685051808,-3, -6, -7, -4, -4, -2, -5, -10
1503685051829,0, 6, 6, 4, 2, -2, -2, 0
1503685051859,-6, 0, 1, 1, 3, 1, 2, -5
1503685051866,-3, -4, -4, -1, 1, -1, -3, -5
1503685051889,-4, -6, -2, -2, -1, 0, -3, -1
1503685051904,0, -4, -4, -2, -8, -1, 1, 3
1503685051926,-2, -4, 1, 1, 0, 1, 0, 0
1503685051950,-3, -2, -4, -2, -3, -1, -3, -5
1503685051965,-3, -1, 3, 1, 4, 0, -1, -3
1503685051986,-2, -1, -1, -8, -15, -6, -2, 0
1503685051994,0, -3, -2, -2, 0, 0, -2, -1
1503685052017,-2, -3, -2, -5, -6, -2, -2, 2
1503685052039,6, -3, -6, -6, -2, -2, -1, 2
1503685052054,-1, -1, -1, -3, -3, -1, 1, 0
1503685052077,-8, -7, -5, -2, -4, -4, -2, -7
1503685052099,0, 0, -3, 2, 4, 1, 1, 1
1503685052115,-4, 0, 8, 1, -2, 0, 0, -2
1503685052137,0, -1, -3, -2, -3, -1, -1, 0
1503685052159,2, 1, 1, 1, 4, 1, 3, 1
1503685052177,0, 3, 0, 10, 1, -1, -3, 2
1503685052197,1, -1, 0, -5, -4, -8, -2, -1
1503685052219,-2, 0, 0, -4, -4, -7, -12, -3
1503685052234,-3, -6, -7, 2, 3, 1, -10, -8
1503685052257,-1, 4, 4, 1, -1, 6, 5, 0
1503685052279,-3, -4, -9, -2, 0, 7, 4, -2
1503685052294,1, 4, 4, 2, 4, 8, 5, 3
1503685052311,-5, 1, 4, -1, -2, -6, 0, 1
1503685052324,5, 15, 8, -3, -4, -7, -1, -1
1503685052347,-2, -5, -3, -3, -1, -6, -4, -4
1503685052369,-2, -5, -5, -1, -3, 0, -1, 0
1503685052384,-3, -2, 1, 1, -2, -1, 0, -3
1503685052406,-1, -1, -3, 2, 2, 2, 1, -2
1503685052429,6, 7, 1, 8, 6, 1, -1, 2
1503685052445,-2, -5, -6, -7, -3, -2, 2, -3
1503685052466,5, 7, 5, 1, 0, -7, -3, 3
1503685052489,-8, 1, 1, 6, -4, -1, -2, -5
1503685052504,-1, -2, -3, -5, -1, 0, -1, -1
1503685052527,-2, -7, -3, -2, -2, 0, 0, 1
1503685052549,-6, 0, -1, -3, -5, 0, 0, -1
1503685052557,-5, -5, -3, 1, 1, -3, -5, -6
1503685052580,2, 6, 3, 2, -1, 2, 2, 5
1503685052594,-4, -3, -7, 1, 6, 2, -3, -4
1503685052617,0, 3, -4, -2, -2, -2, 3, 2
1503685052647,-5, -7, -4, -2, -4, -3, 0, -2
1503685052669,-2, -2, 2, -1, 1, 0, -7, -11
1503685052684,0, 0, -3, -3, -1, -2, 1, -2
1503685052706,-7, -7, 4, 3, 0, 0, 0, 3
1503685052729,-3, 1, 1, 1, 0, 0, -1, -1
1503685052744,-4, -2, -6, 6, 9, 3, 2, 2
1503685052766,5, 4, 5, -2, -10, -1, 1, 2
1503685052790,0, 2, 0, -2, 1, -1, -1, -2
1503685052811,8, 1, -2, -4, -3, -3, -1, -2
1503685052826,-3, -3, -3, 3, 1, -1, -1, 0
1503685052849,-13, -8, 2, -1, 2, 0, -2, -5
1503685052872,-1, 0, -2, -1, 0, 0, 1, 4
1503685052886,7, 6, -2, -4, -3, 0, -1, -1
1503685052909,-3, 2, 2, 0, 0, -2, 1, 1
1503685052931,-1, 1, 6, 7, 2, 1, -1, 3
1503685052947,9, 0, -7, -7, 1, -2, -1, -3
1503685052969,-4, -4, -3, -2, -4, -1, -2, -3
1503685052992,-7, -4, 2, -1, -1, -1, 1, 1
1503685053006,2, -6, -5, -2, -3, -2, -3, -6
1503685053029,-1, 0, 1, 4, 2, 0, -3, -5
1503685053052,1, 5, -1, -4, -2, 0, 1, 5
1503685053066,0, 2, 0, 4, 1, -2, 0, 1
1503685053089,-1, -1, 0, 2, -3, -2, -1, -2
1503685053111,8, -4, -7, -8, -6, 0, 1, 2
1503685053119,3, -1, -3, -5, -3, -2, -2, 0
1503685053141,3, 3, 0, -2, -2, -1, -1, 0
1503685053164,6, 4, -1, -1, -2, -1, 1, 0
1503685053179,3, 1, -2, -5, -4, -3, 0, -1
1503685053188,-3, 4, 1, 0, -2, -1, 0, 2
1503685053209,-1, -8, -6, -2, 1, -1, -3, -4
1503685053231,-2, 4, 3, 0, -3, 2, 0, -2
1503685053246,1, -6, -5, -2, 0, -2, 0, 10
1503685053269,0, 3, -1, 0, 2, -1, -3, -6
1503685053291,0, -5, -6, -6, -8, -1, 1, 1
1503685053306,-2, 2, 1, -5, -2, -2, -2, -5
1503685053329,3, -1, 0, 0, -1, 2, -1, -5
1503685053355,-3, -3, 2, -1, -3, -1, -2, -4
1503685053373,1, 0, -2, 1, 1, 0, 1, 5
1503685053392,-1, -2, -2, -6, -3, -1, -3, 4
1503685053411,-5, -2, 4, -1, -1, 0, -2, -3
1503685053421,0, 6, 2, 0, -1, 2, 0, -1
1503685053442,-1, -6, -5, 0, -2, -1, -1, -1
1503685053459,3, 1, 1, -1, 3, 0, 0, -4
1503685053479,-7, -4, -2, -2, -1, -2, -2, -2
1503685053501,6, 12, 8, 2, 0, -1, -3, 3
1503685053519,-1, -6, -2, 1, 1, 0, 0, 2
1503685053539,18, -5, -6, -9, -8, -4, -2, 0
1503685053562,-6, 3, -1, -3, -3, -1, -2, 2
1503685053577,-5, 0, -2, 0, 0, 0, 1, -4
1503685053599,-4, -4, -1, 1, -1, 0, -1, 0
1503685053622,-1, -3, -1, 0, 2, 0, 0, -2
1503685053637,-1, -1, -1, 1, 1, -1, -1, 2
1503685053659,-6, -1, 3, 2, 2, -1, -1, -3
1503685053681,-1, -2, -1, -2, -3, 0, 0, 0
1503685053704,1, -1, 0, -3, -1, 0, 0, -1
1503685053722,-5, -5, -4, -3, -1, -1, -1, -3
1503685053741,-2, -2, -1, -2, -3, -1, -1, -1
1503685053765,-1, 6, 2, -1, 0, -2, -2, -3
1503685053779,2, -5, -3, 0, 3, 1, 0, 2
1503685053801,-3, -3, -1, 0, -1, 0, -1, 9
1503685053824,4, 5, 0, -1, -3, -1, -1, -2
1503685053839,1, -7, -5, -3, 0, -2, -2, -2
1503685053861,-5, -2, 1, 0, 2, -1, -2, -3
1503685053884,-1, -2, -3, -3, -2, -1, 1, 1
1503685053899,-3, -6, -4, -2, -1, -4, -3, -5
1503685053922,0, 2, 2, 4, 0, -1, -3, -4
1503685053944,-1, 1, 1, 0, 1, 2, 0, -1
1503685053959,-7, 4, 1, 1, 2, 1, 0, 0
1503685053981,0, 3, 3, -2, -2, -3, -5, -4
1503685054004,-3, -4, -1, 4, 0, 0, 2, -2
1503685054019,-12, -7, -3, 0, 1, 1, 2, 6
1503685054041,11, 4, 0, -2, -2, 0, 3, 5
1503685054065,12, 2, -4, -5, -3, -2, -2, -7
1503685054079,-1, 5, 2, 0, -1, -3, 1, -3
1503685054101,1, 2, -2, 1, -2, -1, -2, 1
1503685054127,-10, -8, 6, -2, -3, -1, -1, -4
1503685054139,-1, -2, -6, -4, -1, -1, -3, -3
1503685054162,-9, -8, -1, 0, -1, 0, -1, 2
1503685054184,3, 1, -1, -1, 1, -1, -1, -1
1503685054199,2, 0, -1, 7, 5, 2, -3, -1
1503685054233,0, -1, 2, 1, 1, 0, -1, -2
1503685054251,2, -1, -3, -2, -2, 0, 1, 0
1503685054273,-4, 0, -1, 0, 5, -2, -1, -1
1503685054289,-3, -1, 1, 0, -2, 1, 1, -4
1503685054311,-4, 4, 3, 0, -1, -2, 0, -3
1503685054333,2, -3, -5, 0, -3, 0, -1, 5
1503685054349,-1, 0, 3, -1, -2, -2, -1, -3
1503685054371,3, 0, -1, -3, -6, 0, -2, 1
1503685054393,-5, -2, -2, -5, 7, 2, 2, -1
1503685054416,-1, 0, -3, 9, 5, 1, -2, 0
1503685054438,-5, -4, -3, -4, -9, -3, 0, 0
1503685054453,7, 2, 1, -4, 1, 0, 2, 2
1503685054469,-6, -9, -7, -8, -11, -4, -1, 0
1503685054493,4, -1, 0, 3, -2, -6, -4, -3
1503685054513,-6, -3, -2, -10, -2, 1, 1, -1
1503685054529,-4, 1, 2, 3, 2, 6, -1, 0
1503685054551,11, 7, 4, 9, 6, -1, -5, 2
1503685054573,-9, -3, 0, -1, 1, 0, 1, -1
1503685054590,3, 2, 0, -3, -4, -4, -1, -3
1503685054611,1, -9, -8, -4, -2, -3, -3, -3
1503685054633,-10, -7, -3, -5, -2, -1, -2, -2
1503685054641,-6, -4, -2, 2, -9, -3, -2, -1
1503685054664,13, 8, 1, -6, -6, -2, -2, -1
1503685054686,0, 6, 1, -1, 5, 2, 1, -3
1503685054701,3, 0, -1, -3, -1, 0, -3, -2
1503685054734,-5, 2, -1, 3, 0, -1, -3, -4
1503685054753,6, -1, 0, -1, -8, 0, 1, 2
1503685054776,12, 1, -2, 0, 1, 5, 1, 1
1503685054791,13, 8, 3, 5, 3, 0, 0, 2
1503685054813,-15, -6, 1, -3, -6, -2, 1, -1
1503685054836,9, 4, 1, -1, -4, -1, -2, -5
1503685054851,24, 12, 5, 2, -1, -3, -5, -5
1503685054873,-6, -2, -5, -6, -5, -3, -5, 2
1503685054896,-17, -13, -1, 2, 6, 2, 0, -1
1503685054911,-5, -6, -4, -1, -1, -2, -3, 12
1503685054934,-12, -22, 0, -2, 1, 1, 3, -1
1503685054955,39, 14, 4, -1, -1, -4, -1, 11
1503685054967,-12, 0, -3, 0, -3, 4, 5, -6
1503685054986,-2, 3, 1, 3, 3, -5, 0, 3
1503685055002,32, 18, 3, 3, 4, 1, -2, 5
1503685055024,2, -9, -5, -3, -3, -3, -4, -4
1503685055046,33, 10, 3, -1, 2, -2, -2, 11
1503685055064,-8, -6, -6, 2, 11, -3, -2, -15
1503685055084,-14, -1, 3, -2, -4, 1, 1, 1
1503685055106,-9, -5, -2, 1, -2, 0, -1, -6
1503685055123,-5, -7, -5, -2, 6, -2, -4, -5
1503685055144,-3, -4, -4, -7, -9, -3, -2, -2
1503685055167,-1, 0, 3, 4, 4, 3, 1, 0
1503685055181,-7, -2, -3, -6, -4, -1, 3, -4
1503685055206,12, 26, 1, -1, -5, -5, -4, 3
1503685055226,7, 5, 5, -4, -12, -3, -5, 3
1503685055241,-25, -20, -5, 1, 6, 1, -4, -7
1503685055267,-20, -10, -6, -3, -3, 10, 2, -10
1503685055286,16, 14, 4, -8, -15, -7, 0, -6
1503685055303,11, -9, -2, 1, -1, -3, -10, 11
1503685055324,4, -4, -2, 1, 3, -4, 2, 1
1503685055346,-12, -5, -7, 0, 4, 0, 0, -14
1503685055361,-16, -3, 1, 0, 0, -3, 2, -3
1503685055384,13, 9, 5, 12, 22, 2, 2, 10
1503685055406,-14, -9, -2, -5, -6, -1, -3, -3
1503685055421,-18, -7, 0, 10, 16, 5, -2, -2
1503685055444,18, 2, -7, -9, -13, -8, 0, 12
1503685055468,-2, 0, 0, 4, 6, 6, -2, -9
1503685055481,-27, -26, -6, -4, -10, 8, 11, -3
1503685055505,-12, 18, 30, 14, 3, 0, 0, 0
1503685055526,11, -7, -9, -12, -8, -8, -31, -24
1503685055549,25, 5, -3, -5, -22, -13, 10, 17
1503685055564,-15, 1, -1, -18, -27, -10, 3, -8
1503685055586,-13, -7, -6, 1, -4, 8, -2, -1
1503685055610,22, 7, 4, -3, -9, 0, -1, 29
1503685055617,-28, 2, -3, 7, 19, 5, -16, -18
1503685055640,7, -2, -5, -18, -17, 1, 17, 19
1503685055654,14, 9, -2, 6, 11, 2, 10, 11
1503685055684,28, 17, 16, 15, 7, 4, -6, 19
1503685055702,23, 15, 24, 8, 4, -3, -6, 10
1503685055722,-20, -16, -11, -3, 5, 0, -1, -9
1503685055737,15, 5, 5, 2, -10, -1, 2, 13
1503685055759,-17, -3, 5, -5, -5, -8, -5, -14
1503685055767,-5, -12, -6, 2, 2, 0, 7, 25
1503685055789,-16, -4, -8, -12, -15, -2, 9, -3
1503685055804,15, 13, 5, 6, -4, -1, 1, 16
1503685055826,-35, -12, -1, 3, 5, 2, -1, -24
1503685055849,26, 4, -10, -8, -5, -3, 10, 0
1503685055864,-13, -23, -6, -2, 2, 0, 1, -14
1503685055880,11, 9, 8, 9, 4, 1, -6, 4
1503685055905,1, -11, -6, 0, -4, 0, -4, 13
1503685055917,-11, -2, 0, 2, 1, 2, 4, 12
1503685055943,-14, 2, 7, 3, 0, -2, 1, -8
1503685055962,-29, -16, -3, -6, -4, -7, -14, -14
1503685055971,5, -4, -3, 6, 8, 2, -7, 5
1503685055984,-38, -24, 2, -5, -6, -6, -8, -3
1503685056010,-6, 4, -1, 2, -2, -1, 5, 9
1503685056029,-8, 2, 1, -1, 0, -8, -8, -20
1503685056044,8, -1, -5, -5, -3, -5, -6, -8
1503685056066,5, 5, 6, -1, -2, 3, 3, 12
1503685056089,-8, -1, 3, 0, 1, 0, 4, -4
1503685056106,0, -9, -10, -6, -4, -2, -4, -5
1503685056126,-8, -1, 1, -6, -6, -3, 5, 4
1503685056149,5, -1, -4, -2, -2, 0, -3, -1
1503685056164,-11, -4, -2, 1, 1, 0, -5, 0
1503685056194,-9, 3, 3, 3, 3, -1, -2, -3
1503685056209,15, 1, 3, 2, 1, -2, -5, 4
1503685056224,-1, -4, -5, 0, 0, 1, 2, 3
1503685056262,1, -5, -12, -4, -2, -1, 0, 2
1503685056277,9, 0, -1, 1, 2, -2, -4, 6
1503685056299,6, -2, -3, -1, -2, -1, 3, 4
1503685056322,13, 9, -2, -1, 2, 2, 1, 19
1503685056343,-16, 1, 5, 1, 0, 0, -5, -6
1503685056359,-3, -1, 0, 0, -1, -2, -2, -1
1503685056382,0, 0, -4, -2, -3, 1, 3, 0
1503685056397,1, -2, -5, -5, -5, 0, -1, -6
1503685056419,5, 7, 9, 0, 0, -2, -8, -7
1503685056446,-8, -18, -11, 0, 0, 1, 2, -3
1503685056457,-3, -4, 4, 6, 2, 0, -2, -2
1503685056483,2, 7, 3, 0, -1, -3, 0, 0
1503685056502,6, 5, -8, -3, -1, 0, 3, 3
1503685056517,-7, 2, 0, -5, -7, -1, 3, -3
1503685056544,-1, -4, -1, -2, -1, -1, -2, -4
1503685056562,3, -4, 3, 0, -2, -2, -3, 0
1503685056578,-9, -4, -5, -2, -1, 0, 3, -1
1503685056600,-14, -3, 2, 2, 5, 1, -4, -4
1503685056622,5, -3, 0, -1, -4, -2, -5, 1
1503685056637,-7, -4, 1, 0, 2, -1, -3, -3
1503685056661,-7, -3, -7, -5, -6, -1, -3, 0
1503685056682,-2, -5, -2, 6, 4, -1, 4, 3
1503685056697,4, 13, 6, 1, -1, -1, 2, -2
1503685056719,8, 0, 1, 2, 0, 3, -3, 4
1503685056743,9, 3, 2, 6, 6, 1, 0, -1
1503685056757,-7, -5, -2, 1, -3, -2, -4, -3
1503685056780,-3, -5, -1, -1, -2, -3, -3, -5
1503685056802,1, 0, 1, 2, -1, 2, 5, 2
1503685056824,-3, -3, -3, -6, -1, -2, -2, -2
1503685056839,14, 6, -1, -15, -15, -6, -8, -1
1503685056862,-11, -4, -4, -4, -5, 0, 4, -1
1503685056878,-11, -7, -6, -1, 1, 2, -1, -6
1503685056899,2, -2, -1, -1, 1, -1, -2, 4
1503685056929,1, 10, 8, 2, 0, -1, -5, -1
1503685056937,-22, -22, -9, 1, 2, -1, -3, -8
1503685056967,-2, -2, 0, -4, -4, -3, -4, -2
1503685056989,4, -2, -3, -7, -6, -1, -2, -1
1503685057012,-8, -4, -4, -3, -2, -1, 6, 1
1503685057026,1, 5, 2, -2, -5, -2, 3, 0
1503685057049,-1, -11, -12, -9, -6, -5, -10, -3
1503685057071,4, -8, -6, -3, -3, 2, 1, -1
1503685057087,7, 15, 3, -1, -2, -2, -6, -1
1503685057109,-2, -3, -1, 3, 6, 0, -2, -2
1503685057131,3, 10, 6, -1, -6, -4, -1, 0
1503685057147,1, -1, -1, -2, -2, 1, 6, 2
1503685057169,-9, -17, -8, -2, -3, -4, -1, 0
1503685057191,4, -6, -5, 1, 3, 1, 0, 0
1503685057206,4, 33, 26, 3, -2, -2, 0, -4
1503685057229,-7, -9, -5, 3, 5, -1, -13, -2
1503685057251,-1, 14, 15, 3, 0, -1, 3, -2
1503685057266,-16, -6, -10, -5, -3, -2, -4, -3
1503685057289,-1, -7, -7, -4, 0, -1, 2, 0
1503685057315,-5, -3, 0, 6, 8, 3, -1, -4
1503685057326,0, -3, 2, 1, 3, 1, 2, 2
1503685057349,6, 5, 6, -5, -6, -2, -2, -1
1503685057371,3, -7, -4, -2, -4, -3, -3, 1
1503685057387,-3, 2, 5, 4, 2, 1, -1, 1
1503685057409,1, -4, -4, -4, -5, -1, 1, 0
1503685057431,7, 2, 4, -3, -6, -2, 2, 1
1503685057454,-4, -3, -8, -6, -5, -4, 0, -1
1503685057469,-9, -7, -7, -4, -1, 0, -2, -3
1503685057491,-7, 0, 2, 0, -2, 1, -2, -4
1503685057515,-4, 1, -2, 7, 5, 1, 0, -4
1503685057529,2, 0, -3, 3, 12, 4, 1, 1
1503685057557,1, -4, -5, -6, -4, -3, 2, 2
1503685057574,3, -1, 4, 1, -1, -2, -5, -2
1503685057592,1, -2, -5, 1, -2, -2, 0, -2
1503685057612,1, -1, 2, 5, 0, 0, 0, 1
1503685057634,0, 1, 1, 2, -11, 2, 1, 1
1503685057650,-8, -4, -3, -6, -2, -3, 0, -2
1503685057671,0, 0, 1, -1, 1, -4, -2, 1
1503685057694,-1, -2, 0, 0, -5, -5, -5, 0
1503685057709,-1, -2, -5, 0, 3, 2, -3, -2
1503685057731,-1, -1, -1, -5, 2, 1, 2, -1
1503685057754,7, 2, 1, -3, -2, 1, 5, 7
1503685057769,-1, 0, -3, 8, 11, 3, 2, -2
1503685057792,1, 3, 0, -4, -7, -1, -1, -3
1503685057814,-3, -5, -3, -5, -3, -3, -2, -4
1503685057829,-2, -1, 0, 0, 4, -3, -3, 1
1503685057852,-4, -3, -6, -5, -7, -6, -5, -5
1503685057874,-2, 3, 3, 3, -6, -6, -4, -4
1503685057889,2, -6, -11, -7, -1, -2, -1, 3
1503685057911,-1, -7, 2, -5, -1, -2, -1, 1
1503685057934,-2, -3, 1, 2, 2, 4, 0, -1
1503685057951,5, 5, -1, 1, 0, 2, 0, 0
1503685057971,-2, 1, 2, -1, 1, 5, 0, -2
1503685057994,1, 1, 1, -1, -3, -1, 1, -1
1503685058009,-2, -7, -10, -9, -7, -3, -1, 2
1503685058031,0, -1, -1, -1, 1, 2, 3, 0
1503685058054,-1, -1, 1, 0, 0, 8, 4, -1
1503685058069,-2, 3, 5, 3, 1, 1, -2, 2
1503685058091,-3, -6, -3, -2, -1, -9, -6, -3
1503685058099,-1, -5, 1, -1, -1, -14, -6, 1
1503685058122,-2, -2, 1, 0, 2, -3, -2, -2
1503685058144,0, 0, 4, 0, -2, 5, 1, 0
1503685058160,-2, -3, -4, 0, -1, 2, 3, 0
1503685058182,2, -4, -3, -1, -1, 0, 1, -1
1503685058204,2, -1, 0, 0, -1, 0, -1, -2
1503685058220,4, 0, -3, -3, 0, 0, 0, 0
1503685058249,0, 2, -1, -1, -1, -1, -1, 0
1503685058264,-3, 1, 1, 0, 0, -4, -4, -2
1503685058287,-6, -1, -1, -2, -2, -4, -5, -4
1503685058302,-3, -1, -1, -1, -1, -1, -2, -2
1503685058325,1, -1, 2, 1, -1, 0, 2, 0
1503685058339,0, -1, -3, -1, -2, 0, -1, -4
1503685058363,7, 1, -1, 0, 1, 0, 3, 4
1503685058391,0, -2, 1, 1, -1, 0, 0, 0
1503685058406,-7, 3, 2, -2, -1, -1, 2, 2
1503685058422,-2, -2, -2, 0, -2, 1, -2, 1
1503685058444,-1, -1, -2, -1, -1, -2, -3, -6
1503685058466,2, 1, -2, 0, -2, -2, -2, -1
1503685058482,-5, -5, -1, -1, 0, -4, -2, 1
1503685058497,1, 0, 0, -1, 0, 0, 0, -1
1503685058511,-2, 1, 0, -2, 0, -2, 0, -3
1503685058534,-2, -1, -3, 0, 0, -1, -1, 0
1503685058556,3, -5, -5, -3, -1, -1, -1, -1
1503685058571,-2, 1, 0, 0, 1, 0, -1, 1
1503685058594,3, -1, -2, -2, -3, -2, 0, 1
1503685058615,-1, -1, -1, 2, -2, -1, -2, -1
1503685058632,1, -1, -1, -1, -1, 0, 0, 1
1503685058656,-5, -2, 1, -2, -2, 0, -2, -5
1503685058676,-2, -1, 0, 0, 0, 0, 2, -1
1503685058691,0, 1, -3, -1, -1, 0, 0, 2
1503685058714,4, 1, 0, 0, 1, 0, 1, 3
1503685058736,-2, -2, -1, 2, 2, -1, -4, -1
1503685058751,-2, -3, -1, -2, -3, -1, -1, -2
1503685058774,-3, -1, -1, -1, -1, 0, -1, -4
1503685058796,1, 0, -2, -1, 0, -2, -2, -1
1503685058811,1, 0, -2, -1, 1, -2, 0, 2
1503685058827,3, 2, 2, 0, -3, 0, 1, 2
1503685058842,2, 2, 0, 0, -1, -1, 0, -1
1503685058864,0, 1, 0, -1, 0, -2, -3, -2
1503685058886,-2, -1, -3, -2, -1, -3, -2, -4
1503685058909,1, 0, 2, -1, 1, 1, -2, 1
1503685058925,0, -1, -1, -1, 0, -2, -2, -1
1503685058947,5, 1, 0, -1, 0, 0, -1, 1
1503685058962,1, 2, -1, -1, -3, 1, 1, -2
1503685058984,4, -1, -2, 0, -1, -1, -1, 0
1503685059006,0, 1, 1, 0, -1, -3, -1, 0
1503685059022,-2, -4, -3, -3, 1, -4, -1, 0
1503685059044,-3, -1, -2, -1, -2, 1, 0, 0
1503685059067,-1, 1, -1, 1, -3, 4, -4, -2
1503685059082,-2, 2, 1, 0, 0, 9, 16, -1
1503685059104,0, -2, 0, -2, -1, -3, -4, -3
1503685059127,2, 0, -1, 0, 1, -16, -10, -2
1503685059142,-5, -2, -2, -1, -1, -9, -4, -1
1503685059164,3, 0, -3, -2, -1, -1, -2, 2
1503685059186,-3, 0, 0, -1, -1, -1, -1, -2
1503685059202,1, -1, -2, 0, -1, 1, 0, -1
1503685059224,-2, 0, 1, -2, -2, 1, 0, -2
1503685059246,0, -2, -1, -1, 2, 3, 0, 2
1503685059262,-4, 5, -1, -2, -2, 1, -1, -1
1503685059284,-5, -6, -2, -1, -2, 1, -1, -4
1503685059306,-9, -3, -1, 0, -1, -1, 0, -2
1503685059329,5, 2, 2, 4, -2, -2, -3, 0
1503685059344,10, 5, 1, -1, -1, -1, 1, 2
1503685059369,-1, -6, -2, 0, 3, -1, -3, -3
1503685059389,-4, -1, -3, -1, -21, -6, -3, -3
1503685059404,2, 5, -4, -19, -20, -6, -2, 0
1503685059428,8, 8, 3, -1, -4, 0, 1, 1
1503685059449,4, 7, 4, 19, 37, 12, -2, 1
1503685059466,-6, -4, -3, -4, -1, -3, 1, 1
1503685059486,-10, -5, -3, -9, 4, 0, -3, -7
1503685059509,-6, -7, 1, 0, 4, -1, 1, 1
1503685059528,5, -1, 0, 2, 4, 1, 3, 3
1503685059546,-5, -8, 0, -6, -20, -3, 1, 0
1503685059571,-1, -1, 0, -5, -13, -6, -3, 1
1503685059576,1, 2, -1, -6, -16, -4, -2, 0
1503685059598,-4, 1, -1, -2, 2, 5, 4, 1
1503685059614,-2, 1, -3, -5, -6, -4, 1, 7
1503685059638,10, 10, -2, -5, 1, -3, 2, -2
1503685059658,4, 4, 3, 2, 7, 3, 7, 2
1503685059674,20, 11, 2, 1, 7, 6, 0, 0
1503685059696,-1, -1, 0, -1, 4, -2, -7, -1
1503685059718,-21, -15, -6, -8, -19, -8, 0, -5
1503685059734,-5, -3, -1, -13, -13, -4, -3, -1
1503685059756,-18, -10, -2, 6, 24, 4, 2, -3
1503685059778,-20, -14, -3, -11, -29, -8, -3, -2
1503685059794,8, 9, 5, 7, 8, 4, 8, 2
1503685059816,14, 2, 1, 29, 16, -2, -8, -1
1503685059839,-7, -7, -7, -5, -8, -1, 0, 3
1503685059854,2, 3, 8, -7, -4, 1, 4, 5
1503685059876,-23, -10, -12, 12, 25, 3, -11, -13
1503685059898,15, 11, 3, -7, 1, -5, 1, 2
1503685059914,10, 11, 14, -1, 9, 3, -1, -4
1503685059931,10, -3, -10, -10, -17, -7, -9, -8
1503685059944,-20, -16, -2, -3, 4, -1, -1, -9
1503685059969,13, 8, -10, 2, 18, -3, 1, -12
1503685059989,-9, -9, 4, 6, 11, 8, 2, 1
1503685060005,25, 11, -8, -12, -13, -7, -2, 5
1503685060026,-20, -11, -6, -10, -6, 0, 3, 3
1503685060049,3, 0, -4, -16, -15, -11, -13, -6
1503685060067,-10, -7, 7, 13, -15, 2, 4, 1
1503685060086,-1, 4, 6, -33, -34, -10, -5, -1
1503685060109,2, -2, 2, -16, -18, -5, -7, 5
1503685060125,-4, 7, 7, 8, 19, 2, -4, -7
1503685060146,11, 2, -1, 5, 7, 3, 2, 5
1503685060169,-4, -6, 2, 36, 44, 17, 9, 1
1503685060184,-4, -8, -3, -10, -3, -6, 5, 0
1503685060206,1, 0, 4, -6, -7, -5, 0, 6
1503685060229,2, 2, 2, 24, 44, 6, 2, 1
1503685060251,-1, 5, 4, 13, 3, 0, 1, -16
1503685060269,5, 2, -3, -11, -17, -5, -7, -5
1503685060289,7, 10, -5, -41, -55, -12, -3, -2
1503685060311,-7, -2, 1, -19, -27, -9, 10, 11
1503685060326,-20, -11, -10, 0, 12, -4, -5, -4
1503685060341,6, 9, 8, 15, 16, 1, 14, 14
1503685060355,13, 9, 6, 15, 30, 2, -8, 8
1503685060378,11, 19, 24, 79, 98, 24, 20, 6
1503685060404,-26, -12, -8, -25, -33, -14, -12, -23
1503685060415,7, -4, -1, 1, 10, 1, -2, 1
1503685060438,2, -14, -5, -2, -7, -2, 4, 6
1503685060460,11, 12, 3, -5, -12, -4, 9, 11
1503685060477,-3, -9, -5, -14, -21, -4, 5, 17
1503685060498,7, 16, 4, -1, -7, -6, -7, -19
1503685060521,8, 3, 6, 10, 18, 11, -14, -1
1503685060537,-1, -10, -12, -8, -11, 0, 8, 3
1503685060558,-8, -3, -10, -11, -8, -6, 0, -9
1503685060582,-10, -3, -6, -10, -14, -4, 7, 15
1503685060596,-8, -1, 6, 5, 5, -2, -4, -7
1503685060618,13, 6, -11, -3, -4, -3, -1, -7
1503685060642,-10, -3, 4, 0, 1, 0, 1, -12
1503685060656,-3, -1, 7, -1, 0, -2, 0, 0
1503685060680,7, 9, 10, 5, -1, -2, 7, -7
1503685060701,-56, -16, -7, -4, 0, -3, -11, -47
1503685060716,8, 2, 0, -1, 1, 2, 1, 24
1503685060739,16, 10, 7, 11, 11, 2, 0, 10
1503685060761,-1, -8, 3, -7, -11, -4, -4, -16
1503685060785,-10, -6, 6, 2, 1, 0, 4, 10
1503685060808,0, 15, 8, 4, 0, 1, -6, 19
1503685060829,35, 13, 3, 2, 4, 5, 1, 19
1503685060851,4, 11, -4, 0, 2, -2, -2, 2
1503685060866,16, 21, 25, 8, 4, 0, -8, 0
1503685060889,-4, -4, 2, 1, -1, -5, -16, -15
1503685060912,-24, -8, -1, -1, -1, -5, -4, -9
1503685060926,-20, -4, 16, 2, -1, 0, 0, -19
1503685060949,-12, -10, -15, -6, -3, -2, -8, -7
1503685060973,-16, -10, -1, 2, 0, 1, 3, -20
1503685060986,8, -1, -10, -3, -2, -1, -3, 6
1503685061024,12, -3, -12, -4, -3, -2, -4, 0
1503685061040,4, 6, 0, -1, -1, 1, 1, -12
1503685061062,-15, -2, 1, 1, 1, -1, -1, -6
1503685061085,4, 5, 5, 3, 1, -3, -4, 3
1503685061099,-1, 1, 5, 2, 2, -2, -6, -5
1503685061107,3, -2, -4, 0, 4, 5, 5, -5
1503685061129,-10, -1, -5, -5, -6, -3, 0, 4
1503685061151,2, 5, 6, -6, -10, -7, -8, -18
1503685061174,16, 3, 1, 5, 5, -1, -16, -12
1503685061189,-13, -2, 8, 11, 6, 2, -4, -1
1503685061208,-2, -7, -11, -6, -3, -1, -2, -13
1503685061219,13, 12, 22, 4, -1, -2, -4, -6
1503685061243,15, -1, -8, -3, -4, -1, -3, 8
1503685061264,2, 3, 1, -3, -3, -2, -1, -2
1503685061280,-10, -11, -5, -1, -2, -1, 3, 3
1503685061302,-12, -3, -4, -1, 1, -1, -1, 2
1503685061324,6, 10, 13, 6, 1, 1, 4, 9
1503685061342,-2, -7, -3, -4, -6, -2, 2, 3
1503685061362,-1, -4, -9, -4, -4, -3, 0, -1
1503685061384,-1, -5, 0, -1, -2, -2, 0, 6
1503685061399,-9, -4, -5, -1, 0, -3, 2, -2
1503685061422,-2, -2, -3, -1, 0, 1, 2, 15
1503685061445,1, 0, -2, 0, 0, -1, -5, -10
1503685061459,-7, -4, 0, 4, 2, -1, -3, -1
1503685061482,10, -3, -2, -3, -7, -2, 1, -3
1503685061489,-4, 2, 22, 23, 10, -2, -4, -2
1503685061511,7, 4, -10, -7, -4, 2, -2, -3
1503685061534,-7, -1, 5, -4, -2, -3, -2, -4
1503685061549,-2, -8, -8, -8, -6, -2, -8, -4
1503685061571,2, -3, -6, -4, -2, -2, 1, -2
1503685061594,-4, -4, -2, -4, 0, -2, -1, 3
1503685061611,-4, 0, -12, -4, -3, -1, -3, -2
1503685061631,-2, -1, -3, -5, -1, 0, 1, 3
1503685061654,-7, -12, -12, -5, -3, 1, 2, 1
1503685061669,0, 5, 4, 0, -3, -2, 1, -4
1503685061691,14, 4, 1, -1, 1, 3, 1, 3
1503685061716,-1, 11, 10, 2, 0, 0, -1, 3
1503685061729,10, -15, -21, -9, -4, -2, -4, 1
1503685061752,-11, -3, 4, 8, 6, 0, -2, -5
1503685061774,-3, 1, -2, 1, 0, 2, -2, -1
1503685061789,1, 6, 6, 4, -1, -1, -3, -6
1503685061812,-8, 0, -3, 1, -1, 0, 1, -4
1503685061834,-2, 3, 1, -4, -3, 0, -3, 1
1503685061849,-7, 0, 5, -1, 1, -1, -5, -1
1503685061865,8, -6, -4, -1, -3, -2, -1, 0
1503685061886,1, -6, -2, 4, 1, -3, -5, -2
1503685061901,-10, 14, 22, 11, 2, 3, -1, -2
1503685061909,-6, -2, 6, 5, 1, -2, -3, -3
1503685061931,-9, 6, 10, 5, 4, 2, 4, 0
1503685061954,17, -4, 0, 2, 2, 0, 0, 1
1503685061968,3, 1, -3, -10, -8, -4, -4, -6
1503685061991,-6, 0, 1, 3, -1, -1, 3, 2
1503685062014,-21, -22, -12, -15, -7, -4, 2, 1
1503685062028,8, 1, 0, 1, 2, 0, 1, -1
1503685062051,-5, 0, -1, -1, -1, 0, 1, 2
1503685062073,3, -7, -5, -3, -2, -2, -6, -5
1503685062096,-5, 2, 1, -3, -2, -2, -2, -1
1503685062127,0, -1, 3, 21, 8, 1, 3, 0
1503685062134,0, -1, 0, 3, 5, 8, 4, 2
1503685062156,-2, -7, -3, -1, 0, 0, -2, -1
1503685062171,-25, -8, 2, 2, 0, -2, -5, -2
1503685062194,16, 12, 6, 7, 3, 0, -4, 0
1503685062216,-9, 4, 6, 1, -1, -1, 2, -1
1503685062231,1, -2, -4, -6, -5, -4, -6, -4
1503685062254,1, -7, -3, 2, 3, 1, -2, 1
1503685062276,4, 10, 2, -1, 7, 6, 5, 0
1503685062291,-8, -9, -1, -3, -5, -3, -1, -4
1503685062314,7, -20, -14, -4, -3, -3, -1, -3
1503685062336,1, 2, -2, -6, -5, -1, -1, 0
1503685062351,0, 2, 2, 3, 3, 0, -2, 0
1503685062373,0, 5, 6, 3, 1, -1, 0, -5
1503685062396,2, 13, 10, 0, 1, 1, -2, -1
1503685062411,-2, 0, -3, 1, -3, -3, 1, -1
1503685062433,7, 8, 1, -1, -2, -1, -2, -1
1503685062457,-4, 2, 0, -2, -1, 0, 1, 1
1503685062471,2, 0, -4, 1, 2, 0, -1, 0
1503685062494,0, -10, -11, -6, -3, -2, 0, 2
1503685062517,-4, -5, -1, 0, -1, -1, 0, 0
1503685062532,-4, -2, -3, -3, -4, -1, -11, -3
1503685062554,-2, -1, 4, 3, 3, -1, 3, 2
1503685062576,1, -4, 0, 1, 0, 1, 0, -2
1503685062592,2, -3, -4, -10, -10, -2, 0, 0
1503685062609,-3, -3, -3, -4, -2, 0, -3, -4
1503685062622,0, 3, 1, 1, 2, 3, -1, -1
1503685062644,0, -2, 0, 6, 3, -2, -11, -5
1503685062674,1, -2, -5, -4, -3, -3, -1, -1
1503685062684,-2, -8, -8, -3, 3, 0, 7, 1
1503685062706,0, -2, -1, -6, -3, 0, 1, 0
1503685062727,-5, 0, 3, 7, 3, -2, -5, 2
1503685062742,1, 4, -2, -12, -15, -4, -3, -2
1503685062764,-5, -3, 11, 3, -1, -2, -1, -3
1503685062787,-1, 0, -6, -4, -8, -6, 3, 0
1503685062801,2, -2, 0, 2, 4, -2, -2, 1
1503685062826,2, 1, -1, -2, -1, -3, 3, 4
1503685062847,-2, 7, 4, 2, 3, 2, -2, -2
1503685062862,5, 6, -1, 2, -1, 4, 2, 4
1503685062887,0, -4, -2, 6, 12, 3, 0, -1
1503685062907,-3, -3, -3, -9, -9, -1, 1, -1
1503685062922,1, -4, -3, -1, 2, -1, 2, 1
1503685062944,-1, -3, -4, -3, -8, -4, 1, -4
1503685062967,5, 6, 4, -2, 1, -2, 0, 0
1503685062982,0, -2, 0, -3, -3, -2, -3, -2
1503685063004,-3, -3, -1, 0, 0, -2, -2, -4
1503685063027,-6, 0, 2, 1, 0, 2, 0, -1
1503685063049,-2, -4, -5, -1, -2, 1, -3, -5
1503685063064,0, 0, 1, 1, -2, -1, -1, 7
1503685063089,-3, -3, -4, -3, -3, -1, 0, -2
1503685063108,0, 0, 0, 2, 4, 0, -3, -1
1503685063128,-2, -2, 0, 0, 1, 0, 0, 1
1503685063146,1, -2, 0, -1, 0, 0, 0, 1
1503685063156,0, 0, -1, -3, 0, 0, -1, -2
1503685063176,-2, -1, -2, -1, -1, 0, 0, 0
1503685063199,-3, 0, -1, 0, -1, 0, -1, -9
1503685063213,0, -2, -1, 0, -1, 0, -3, -2
1503685063236,0, -1, -1, 0, -1, -3, 2, 3
1503685063259,-1, -1, -1, 0, -1, -1, 2, 4
1503685063273,0, 1, 1, -1, 0, 0, 1, 2
1503685063297,0, 0, -1, 0, 0, 0, -1, 4
1503685063318,-17, -3, 0, -1, -3, -3, 0, -4
1503685063334,-4, -3, -2, -1, -2, -1, -3, 26
1503685063365,2, -1, -4, -2, -1, 0, -3, 3
1503685063390,-1, 0, 0, -1, -2, 1, 0, -4
1503685063408,2, 1, 2, -1, -1, -4, -2, 5
1503685063424,-2, -2, -2, -1, -1, 0, 0, -5
1503685063446,0, -4, -1, -1, -1, -1, -2, 1
1503685063469,1, -1, -1, 0, -1, -1, -6, 1
1503685063484,-1, 2, 1, -1, 0, 0, -4, 3
1503685063506,-1, -3, 0, -1, -1, -1, -1, -3
1503685063529,3, -1, -2, -1, -1, -1, 0, -5
1503685063544,-2, 0, -2, -1, -1, 0, -1, -1
1503685063566,-2, -1, -3, 0, -1, 0, 3, 1
1503685063591,1, 2, -1, -3, -1, -1, -1, -2
1503685063604,2, -2, -5, -2, -1, -3, 0, 0
1503685063629,-1, 3, 3, 0, 1, 1, -2, 1
1503685063648,-2, -4, -1, 1, 0, 0, 0, -1
1503685063664,-1, -1, -1, 0, -1, -2, 0, -3
1503685063686,-2, -3, -2, -1, -3, -2, 0, 2
1503685063708,0, 0, -1, 2, 2, 0, -4, -3
1503685063716,2, -5, -7, -2, -1, -3, -3, -4
1503685063738,-2, -3, -2, -3, -2, -1, -2, -3
1503685063753,-1, 0, -1, -1, 1, -1, -1, -1
1503685063776,-1, -3, -5, -2, -2, 1, -2, 3
1503685063798,1, -1, -2, 0, 0, -1, 0, 0
1503685063813,-3, -2, -1, -1, -2, -1, 1, -3
1503685063836,-1, -2, -4, -1, -2, 0, -1, 0
1503685063859,-2, 0, 2, 0, 0, -1, -1, 0
1503685063875,-4, -6, -4, -1, -1, -2, 1, 0
1503685063897,1, 0, 0, -1, 2, 1, 4, 2
1503685063919,1, 0, -4, -3, -4, 0, 2, -2
1503685063935,2, -2, -3, -1, 1, 0, -2, 3
1503685063956,-2, -4, -1, -1, -1, -2, -4, -2
1503685063978,-1, 1, -2, -1, -3, -4, -2, -3
1503685064001,-4, -5, -3, -1, 0, -3, -1, -12
1503685064016,1, 3, 1, 1, 0, 1, 2, 2
1503685064038,-1, -1, 1, 0, 0, 0, -1, 2
1503685064061,-3, -3, -2, -2, -1, 0, -2, 0
1503685064076,1, 2, -2, -1, 0, -4, -5, -6
1503685064099,2, 2, -1, 1, 1, 1, 0, 4
1503685064121,-1, -1, -2, -1, 2, 0, 0, 0
1503685064137,1, -4, -2, 0, -2, -2, 2, 2
1503685064161,1, 1, 2, -1, -1, 0, -1, -3
1503685064180,-1, 1, 1, 1, 1, 1, -3, 0
1503685064196,0, -6, -3, 0, 0, -1, -3, 1
1503685064218,-1, -2, 1, -2, -2, -1, 0, -2
1503685064240,-1, -1, -4, -3, -3, -1, 1, -1
1503685064256,-1, 2, 4, 3, 0, -2, 0, 0
1503685064278,-2, -1, 1, 0, -1, -2, -3, -1
1503685064300,0, 2, 1, 0, -2, 1, 0, 1
1503685064316,-1, -3, -1, -2, 0, -2, -1, -2
1503685064339,-1, -2, -3, -1, -2, 1, -2, -2
1503685064363,2, 1, -1, -2, -1, 0, 0, 4
1503685064376,-1, -2, -1, 0, -1, 0, -2, -2
1503685064399,-1, 6, 1, 0, -2, -2, -1, -3
1503685064421,-2, -6, -4, -2, -1, -2, -1, 0
1503685064443,2, 2, 2, 1, -1, 1, -4, 0
1503685064458,-2, -4, -5, -3, 0, -2, -1, -2
1503685064480,1, 1, 1, 0, -1, -1, 1, 0
1503685064496,-2, 2, 2, 1, -1, -1, -1, -3
1503685064518,1, -3, -2, -3, -2, -1, -1, 0
1503685064540,-2, 4, 2, -1, 0, 0, 0, 0
1503685064556,-2, -1, -1, 1, 0, -3, -4, -1
1503685064578,0, -1, -2, -2, 0, -1, -1, -4
1503685064600,1, 0, -1, -1, -1, 2, 2, 2
1503685064616,-1, -1, 3, 2, 0, -1, 1, 2
1503685064639,0, 3, 0, 0, -1, 0, 1, -2
1503685064668,0, -2, -3, -3, -2, 0, -1, -10
1503685064676,0, -1, -4, 0, -1, -2, -2, -1
1503685064699,1, -3, 0, -2, 0, 1, 1, 1
1503685064722,-1, -3, -4, -2, 0, 0, 1, 2
1503685064738,-1, 0, 1, -1, 1, 0, 0, 4
1503685064759,-3, 0, -1, -2, -1, -1, -1, 0
1503685064780,0, 0, -2, -1, -1, -1, -2, -1
1503685064799,-1, -3, -2, 0, -1, 1, -3, -2
1503685064818,1, 0, 0, -1, -2, 0, 1, 0
1503685064841,0, 2, 1, 1, 0, -1, 2, 0
1503685064856,-1, -1, -2, 1, -1, 0, -2, 0
1503685064879,0, 0, -1, -1, -1, -1, -1, 0
1503685064901,-1, -2, 0, -1, -2, -2, 0, -2
1503685064923,-2, -4, -2, -3, -2, -2, -2, -2
1503685064938,-3, -5, -4, -1, -3, -2, -2, -2
1503685064960,1, 3, 1, 1, -1, -2, -1, -1
1503685064983,0, 0, -2, -1, 0, 1, 0, -2
1503685065003,-2, 0, 0, -1, 0, -1, -1, 0
1503685065020,-1, -2, 0, 1, -1, 1, -2, -1
1503685065043,0, 2, 0, -1, 1, -1, -3, -1
1503685065058,0, -3, 0, -1, 1, -2, 1, -1
1503685065080,-5, -4, -2, -2, -3, 0, 3, 2
1503685065104,-1, -2, -2, -1, -1, -1, 1, 0
1503685065118,-1, -3, -1, 1, -1, -3, -5, -3
1503685065143,1, 2, -1, -1, 0, -3, -1, -3
1503685065163,-1, 0, 1, 0, -2, 1, -1, 0
1503685065178,-1, 1, -2, -1, 1, 1, 0, 0
1503685065195,1, 0, -2, -1, -1, -2, 0, -1
1503685065210,-1, -1, -2, -3, -2, 1, -1, -1
1503685065231,-2, 0, 4, 0, -1, -1, 1, -2
1503685065253,-3, -1, -2, 1, 1, 1, 2, 0
1503685065269,0, -2, -1, -2, -1, 0, 0, 2
1503685065291,-2, -3, -1, -1, -2, -1, -1, 0
1503685065313,1, -1, -3, -2, 0, -1, -2, -2
1503685065328,-2, 2, -2, 2, 0, -1, -2, -4
1503685065351,1, 1, 1, -1, -1, -1, -2, -1
1503685065374,2, 6, 5, 0, 0, -1, -1, 1
1503685065389,-3, -6, -2, -2, 0, -2, -1, -2
1503685065412,-2, -2, -4, -3, 0, -1, -1, 0
1503685065434,0, -1, -3, 0, 0, -1, 0, -1
1503685065448,1, -1, -1, 0, -2, -1, 0, 0
1503685065463,1, 3, 2, -2, -1, 1, -2, -1
1503685065479,-3, -3, -3, 0, -1, -1, -2, -1
1503685065500,0, -3, -1, 0, -1, 0, 1, -2
1503685065523,0, 2, -1, 1, 1, -1, -2, -2
1503685065539,-1, -5, -3, -1, -2, -2, -3, -3
1503685065560,0, -1, -2, -1, -2, -2, 0, 0
1503685065583,1, 4, 2, 1, 0, 0, 1, 1
1503685065598,-2, -2, -3, -2, 0, 0, 1, 0
1503685065620,-1, -2, 0, 0, -1, -1, -2, -2
1503685065643,-3, 1, 2, 0, 1, 1, -3, -2
1503685065658,0, -1, -1, -2, -2, -1, -2, -2
1503685065680,3, 2, -1, -1, -1, -1, 0, 3
1503685065707,-2, -3, -2, -1, -1, -1, 1, 0
1503685065718,-4, -3, 0, -1, -1, -4, -3, -7
1503685065742,-1, 1, 0, 0, 1, 0, 2, 2
1503685065763,-3, -1, -1, 1, 0, -1, 1, 0
1503685065778,0, -2, -2, -2, -3, 0, -1, -1
1503685065800,3, 2, 2, -1, 0, -1, 0, 2
1503685065823,0, 0, 0, 1, 2, 1, 2, 2
1503685065845,0, -1, 2, -1, 0, 0, 1, 1
1503685065861,-2, 0, 0, -1, -2, 3, 1, -2
1503685065883,-2, -1, -3, 0, 0, -1, 0, -3
1503685065907,2, -1, -1, -7, -6, -1, -3, -3
1503685065928,-1, 0, -1, -4, -2, 1, 4, 0
1503685065951,-3, 0, 4, 1, -4, -2, -1, -6
1503685065965,-2, -5, -5, 2, 1, 0, -4, -3
1503685065981,-1, -2, 1, 19, 12, 2, 1, 1
1503685066003,1, 0, -3, -3, -2, -5, -3, 0
1503685066025,-2, -3, -2, -2, 1, -5, -4, 0
1503685066043,-6, -5, -1, 0, 1, -3, -4, -3
1503685066056,2, -2, 2, 15, 20, 6, 0, -1
1503685066071,5, 5, -2, -8, -7, 1, -1, 0
1503685066093,-17, -8, -1, 4, 6, 4, -2, -4
1503685066116,-4, 0, 2, -1, -1, -3, -1, -2
1503685066131,1, 16, 18, 15, 11, -1, 3, -2
1503685066154,8, -8, -11, -9, -2, -3, -1, -1
1503685066176,-1, -5, 0, -2, -3, -3, -2, 0
1503685066191,-6, 8, 16, 13, 10, 1, -1, -5
1503685066221,-1, 2, -2, -8, -9, -5, 1, 0
1503685066236,3, -4, -8, -11, -10, -2, -1, 3
1503685066251,2, -2, -6, -10, -11, -2, 6, 0
1503685066276,6, 0, -8, -5, -1, 0, -1, -3
1503685066296,-9, -16, -9, -4, -8, -3, -3, -5
1503685066311,-7, -10, -4, -6, 0, 0, -3, 2
1503685066333,-3, -2, 2, 3, 11, 0, 0, -3
1503685066356,-4, -1, -1, 1, 0, -1, -8, -4
1503685066371,1, -4, -6, -1, 7, 1, 2, 0
1503685066393,3, 10, 6, -3, -7, 0, 1, 4
1503685066417,4, 8, 2, 1, -3, -1, 0, 0
1503685066431,-15, -13, -4, 1, 3, -3, -4, -3
1503685066453,-18, -9, -3, 2, -1, 0, -2, -2
1503685066477,13, 3, -5, -4, -4, -4, -4, -1
1503685066491,5, 1, -5, -3, -2, 3, 5, 5
1503685066514,-5, 0, 5, -3, -1, -1, -3, 0
1503685066536,27, 11, 0, -5, -10, 1, -3, -5
1503685066545,3, -5, -5, -4, -3, -4, -4, -2
1503685066567,6, 14, 11, 0, -7, -2, -6, -5
1503685066590,-8, -2, 1, -5, -5, -1, 1, 2
1503685066604,2, -8, -10, -3, 0, -2, -2, -7
1503685066626,6, 3, -5, -2, 1, -2, 4, 3
1503685066649,-11, -2, -3, -1, -4, -1, -1, 1
1503685066665,-3, -4, -2, 2, 2, 0, -1, 2
1503685066687,-2, -2, 0, 5, 3, -1, 3, -2
1503685066709,-6, 2, 2, -6, -13, -2, -1, -6
1503685066724,-3, -2, -1, -2, -5, 2, 2, 2
1503685066731,-8, -2, 1, -2, -8, -3, 1, 2
1503685066755,6, -1, -1, 2, 9, 6, -2, 0
1503685066776,11, -7, -8, -9, -11, 1, 0, 0
1503685066798,13, 3, -5, -3, -2, 2, 2, 3
1503685066819,13, 12, 0, 1, 5, -5, -6, -2
1503685066836,-4, -2, -10, -1, 11, 6, 4, 7
1503685066858,4, 12, 12, 4, -2, -2, 2, 0
1503685066873,-25, -15, -5, 4, 11, 1, 1, -5
1503685066896,-9, -11, 2, -2, -4, -3, -3, -6
1503685066919,-4, -4, -4, -3, -5, 0, 1, 1
1503685066933,5, -1, 7, 13, 25, 3, -2, 17
1503685066956,-10, -13, -10, -11, -12, -3, -6, -2
1503685066981,6, 0, -2, -2, -6, -6, -5, -1
1503685066993,13, 0, -11, -5, 3, -3, 4, -6
1503685067017,1, 5, -1, -3, -5, -1, 6, -2
1503685067038,-17, 10, 10, 3, -16, -10, -3, -8
1503685067054,5, 1, 5, -1, -5, -1, -5, -8
1503685067076,16, 0, -4, -4, -1, 1, 3, 9
1503685067098,2, -1, -7, -3, 1, 2, -2, -17
1503685067118,-1, -1, 2, -3, -7, 2, 7, 10
1503685067136,-10, -10, -1, 1, 0, 1, 14, -2
1503685067158,-4, 0, -6, -12, -25, 4, -1, -10
1503685067166,15, 3, 5, 11, 25, 9, 0, 9
1503685067189,-26, -2, 0, -5, -9, -7, -5, -10
1503685067211,-41, -36, -16, -13, -15, -3, -1, -5
1503685067233,-5, -19, -9, -2, 1, 3, 3, 0
1503685067235,1, 2, 4, 4, 7, 2, -5, -1
1503685067256,2, 9, 9, 4, 8, 5, 4, 2
1503685067278,-21, -31, -27, -8, -3, 2, -1, -8
1503685067293,0, 4, -2, 0, 0, 0, 0, 5
1503685067316,-4, -2, 3, 4, 8, 2, -5, 3
1503685067338,-9, 1, 1, -1, 1, -2, -7, -20
1503685067354,15, 11, 6, 2, -5, -1, -3, 2
1503685067376,4, 8, 9, 7, 10, 10, 1, 6
1503685067398,7, 7, 2, 3, 13, -8, -10, -8
1503685067413,6, -3, 1, 1, -2, 4, 4, 9
1503685067436,-32, -14, -7, -4, -5, -1, 4, -6
1503685067459,-1, 0, 1, -1, -1, 3, -1, -4
1503685067473,20, 11, 1, -4, -5, -5, 3, 11
1503685067496,4, -4, -1, -2, 0, 2, 8, 2
1503685067519,-1, 3, 3, 1, -2, 0, 6, 5
1503685067533,-9, -3, -1, 3, -1, -3, -9, -1
1503685067556,18, 11, 4, 0, -10, -5, 2, 0
1503685067578,7, 5, -1, -8, -7, -9, -13, -4
1503685067594,-1, -4, 10, 3, 0, -1, 10, 18
1503685067619,-8, -4, -8, -5, -5, 0, -1, -5
1503685067638,17, 19, 8, 2, 0, 1, -3, 0
1503685067654,-4, -6, -3, -2, -2, 1, 6, 4
1503685067676,-12, -9, -5, -1, -2, -3, -6, -25
1503685067698,4, -6, -9, -5, -3, -2, -3, -9
1503685067706,15, 22, 19, 6, 2, -1, -2, -5
1503685067729,6, 5, 6, 1, 0, 2, 4, 30
1503685067752,-7, -12, -4, 0, -2, 0, 7, 3
1503685067758,-17, 3, 9, 3, 1, 1, 2, -5
1503685067766,-14, -19, -18, -3, -4, -9, -13, -9
1503685067789,-9, -7, -1, -3, -3, 0, -4, 4
1503685067811,-14, -14, -10, -5, -3, -3, -1, -19
1503685067828,27, 11, 2, 3, 5, 2, -1, 8
1503685067849,-16, -11, -8, -3, -2, -3, -2, -20
1503685067871,-3, 6, 5, 2, 1, 2, 7, 7
1503685067887,-1, -15, -12, -5, -4, -1, 8, -3
1503685067909,-18, -9, -6, -5, -5, -2, -7, 3
1503685067931,21, 9, 7, 5, 2, 3, 5, 3
1503685067946,-13, 0, 4, 0, 1, 2, 5, 3
1503685067969,6, 5, 2, 0, -1, 0, -1, 1
1503685067992,3, -3, -8, -3, -2, -1, 0, 1
1503685068006,1, 3, 4, 0, 0, -1, -2, -2
1503685068030,2, 3, -3, -3, -3, -2, -2, 2
1503685068051,-4, -4, 1, 2, 2, -2, -2, -8
1503685068059,4, 7, 7, 4, 2, -2, -10, -3
1503685068081,-12, -10, -9, -1, 0, -1, 2, 0
1503685068096,7, 2, -1, -3, -2, -2, 0, 2
1503685068119,-6, -5, -4, -3, -4, -1, -2, -3
1503685068141,-3, -2, 1, 0, 2, 0, -2, -2
1503685068156,0, 6, 4, -5, -6, -1, 0, -2
1503685068178,0, -5, -7, -6, -2, 0, 4, 3
1503685068201,-7, -14, -5, 0, -1, -2, 1, 0
1503685068216,9, 2, -5, -1, -2, 2, 0, 0
1503685068238,2, 15, 9, 2, 3, 2, 2, 2
1503685068261,-3, -2, -3, 1, -1, 0, 1, -4
1503685068276,5, 9, 5, 1, 3, -1, -3, 1
1503685068299,-8, -10, -7, -1, -1, -3, -3, -3
1503685068323,-7, 6, 13, 3, 0, 0, -1, -3
1503685068336,6, -9, -14, -6, -5, -4, -1, -1
1503685068358,0, -12, -10, -5, -4, -2, -5, 4
1503685068381,-4, -4, -9, -2, -1, -1, 1, 2
1503685068397,4, 0, 2, 0, 0, -1, 0, -3
1503685068427,-5, -1, -8, -7, -3, -2, 3, 3
1503685068449,-8, -6, -5, -3, -4, -2, 1, -2
1503685068478,4, -9, -10, -5, -2, -3, -4, 0
1503685068486,-7, -6, 2, -1, -4, -3, -3, -6
1503685068509,11, 6, -1, -2, 1, -1, 5, 10
1503685068531,-7, -3, 1, 5, 2, 1, 0, 0
1503685068547,5, 6, 2, 9, 3, 4, 1, -3
1503685068569,8, 8, 8, -5, -6, -2, 0, -1
1503685068593,-5, 4, -4, -4, -2, -1, -2, -4
1503685068613,-1, 0, -7, -6, -1, -2, -3, -4
1503685068630,2, -6, -2, 1, -1, 0, -6, -2
1503685068651,8, 12, 7, -3, -3, -2, -4, 1
1503685068673,0, 1, 1, 7, 2, -1, -1, 2
1503685068689,-6, 1, 7, 13, 9, 1, -4, -6
1503685068711,-1, 3, 4, 9, 6, 4, 2, -1
1503685068734,-4, -8, -8, -11, -10, -3, 1, 2
1503685068749,0, -3, -4, -3, -2, -1, 2, -3
1503685068771,4, 1, 4, 8, 7, 3, -5, 0
1503685068794,-3, -2, -4, -8, -7, -2, -1, -2
1503685068809,0, -8, -8, -7, -5, -3, 2, 2
1503685068831,-6, -4, 2, 0, 1, -1, -2, -3
1503685068854,3, -7, -3, -3, -1, 0, 3, 4
1503685068869,1, 2, -3, -2, -2, -4, -2, 0
1503685068891,-1, -1, 1, -1, -4, -1, -1, -1
1503685068913,0, -1, -4, -2, 1, -2, -2, -5
1503685068936,-2, 2, 0, 0, 0, -2, -1, 1
1503685068952,-6, -2, -1, -2, 0, -1, -1, -3
1503685068973,-1, -3, -5, -6, -9, -4, -2, -2
1503685068989,-1, -2, -3, -7, -8, -5, 2, 1
1503685069004,1, 1, 2, 4, 2, 3, 3, 2
1503685069018,1, -7, -8, -7, -6, -3, -3, 7
1503685069041,-1, -3, -2, 2, 3, 1, -3, 0
1503685069064,1, 5, 11, 32, 32, 9, -2, -6
1503685069078,-6, -6, -7, -15, -8, -5, -1, -6
1503685069101,3, -7, -7, -9, -11, -6, 1, -1
1503685069122,0, -8, 0, 6, 8, 2, 3, 0
1503685069138,-3, -1, -4, 0, -3, -2, 0, -1
1503685069163,-2, 5, 3, -11, -11, -5, -3, -1
1503685069183,-1, 3, 9, -1, -6, -3, -1, 2
1503685069199,-1, 23, 15, 2, -2, 1, 0, -2
1503685069221,2, 11, 7, -3, -4, -1, 1, 0
1503685069243,-1, -10, -12, -7, -7, -13, -5, -2
1503685069258,-1, -6, -7, -10, -12, -8, -10, 1
1503685069281,-1, -1, -3, -1, -1, 6, -3, -5
1503685069304,-3, -9, -3, -1, 2, 6, 5, 0
1503685069318,0, -2, -4, 2, 5, 12, 6, -1
1503685069341,-1, -6, -7, -4, -3, 7, 5, 0
1503685069364,-2, -6, -3, -2, -2, -5, -1, -2
1503685069378,2, 3, -2, -1, -3, -8, -2, 1
1503685069402,6, 5, 0, -2, -5, -7, -2, 4
1503685069425,-3, -7, -6, -1, 3, -6, -5, -2
1503685069439,1, 1, -1, -3, -5, -3, -2, -2
1503685069461,-4, -2, 0, -2, 1, -3, -1, -1
1503685069483,-1, 1, -1, -5, -4, 0, 1, -3
1503685069498,2, -3, -1, -1, 1, -1, -1, 7
1503685069521,1, -6, -3, 2, 1, 5, 2, 0
1503685069543,-2, -5, -2, 1, -1, 6, 1, -2
1503685069565,-3, 2, 2, 0, -2, 7, 3, 1
1503685069581,-3, 5, 1, 0, 2, -6, -4, -5
1503685069603,-4, 1, 1, -1, -1, -9, -2, -2
1503685069611,2, 3, 2, -1, 0, 2, 1, 2
1503685069642,1, 1, -1, 0, 1, 4, 1, 0
1503685069668,1, -2, -1, -1, 0, -3, -3, 2
1503685069685,-2, -2, -2, 0, -1, -4, -3, 4
1503685069701,1, 6, 0, -1, 1, -3, -4, -3
1503685069723,-1, 2, 0, 1, 0, 3, 2, -4
1503685069745,-3, -5, -4, -2, 0, 1, 0, -2
1503685069769,-1, -3, -1, -2, -1, -3, 0, -1
1503685069790,-3, -3, 0, -1, -2, -1, -1, -2
1503685069805,-2, -2, 0, -1, -1, 1, 0, -2
1503685069821,0, -1, -1, 1, 0, -1, 1, 2
1503685069843,-5, -5, -3, -3, -3, -2, -2, -4
1503685069869,-1, -1, 1, -1, -2, -3, -2, -3
1503685069881,-1, 0, 0, -1, 0, 0, 1, -2
1503685069903,-1, -1, -3, -2, -3, -1, -3, 0
1503685069925,0, -1, -2, 0, 0, 0, 0, 1
1503685069941,0, -3, 1, 0, 0, -2, 0, 2
1503685069962,-1, -1, -1, 0, -1, 1, -1, 0
1503685069985,1, 0, 0, -1, 1, 0, 0, -2
1503685070002,-2, -3, -2, -1, -3, 0, -1, -2
1503685070022,0, 1, 0, -1, 0, -1, 1, -2
1503685070045,-1, 0, -1, -1, 0, -3, -2, -2
1503685070061,2, 2, 1, -1, -1, -2, -3, 1
1503685070082,-3, -1, -1, 1, 0, -2, 1, -2
1503685070107,0, 0, 0, -1, 0, 2, -1, -1
1503685070121,1, -1, 0, -1, -1, 1, -1, 0
1503685070143,-1, -2, -1, -1, -2, -1, -1, 0
1503685070165,-1, -1, -3, -2, -1, 1, 2, 2
1503685070188,0, 0, 0, -1, -2, -4, 0, -1
1503685070203,-1, -3, -2, -2, 0, 0, -1, -2
1503685070225,1, 2, -1, 0, -1, -1, 0, 0
1503685070241,0, 1, 2, 0, -2, 0, -4, -2
1503685070263,1, 2, -2, -1, 1, 0, 0, 1
1503685070271,-1, 0, 1, -2, -2, -2, -3, -4
1503685070293,1, 1, 0, 1, -1, -1, 2, 4
1503685070316,0, -4, -4, 1, -1, -2, -2, -1
1503685070331,-1, 0, 2, 0, 1, -2, 1, -2
1503685070353,-1, 1, 0, -3, -1, -1, 0, -1
1503685070376,-1, -1, 1, 0, 1, 1, 0, 0
1503685070398,-1, 1, 1, 0, 0, -3, -2, -2
1503685070413,1, -1, -1, -3, -2, -1, -1, 2
1503685070438,-3, -4, -2, 0, -1, 1, 0, -3
1503685070451,0, 2, 3, -1, -2, -2, -2, 0
1503685070474,-2, -2, -4, -1, 0, 0, 0, 1
1503685070505,-2, -4, -1, -2, -1, -2, -1, -1
1503685070518,1, -3, 1, 0, -1, 1, 0, 1
1503685070533,-1, -3, -3, -2, -3, -2, -1, -4
1503685070561,1, 1, -1, 1, 2, 0, 1, -3
1503685070578,-3, -5, -1, 0, -1, -2, -3, -2
1503685070585,0, 0, 1, 0, 1, -1, 0, 0
1503685070609,0, 0, -1, 0, -1, 1, -1, -3
1503685070623,-1, 1, 1, -1, 0, 0, 3, -1
1503685070645,-2, -3, -2, 1, -1, -1, -2, -3
1503685070667,2, 0, 1, -2, -1, 0, -3, -1
1503685070683,-1, 0, 1, 0, -2, -3, 0, 1
1503685070708,-5, -2, 1, -3, -2, 0, 0, 1
1503685070714,0, 1, 0, 0, -1, -1, 0, 0
1503685070736,-2, -1, -2, 0, 1, 0, -1, -1
1503685070760,-3, -2, -3, -2, -4, -3, -1, -2
1503685070774,-1, 1, 0, -1, 0, 2, -1, -1
1503685070796,0, 0, -1, 0, 1, -2, 0, 0
1503685070818,2, 0, 1, 0, 1, 0, 2, 1
1503685070833,-7, -5, -2, -3, -2, -2, -6, -8
1503685070856,2, -1, 0, 0, -1, 0, -1, 2
1503685070879,-4, -2, -2, -2, -2, -2, -1, -5
1503685070893,-2, 1, -2, 0, -1, -1, 1, -2
1503685070910,-1, -2, -3, -1, -2, -2, -1, -4
1503685070923,-1, -1, -2, -1, 0, 0, -2, -1
1503685070947,-1, -2, 1, -1, 0, -2, 0, 2
1503685070968,-2, -2, -1, -1, 0, -2, -4, -2
1503685070983,-2, -1, 0, 1, -2, -1, -2, -3
1503685071005,-2, -2, -1, 0, -1, -1, -1, 0
1503685071027,0, -2, -4, -2, -2, -1, -2, -2
1503685071051,1, -1, -2, -2, 0, -1, 1, 3
1503685071072,2, 0, -2, 1, -1, 1, 1, 1
1503685071088,-1, 0, 0, -2, 0, -1, 2, -1
1503685071103,-2, -2, 0, 1, 0, 1, -3, -2
1503685071125,0, 1, -1, -1, -1, 0, 1, 0
1503685071148,0, 2, 0, -2, 1, -1, 1, 0
1503685071163,-6, -7, -4, 0, -6, -1, 0, -2
1503685071185,4, 0, -6, -17, -20, -11, -3, 0
1503685071210,7, 6, 1, -2, -1, -1, -1, 2
1503685071223,2, 0, 3, 17, 11, 5, -2, -3
1503685071248,-8, -5, -2, -13, 0, 0, 2, 0
1503685071267,-8, -3, 2, 12, 4, 3, -3, -8
1503685071283,-4, -4, -2, -13, 0, 4, 1, 1
1503685071306,5, 5, 0, -4, -14, -4, 2, 2
1503685071329,5, 3, 2, 1, -6, -5, 1, -3
1503685071351,7, 5, -5, 0, 4, 2, 5, 0
1503685071366,-10, -8, -1, 13, 20, -1, -7, -1
1503685071389,2, 1, -2, -7, -7, -2, -7, -1
1503685071413,1, 2, 4, 12, 7, 5, 3, 4
1503685071426,-21, -13, -4, -5, -6, -6, -6, -7
1503685071449,0, 5, 7, 16, 11, 0, -1, -4
1503685071471,9, 0, -2, 3, 1, -1, -1, -1
1503685071487,2, 0, -2, -16, -7, 9, 10, -1
1503685071512,-35, -21, -8, -7, -6, -7, -7, -5
1503685071532,15, 5, -2, 1, -3, -3, -3, 0
1503685071555,21, 16, 6, -4, -9, -1, -1, 3
1503685071561,3, -11, -7, -15, -10, 6, 0, 2
1503685071578,6, 3, -1, -5, -5, -4, 7, -5
1503685071599,-5, -1, 21, 8, 6, -1, -1, -3
1503685071622,-11, -7, -10, -4, 2, -2, -7, -12
1503685071636,7, 9, -13, -10, -6, -3, -1, 1
1503685071658,-9, -8, -12, 1, 4, -1, -1, -7
1503685071682,-16, -9, -7, -1, 0, -1, -2, 8
1503685071695,7, 0, 1, 3, 0, 0, -1, 1
1503685071720,-17, -6, 1, 6, -6, -8, -3, -3
1503685071741,4, -6, 3, -6, -6, -2, 7, 2
1503685071756,17, 15, 1, -4, -1, 1, -2, 1
1503685071781,11, -1, 0, 5, 8, 2, 0, -5
1503685071800,-3, 7, 8, -2, -1, 2, -2, 1
1503685071816,24, 6, 4, -3, 1, 0, -7, -9
1503685071838,-11, -7, -2, 23, 16, 1, -7, -2
1503685071861,10, 11, 3, -4, -7, -5, 1, 10
1503685071876,-2, 1, -9, -6, -2, 4, 8, 12
1503685071898,-22, -10, 2, 4, 6, 2, 10, 3
1503685071921,14, -5, -1, -8, -8, -8, -6, -2
1503685071935,-12, -10, -7, -10, -8, -6, -7, -4
1503685071958,-43, -1, 9, -4, -2, -2, 0, -15
1503685071983,-8, -12, -7, 11, 22, 9, -3, -1
1503685071996,28, 7, -7, -8, -9, -2, -1, -3
1503685072019,-51, -8, 4, 1, -3, -2, -6, -18
1503685072040,25, -4, -7, 3, 3, 7, 9, 9
1503685072056,10, 11, 1, 0, 2, -1, 0, -1
1503685072078,10, 13, 10, 1, -3, 1, 6, 11
1503685072101,27, -2, -1, 2, -2, -6, -9, 1
1503685072116,36, 19, 0, -3, -4, -2, -1, -3
1503685072138,-45, -25, -5, -1, -2, 1, -2, -6
1503685072161,27, 10, 0, 3, 0, 6, 15, 29
1503685072176,15, 16, 3, -10, -17, 4, -18, -25
1503685072194,28, -1, 9, 4, 2, 11, 17, 47
1503685072207,-29, -17, 3, -9, -12, -10, -6, -58
1503685072229,13, -17, -32, -3, 2, -1, 11, 1
1503685072236,-27, 10, -3, -5, -1, 6, 12, -22
1503685072259,48, 11, 11, 10, 8, 2, 2, 38
1503685072281,28, 10, -1, -3, -5, -7, 2, -10
1503685072296,-18, 27, 24, 5, 2, 8, 6, 13
1503685072318,-47, -5, 13, 1, -3, -16, -21, -48
1503685072334,-21, 5, 8, 0, -5, -6, -8, -13
1503685072356,-11, -22, -10, -9, -12, -6, -17, -50
1503685072371,-29, -19, -25, -15, -9, -12, -17, -38
1503685072394,18, 37, 17, 4, 2, 7, 26, 25
1503685072409,13, 23, 14, 2, 0, -1, -8, -21
1503685072431,-2, -29, -10, -1, 1, -8, -16, -28
1503685072453,15, 3, -3, -1, 0, -1, 1, -13
1503685072469,-1, -22, -13, -6, -7, -8, -2, -12
1503685072491,-3, 2, 6, 3, -2, -7, -2, 3
1503685072513,-21, -4, 2, 0, 0, -1, -2, 2
1503685072529,27, 21, 16, 6, 1, 1, 1, 14
1503685072553,-19, 4, 3, 3, 3, 1, 0, -34
1503685072573,26, 15, -1, 5, 11, -1, -5, 1
1503685072596,8, 2, 2, -6, -12, -3, 2, 7
1503685072611,-2, -5, -6, -15, -15, 2, 7, 2
1503685072633,-7, -6, -3, -6, -4, -3, -4, 5
1503685072649,-19, -12, -1, 3, -3, -6, -13, -6
1503685072671,-10, 5, -7, -13, -14, -6, -4, -8
1503685072701,-10, -10, -4, 0, -6, 2, -3, 0
1503685072708,16, 5, 1, -2, 1, -3, 2, 7
1503685072731,-14, -4, -1, -2, -7, -7, -11, -7
1503685072755,-2, -3, -1, 7, 11, 1, 0, 8
1503685072769,-22, -20, -7, -1, 3, 5, -3, -1
1503685072791,1, -9, -3, 3, 9, 0, -5, -8
1503685072814,20, -1, 2, -2, -6, -4, 8, 11
1503685072829,-16, 28, 38, 9, -2, -1, 0, -8
1503685072844,-23, -17, -12, -6, -4, -3, -1, -4
1503685072858,-4, 4, 6, 2, -2, -2, -6, -14
1503685072880,-7, 24, 19, -13, -24, -5, 2, 9
1503685072903,11, 11, 3, 3, 5, 1, 3, 4
1503685072918,5, -4, -1, 1, -1, -6, -6, -22
1503685072940,-47, -15, -13, -6, -3, -4, -8, -6
1503685072965,-1, -4, 0, 4, 8, 8, 7, 5
1503685072978,0, 0, 3, 17, 33, 6, 10, 3
1503685073001,-19, -19, -2, -2, -12, -7, -2, -7
1503685073023,3, -13, -17, -15, -15, -4, -10, -2
1503685073038,-7, 6, 7, 5, 3, 0, -8, -10
1503685073064,-10, -17, -9, -3, -1, 2, 2, -9
1503685073083,-14, -2, 1, 1, -2, 2, 6, 8
1503685073098,15, 9, 3, -1, -4, -5, 2, 1
1503685073123,30, 27, 22, 6, 2, 2, 0, 12
1503685073143,-1, -2, -5, -5, -2, 2, 2, 9
1503685073159,-14, 2, 3, 3, 0, -4, -9, -17
1503685073180,-2, 0, -5, -1, -3, 0, 6, 5
1503685073203,-6, -7, -7, -2, -1, 0, -3, -3
1503685073218,11, 2, 7, 3, -2, -3, -4, 10
1503685073233,1, 17, 9, 2, 3, 2, -6, -44
1503685073240,37, 3, -3, -1, -2, 2, 7, 29
1503685073265,-6, 35, 32, 7, 1, 0, -4, -6
1503685073287,3, -11, -14, -5, -3, -2, -3, -10
1503685073301,9, 8, 9, 5, 2, -2, 0, -3
1503685073325,-3, -16, -6, 2, 1, 3, 4, 25
1503685073346,-4, 0, -1, 1, 1, -1, 1, 18
1503685073361,5, -5, -3, -2, -1, 0, -1, 6
1503685073385,-16, -7, -2, -2, -2, -2, -2, -10
1503685073392,1, 7, 1, -2, 0, -1, 2, -9
1503685073414,-35, -23, -13, -7, -3, -3, 1, -11
1503685073436,-7, -1, 0, 3, 0, 3, 5, -9
1503685073451,-14, -5, -1, -1, 0, -1, -1, 9
1503685073473,-3, -2, 0, 2, -1, -1, 1, 1
1503685073481,18, 3, 1, -2, -3, -4, -4, -20
1503685073508,3, 5, 7, -3, -3, 2, 5, 4
1503685073529,-2, -16, -12, -3, -1, -2, -6, -21
1503685073541,5, 6, 4, 4, 4, 1, 0, 3
1503685073563,2, 3, -5, -1, 0, 1, 6, 13
1503685073586,1, -6, -1, 0, 0, -1, 0, -3
1503685073602,6, -2, -2, 0, -1, 1, -4, -5
1503685073623,-2, -4, -2, 0, -1, -1, 2, 2
1503685073646,-13, 0, 4, 0, 0, -1, 1, -18
1503685073661,-4, 6, -5, -1, -1, -1, -2, 1
1503685073688,0, 4, 11, 2, 0, -1, -3, -11
1503685073706,-11, -4, -5, -4, -3, -2, -2, -5
1503685073721,1, -4, -4, 0, 0, 0, -1, 5
1503685073743,3, 4, 3, 0, 0, 1, 0, 1
1503685073766,-12, -13, 1, 3, 3, -1, -2, 7
1503685073781,0, -4, -9, -4, -2, 1, 5, 14
1503685073804,10, -12, -11, -1, -1, 1, -5, -2
1503685073828,-5, -4, -6, -3, -3, -3, -3, -8
1503685073841,-1, 3, 2, 1, -2, 1, 6, -6
1503685073863,-3, 7, 5, 2, 0, -1, -5, -4
1503685073886,-2, -4, 0, -3, 0, -1, 5, 3
1503685073901,-8, 7, 4, 2, 0, -1, -3, -5
1503685073923,-9, 6, 2, -5, -6, -4, -4, -8
1503685073946,-3, -10, -5, -3, -2, -2, 2, 1
1503685073963,9, -9, -6, -1, 2, 1, -2, 1
1503685073983,1, -6, -10, -4, -1, -4, -9, -4
1503685074006,-14, 0, 7, 2, 0, -2, -2, -7
1503685074021,15, 2, -3, -2, -4, -1, 0, 4
1503685074043,15, 10, 8, 6, 2, 1, 1, 9
1503685074066,-5, -5, -4, -4, -6, -4, -8, -3
1503685074081,13, 7, 1, 5, 8, 3, 6, 4
1503685074103,10, 12, 21, 13, 7, 1, -1, 1
1503685074139,-2, -7, 1, 4, 1, -3, -4, -1
1503685074166,-1, -6, -2, -3, -1, -3, 4, -2
1503685074171,6, -2, -4, 0, 0, -3, -2, 1
1503685074194,10, 1, -3, -4, -1, -1, -4, 4
1503685074216,-19, -13, -4, -6, -5, -2, -4, -7
1503685074238,2, -4, -3, -8, -9, -2, 0, 2
1503685074254,5, 10, 10, 5, 6, 3, -3, -5
1503685074282,1, 1, 3, 7, 8, 1, 0, 1
1503685074300,8, 4, 0, 2, -1, 1, 0, 6
1503685074314,2, 7, 8, 9, 11, 6, 2, 0
1503685074336,-7, 2, 1, 7, 3, 3, 1, 2
1503685074358,10, 6, 8, -3, -8, -4, -7, -4
1503685074374,6, -1, -3, -10, -8, -4, -1, -2
1503685074395,-9, -2, -1, -1, 1, -1, 4, 0
1503685074418,-9, -6, -5, -1, 0, -1, -7, -4
1503685074434,-16, -4, 5, -3, -6, 0, 2, -4
1503685074456,-11, 5, -3, -2, -1, -3, -3, -1
1503685074478,5, -16, -9, 0, -1, -1, -4, -2
1503685074494,-5, 24, 13, 2, -2, -2, 0, -4
1503685074516,2, -14, -11, -7, -5, -2, 5, 2
1503685074538,0, 7, 0, 3, 8, 2, -4, 0
1503685074546,0, 1, 5, 10, 10, 3, -4, 2
1503685074568,7, 28, 17, 2, -6, -2, -5, -6
1503685074583,-3, -15, -11, -6, -3, -1, 1, 3
1503685074606,-4, -8, -4, -2, 0, -1, 1, -1
1503685074627,-4, -1, -7, -6, -6, -3, -2, -2
1503685074644,-1, -12, -7, -4, -2, -2, -1, -2
1503685074667,-7, -24, -9, -3, -2, -2, -4, -2
1503685074688,1, -8, -4, 4, -1, -2, -6, 0
1503685074703,1, 3, 1, -2, -4, 0, 1, 1
1503685074726,3, -1, 0, -3, -1, 1, -2, -2
1503685074747,1, 8, 7, 0, 0, 1, 5, 4
1503685074756,-6, 3, -1, -1, -2, 0, -2, -2
1503685074778,-1, 5, 9, 4, 4, 0, 1, -2
1503685074793,4, -5, -7, -1, -2, -4, -10, 0
1503685074815,1, -6, -4, -3, -3, 0, -5, -1
1503685074824,0, -10, -8, -1, -3, -1, -2, 2
1503685074846,-4, -15, -11, -3, -4, -2, 4, 0
1503685074870,-1, -7, -6, -1, -1, 0, -1, 0
1503685074890,2, 6, 2, 1, 1, -1, -1, -2
1503685074913,-1, -2, -4, -5, -3, -2, 2, 2
1503685074927,-4, -4, -4, -1, 1, -1, -4, -4
1503685074944,-2, 7, 5, 3, 5, 0, -3, -1
1503685074966,0, -1, -2, 0, -1, -2, -1, 3
1503685074987,-5, 0, -1, -4, -4, -3, 0, -4
1503685075003,-1, 0, 1, 1, 1, 2, 0, -3
1503685075025,1, 6, 7, 12, 11, 3, -1, -3
1503685075047,-2, 3, 4, -5, -5, -1, 1, -3
1503685075063,-1, -9, -9, -5, -5, -2, -1, 0
1503685075085,-2, 0, -3, 0, -3, 0, -3, -2
1503685075108,-3, -5, -4, -1, -1, -2, -2, -5
1503685075123,-3, -4, -4, 2, 4, 0, 1, 3
1503685075146,4, 1, -2, -7, -7, 1, 1, 4
1503685075167,0, -2, 0, -2, -3, -2, -1, 1
1503685075190,0, 1, 0, 1, -4, -3, 0, 0
1503685075210,-7, -3, 2, 0, -1, -2, -2, 0
1503685075227,-5, -1, 3, 5, 5, 1, -1, -3
1503685075250,-1, 1, -2, -1, -2, -4, -1, -1
1503685075265,7, 3, 0, -6, -5, -2, -1, 2
1503685075287,1, -1, -3, -4, -8, -7, -7, -1
1503685075310,-1, 0, -1, -1, -1, -4, -10, -3
1503685075326,-1, -4, -4, 1, 0, 3, 5, -5
1503685075348,3, 8, 4, 2, 4, 6, 3, -6
1503685075371,0, 0, -1, 1, 1, 3, 6, 2
1503685075386,-2, 1, 0, 1, 3, -1, -6, -2
1503685075412,2, -1, -1, -1, -2, -1, 2, 2
1503685075431,2, -2, -1, 0, 0, 0, 1, 3
1503685075446,-1, -2, 2, 2, 1, -1, -4, -3
1503685075461,3, 1, 1, -1, -1, -1, -1, 0
1503685075476,0, -1, -1, -1, -1, -6, -2, 1
1503685075498,0, -1, -1, -1, -1, -4, -5, 3
1503685075521,-3, -2, 0, 0, 1, 2, 0, -1
1503685075538,-1, 0, -1, 0, 0, 0, 1, -2
1503685075558,2, 3, 0, -1, -3, 0, -2, -4
1503685075581,-2, 1, 2, 1, 0, -1, -2, -2
1503685075596,2, 1, -2, -2, 0, -1, -2, 0
1503685075618,7, 0, -2, -1, -1, -2, 1, 5
1503685075641,-6, -2, 2, 5, 1, 0, -2, -2
1503685075649,1, -2, -1, 1, 0, 0, 0, 0
1503685075670,-8, -4, 0, -2, -3, 0, 0, 0
1503685075686,4, 1, 1, 1, -2, 1, 2, -4
1503685075708,0, 0, 1, 2, 3, 0, 0, -2
1503685075730,-2, -3, -1, -4, -4, -1, 1, 4
1503685075746,10, 0, -5, -2, -3, -4, -2, -3
1503685075768,-8, -3, 2, 1, 2, 3, 1, 1
1503685075790,-4, 3, -2, -3, -3, -4, -4, -6
1503685075806,0, -1, -2, -3, -3, -1, 1, 1
1503685075828,-6, -2, 0, 2, 1, 1, 0, -2
1503685075851,-3, -3, 0, 0, 1, 0, -3, -7
1503685075866,-5, -4, -2, 0, 1, 1, 2, -3
1503685075887,6, 3, 0, -2, -2, 0, -1, 3
1503685075910,4, 4, 2, 1, 2, 0, 1, 2
1503685075932,0, 0, -2, -2, -3, -2, -4, 0
1503685075947,-7, -1, 0, -1, -2, 4, 1, -5
1503685075970,-2, -4, -2, 1, -2, -2, -4, 1
1503685075986,2, -1, -1, -2, -3, -3, 0, -1
1503685076007,-2, 1, -2, -1, 1, -1, 0, 1
1503685076031,2, -3, 0, 0, 2, -1, 2, -1
1503685076046,1, -3, -3, -2, -3, -4, -4, -2
1503685076067,3, 3, 1, 0, 0, -1, -2, -1
1503685076090,0, -4, -1, -2, -1, 0, -2, 0
1503685076113,-2, 0, 0, 0, -2, -2, -2, 2
1503685076127,-2, -2, 0, -2, -1, 0, 0, 2
1503685076157,-1, 5, 4, 1, 0, 1, 4, 1
1503685076172,-4, -1, -3, -1, 1, -1, 0, -2
1503685076187,-8, -4, -1, -1, -2, -2, -5, -6
1503685076212,4, 4, -1, 1, 0, 1, -2, 1
1503685076232,3, 3, 0, -2, 1, -3, -1, -1
1503685076248,-2, 0, -1, -1, -3, 0, -2, 0
1503685076264,-9, -6, -1, -1, 0, -2, 0, 1
1503685076278,4, 1, 0, 1, 1, 2, 0, -1
1503685076300,-4, -2, -2, -3, -4, -2, -2, -1
1503685076323,2, 0, 0, 0, -1, 1, 0, -1
1503685076338,-2, 0, -2, -1, 0, 1, 1, -2
1503685076360,0, 2, 0, -3, -3, 0, 0, 0
1503685076383,-3, -3, -2, -1, 0, -5, -3, -1
1503685076398,4, 4, -2, 1, -1, 0, 0, 0
1503685076422,2, 2, 2, 0, 0, -1, 2, 1
1503685076443,-1, -1, 0, -2, 0, 1, -1, -2
1503685076458,3, 2, 1, 1, 0, 0, 0, 0
1503685076481,-2, -3, 0, -1, 0, 1, 1, -1
1503685076503,-2, -3, -1, -1, -3, -3, -2, 0
1503685076518,1, 0, -1, -1, -2, -1, -2, 3
1503685076540,-6, -3, -2, -2, -1, -1, -1, -5
1503685076563,-3, -5, -1, -1, 0, 1, -3, -5
1503685076580,2, 2, -1, -1, 0, -3, 0, 0
1503685076603,4, 0, -3, 0, 0, -1, -1, 1
1503685076623,3, 1, 0, -1, -1, -3, -2, -2
1503685076638,-1, -1, -1, -1, -2, 1, -3, -2
1503685076660,2, -2, -2, -2, -3, -2, -2, -2
1503685076683,-4, 0, 0, 1, -1, 0, 0, 1
1503685076698,7, 3, -1, -1, -1, -3, 1, -1
1503685076721,7, 6, -1, -1, -2, -3, -4, -2
1503685076743,-1, -2, -1, 0, 0, 2, 2, 1
1503685076758,-14, -8, -2, -2, 0, 1, -1, 0
1503685076782,-2, -1, 0, 0, -1, 0, 0, 1
1503685076803,-1, 3, 0, -1, 1, -2, -3, -3
1503685076811,-1, 0, -2, -2, -1, -2, -4, -6
1503685076833,0, 0, -2, -1, 1, -2, -1, -3
1503685076856,2, -1, 0, -1, -1, 1, 1, 1
1503685076871,5, 1, -1, -1, -1, 1, 2, 1
1503685076893,-7, -3, -3, -1, -1, -1, -3, -5
1503685076918,1, 1, -1, -1, -1, 0, -4, -1
1503685076931,-4, -3, -1, 1, -1, -2, -2, -3
1503685076953,-1, -2, -2, 0, -2, 1, 1, 0
1503685076976,0, 0, -1, -2, -1, -2, -1, 0
1503685076992,-3, 0, 0, -2, -1, -3, -2, 0
1503685077013,2, 0, 1, 0, 0, -2, -1, -1
1503685077036,-4, -1, 0, -1, -1, -1, 0, -2
1503685077051,-1, -1, 0, -2, 0, -2, -2, 0
1503685077066,1, -1, -1, 1, 1, 1, 0, 2
1503685077090,-15, -8, 0, 0, -1, 0, 1, -1
1503685077103,1, 2, -3, -1, -1, 1, -3, -2
1503685077127,4, 1, 1, -2, -1, 0, 1, 2
1503685077140,-2, -1, -4, -1, -1, -1, 0, 1
1503685077163,0, 1, 0, -1, -1, -3, -5, -4
1503685077186,4, 2, 0, -2, -4, -3, 0, -2
1503685077200,-1, -1, -2, 1, 0, 0, 2, 1
1503685077223,3, -1, -3, -1, 0, -1, -1, -1
1503685077245,-8, -3, -1, 0, -1, 0, -1, -1
1503685077261,7, 2, -2, -2, -2, -1, -3, 1
1503685077285,-1, 0, 2, 0, 0, 0, 0, -1
1503685077305,-5, -5, -3, -1, 0, -2, -2, -4
1503685077322,3, -1, -2, -1, -1, 0, 0, 2
1503685077343,-4, -5, 0, 1, -1, -1, -1, 0
1503685077366,-8, 0, -3, 0, -1, 0, -2, -2
1503685077380,1, 0, -1, -2, -1, -1, 1, -1
1503685077403,0, -1, -1, -2, -1, -3, -1, 0
1503685077426,1, 1, 0, 1, 0, -1, -3, -4
1503685077457,2, -1, 2, 0, 1, 0, 0, 0
1503685077471,-2, 0, -2, -2, -1, 0, -1, 0
1503685077493,-6, 1, 3, -1, -1, -2, 0, 0
1503685077516,-5, -4, -3, 0, 0, -1, -2, -2
1503685077531,-4, 1, 0, 1, 0, 0, -2, 1
1503685077555,0, -1, -1, 1, -1, -1, -1, -1
1503685077576,1, 0, 2, 1, 0, 0, 0, -1
1503685077591,-4, 0, -1, -1, -3, 0, -1, -2
1503685077614,-1, -2, -4, -2, -2, -2, -1, -3
1503685077636,-2, -4, -2, -2, -1, -1, 0, -1
1503685077651,1, 0, -1, 0, -1, -1, 1, -1
1503685077673,-2, -4, -1, -1, 0, -1, -1, -3
1503685077697,1, 1, 0, -1, -1, -2, -3, -1
1503685077711,2, 1, -2, -1, -1, 0, -2, 0
1503685077733,-2, -1, 1, -1, 0, -3, 0, 1
1503685077759,-2, -2, -2, -2, 0, -3, -1, -1
1503685077765,3, 1, -2, -2, -3, -2, 2, 0
1503685077785,7, 2, -2, -1, 0, 1, 1, 1
1503685077800,-2, 0, -1, -2, -2, -3, -3, -3
1503685077818,-2, 1, -1, 0, 1, -2, -1, 1
1503685077832,-10, -6, -2, -2, -1, 0, 1, 1
1503685077856,-1, -5, -1, 1, -1, 0, -2, -2
1503685077861,-4, -2, 0, -2, 1, 0, 0, -2
1503685077883,-4, 0, -3, -1, -2, 1, -2, -3
1503685077905,-5, 1, 2, -1, 1, 1, 1, -1
1503685077921,-1, -2, -2, 1, 2, 0, 0, -2
1503685077943,2, -4, -3, 1, -1, -3, -2, -2
1503685077965,-13, -5, -1, -5, -4, -4, -4, -4
1503685077991,7, 1, -1, 4, 7, 3, 1, 5
1503685078003,-3, -3, -2, -7, -7, -3, 1, -2
1503685078026,7, 3, 0, 1, -13, 1, -1, 1
1503685078048,-6, 1, 2, -3, -15, 0, 3, 0
1503685078063,0, 1, 4, 13, 9, 5, 1, -2
1503685078085,3, -2, 0, -12, -8, -1, 0, 0
1503685078108,8, 3, -3, 7, 19, 6, 4, 0
1503685078127,0, -2, 7, 26, 28, 10, 9, 1
1503685078145,0, 1, -7, -24, -18, -11, -1, -1
1503685078168,6, 7, -4, -4, -5, 0, 0, -1
1503685078183,5, -1, 4, 0, 6, 4, -6, 2
1503685078205,1, 4, -1, 5, 2, 2, -12, -3
1503685078231,0, -1, -3, -4, -7, -13, -6, 0
1503685078243,-15, -16, -5, -7, -9, -12, -6, -4
1503685078266,-9, 1, 1, 1, 6, -4, 0, -3
1503685078288,-3, -9, 1, -12, -11, -5, 1, 1
1503685078303,17, 15, -19, -6, -4, -1, -1, -1
1503685078328,0, 8, 4, 5, 1, 0, 0, -2
1503685078348,-11, -8, -5, 0, -1, 2, -1, -1
1503685078364,10, 4, 2, -1, -1, -3, -3, -3
1503685078385,-10, -12, -2, -3, -1, 1, 5, -2
1503685078408,9, 2, 9, 4, 5, 1, 1, 2
1503685078423,0, -6, 2, 4, -3, 0, 0, 3
1503685078446,5, 11, 2, -7, -7, -7, -6, -9
1503685078469,9, 4, -1, 0, 2, 3, 3, 9
1503685078483,-14, -8, -4, -1, -1, 1, 0, 1
1503685078505,-1, -12, -2, -2, 6, 1, -2, -2
1503685078528,-12, -6, 0, 3, -3, -1, -3, 0
1503685078543,-3, -5, -5, -6, -2, 0, -2, -1
1503685078565,-15, -16, -23, -7, -1, -1, 2, -5
1503685078573,-6, 17, -4, -8, -7, -4, -8, -10
1503685078597,-2, -3, -1, 0, 1, -2, -2, -5
1503685078618,-1, -10, -3, -1, -7, 0, 3, 10
1503685078634,6, -1, -1, -8, -5, -2, -1, -1
1503685078656,1, -10, -6, -5, -5, -2, -2, 5
1503685078678,5, -3, 4, 7, 9, 4, 4, 3
1503685078695,-1, 12, 10, 4, 1, 0, -1, -4
1503685078723,-6, -8, -4, -11, -24, -7, -1, -2
1503685078738,-7, 2, 3, -4, -4, -3, 3, -2
1503685078753,2, 10, 7, 5, 2, -1, -4, -10
1503685078776,-17, -20, -7, -3, 5, 0, -2, -12
1503685078799,3, -4, -3, 2, 11, 0, -6, 2
1503685078813,-5, -6, 1, 1, 2, 0, -16, -1
1503685078836,13, 7, 0, -9, -18, -2, 6, 5
1503685078859,-6, -4, 4, 6, 4, -1, 6, -2
1503685078880,10, 8, 4, 2, 8, 1, -1, -8
1503685078897,-6, -14, -6, -6, -8, 1, 6, -6
1503685078918,2, 6, -1, 0, -6, -8, -9, -5
1503685078940,18, 24, -1, -1, 0, 0, 0, -3
1503685078956,-16, -20, -10, -10, -17, -4, 5, 10
1503685078978,-6, 12, -4, 0, 6, 9, 1, -7
1503685079001,-11, -10, -1, -7, -19, -5, 1, 6
1503685079016,-2, 2, 3, 6, 17, 6, 2, 11
1503685079040,-7, -22, -1, 29, 58, 8, 1, -2
1503685079060,9, 9, -3, -14, -30, -7, -6, -15
1503685079076,-6, -10, -7, -16, -11, -5, -9, 0
1503685079098,-9, -10, 2, 3, 14, -4, -9, -3
1503685079121,-9, 3, 0, -7, -14, -4, 1, -8
1503685079136,-2, -5, 6, 0, -8, -1, -2, 4
1503685079158,-2, -4, 4, -3, -2, 4, 7, 18
1503685079180,22, 4, -5, 6, 9, 3, 1, -3
1503685079198,11, 19, 4, 7, -1, -4, -2, 3
1503685079218,1, -4, -2, -9, -21, -4, 9, 33
1503685079241,-11, -4, -1, -1, -4, -4, -2, -11
1503685079256,-10, -8, 0, 7, 9, 8, -3, -14
1503685079278,22, 30, 22, 4, 10, 3, -3, -2
1503685079300,-4, -9, -14, -8, -1, 0, -6, -6
1503685079316,-2, 8, -9, -1, -6, -8, -6, -11
1503685079338,-12, -7, -4, 1, 2, -4, -7, 13
1503685079360,27, 30, 3, 2, 3, 0, 8, 3
1503685079377,12, 8, 3, 5, -4, 5, 3, 1
1503685079400,-4, -11, -2, 2, 3, -2, 10, 3
1503685079420,-23, -23, -3, -4, -3, -4, -3, -19
1503685079439,-2, 4, -7, -7, -6, -6, -12, -37
1503685079458,7, 8, 3, 5, 3, 2, -4, 23
1503685079480,-6, -9, -1, -2, -3, -9, -7, -14
1503685079496,7, -5, -23, -14, -6, -7, -4, 3
1503685079518,-8, -12, -2, -2, 0, 1, 2, 4
1503685079540,21, 9, -3, -3, -1, 1, -3, 7
1503685079556,-13, -9, 5, 3, 2, 6, 7, 7
1503685079578,-28, -13, 0, -3, -1, -1, 5, -22
1503685079602,-7, -6, 2, 3, -1, 4, -2, -17
1503685079616,23, 13, 0, -2, -1, -4, -1, 6
1503685079638,-21, -2, 6, 8, 5, 2, 3, 9
1503685079660,-1, -5, -8, -5, -2, -3, 0, 8
1503685079677,-4, 5, 6, 0, -2, -2, -3, 2
1503685079698,1, -15, -4, -2, -3, 2, 0, 3
1503685079720,11, -4, -4, -2, -1, -1, 1, 8
1503685079738,3, 1, 5, 3, 3, 0, -2, 2
1503685079758,0, 3, 1, 0, 0, 0, 3, -9
1503685079780,-3, -6, 6, 2, 0, 2, 0, -2
1503685079803,5, 6, -2, -2, -3, -5, -1, 2
1503685079819,8, -3, -2, -1, 0, -1, -3, -8
1503685079840,-18, -8, -3, -2, -1, -2, 1, -2
1503685079863,5, 0, -3, -2, -4, -1, -4, 3
1503685079880,-2, 12, 19, 5, 0, 2, 3, 4
1503685079907,3, -4, -5, -1, 0, -1, 2, 2
1503685079923,8, -2, -4, -3, -3, -2, -4, 1
1503685079939,-1, 2, -2, 1, 0, -1, -1, 4
1503685079960,-8, -4, -4, -1, 0, 2, 4, -8
1503685079983,-4, -2, 3, 2, 1, -1, -2, -3
1503685079999,1, -2, -5, -4, -1, -1, -3, 2
1503685080021,-7, 1, 2, -7, -5, -2, -3, -3
1503685080045,0, -2, 2, -2, -5, -3, -6, 7
1503685080051,2, 4, 1, -1, -1, 0, -1, 2
1503685080073,-2, 3, 6, 9, 2, 1, 0, -3
1503685080088,3, 0, -4, -1, 1, -2, 1, 6
1503685080111,-3, 0, 1, 4, 0, -2, -5, 0
1503685080132,1, 3, 15, 0, 0, -1, -4, 2
1503685080148,-14, 0, 3, -2, -4, -2, 1, -5
1503685080172,7, 0, -4, 0, 2, 1, 2, 2
1503685080192,-2, -1, -1, -1, 1, -2, -1, -4
1503685080215,3, -3, -5, -2, -2, 0, 0, 3
1503685080230,3, -1, -8, -1, 1, -2, 1, -1
1503685080241,1, -4, -4, -5, -3, -2, 2, 5
1503685080260,-2, 1, 0, -6, -3, -2, -2, 1
1503685080283,-3, -3, -3, 2, 3, 0, -2, -3
1503685080298,8, -6, -9, -1, -1, -2, -3, 2
1503685080321,6, -4, -4, -4, 0, -2, 5, 5
1503685080343,-11, 15, 15, 7, 5, -1, -4, -8
1503685080358,-11, -7, -3, -1, -6, 0, 2, 3
1503685080382,2, -9, -12, -9, -6, -2, -1, 1
1503685080403,1, -2, 0, 0, -3, -2, 1, -3
1503685080418,0, 14, 16, 6, 4, 0, -7, -5
1503685080449,2, -12, -10, -3, 0, -2, -4, -5
1503685080463,1, 2, 5, 3, 4, 2, 1, 4
1503685080471,0, -5, -2, 0, -1, -2, -3, -3
1503685080492,14, 2, -1, -1, -1, -2, 0, 6
1503685080509,-1, 2, 1, 0, 1, 1, 1, -2
1503685080531,-10, 6, 5, -3, -3, 1, -5, -5
1503685080552,-2, 8, 2, 1, -1, -1, -1, 3
1503685080568,-1, -13, -8, 1, 1, -2, 1, 0
1503685080590,2, 8, 3, 2, 1, 1, -4, -4
1503685080612,-3, 4, 4, 1, -1, -4, -6, -6
1503685080635,-1, -3, -2, 0, -1, -1, 1, -5
1503685080652,1, -5, 1, -2, -2, 0, 3, 3
1503685080672,-1, -6, -10, -6, -4, -2, 1, 2
1503685080688,3, 3, 5, 3, 2, 1, 2, 1
1503685080710,1, -7, -10, -6, -8, -4, 0, 3
1503685080733,-1, -9, -4, -2, 0, 1, 2, -1
1503685080755,-4, -2, -1, 0, 1, -2, -4, -4
1503685080770,-7, 8, 3, 3, 5, 1, -1, 0
1503685080792,2, 3, 5, 4, 2, 0, -4, -1
1503685080815,-6, -7, -5, -13, -9, -2, 1, 2
1503685080830,5, 12, 1, -3, -1, 0, 3, 1
1503685080852,2, -9, -6, -3, -3, -2, -4, -2
1503685080874,-1, -5, 1, 1, 1, -1, -3, 2
1503685080890,-11, 11, 14, 0, -3, 0, 1, -4
1503685080912,0, -6, -5, -2, -1, -2, -1, 1
1503685080934,0, -3, 1, 14, 17, 5, 4, -1
1503685080950,0, -6, -5, -12, -13, -6, -4, -2
1503685080974,1, -1, 0, 0, 0, 0, 0, 1
1503685080995,3, 1, -7, 1, 0, 0, 0, 1
1503685081013,1, -14, -11, -4, -2, -1, 2, -4
1503685081032,0, -1, -1, -6, -3, -1, -5, -4
1503685081055,3, -10, -10, -3, -2, -2, -3, 1
1503685081071,-6, 4, 2, 3, 1, 1, 0, -3
1503685081092,-2, 0, 5, -1, -2, -1, 1, -5
1503685081119,-2, 1, 4, 0, 0, -1, -3, -1
1503685081130,4, -1, -3, 0, -1, 0, 2, 4
1503685081152,-1, 5, 2, 0, 0, 1, 2, 1
1503685081174,-3, -2, -3, -2, 2, -3, -3, -4
1503685081191,-2, -5, -4, -2, -1, -3, -2, -1
1503685081216,-1, 10, 4, -1, -2, -2, -1, 1
1503685081234,8, -2, -2, 2, -1, 1, -2, 3
1503685081251,-2, 2, 5, -1, -1, 1, 3, -2
1503685081282,-4, -7, -3, 6, 5, 0, 1, -5
1503685081303,1, 1, 1, 3, 2, 1, -2, -1
1503685081325,-2, -2, -1, -5, -6, -1, -1, -1
1503685081340,-3, 0, -1, -9, -5, -1, 3, 1
1503685081363,8, 4, 2, -2, -2, 0, -3, 2
1503685081385,0, 1, 1, -3, -4, -3, -2, 0
1503685081400,0, 2, 1, 1, -3, -1, -2, 0
1503685081423,-1, -5, -9, -4, -1, 0, 2, -2
1503685081452,-2, 0, 1, 4, 7, 2, 0, 2
1503685081460,-3, -4, -2, -4, -5, -3, -3, -3
1503685081485,0, 0, 1, 5, 2, -2, -1, -1
1503685081505,0, 0, 0, -1, -4, -3, -7, -3
1503685081521,-4, -1, -1, -4, -1, 5, 4, 1
1503685081535,-1, -5, 0, 2, 0, 3, 5, -1
1503685081550,-7, -3, -5, -4, 1, 0, 2, -4
1503685081572,1, 4, 3, -1, 0, -3, -6, 1
1503685081595,4, -1, -1, -2, -2, -3, 4, 4
1503685081610,5, 1, 1, 7, -1, 1, -5, 1
1503685081632,-9, -4, -6, -6, -8, -6, -3, -8
1503685081656,-8, -10, -5, 0, -1, -4, -5, -7
1503685081679,-2, 4, 3, 2, 1, -5, -4, -10
1503685081692,3, 2, -2, -6, -2, -4, -2, 5
1503685081708,1, 1, 1, 9, 11, -1, -3, -2
1503685081723,0, -1, -1, -3, -4, 5, 0, 0
1503685081745,-4, 1, -2, -3, 1, 9, 6, 0
1503685081768,-7, -7, -3, -3, -1, -8, -4, -2
1503685081783,5, 4, 1, 0, 2, -8, -5, 1
1503685081805,-2, -2, 0, 3, 0, 5, 2, -3
1503685081828,2, -1, -3, -2, -3, 3, 3, -7
1503685081843,-2, -1, 1, 6, -2, -2, -2, -1
1503685081865,0, -1, -1, -7, -6, -2, -2, 2
1503685081888,-1, 0, -2, -2, -4, -2, -6, 0
1503685081902,4, -2, -3, -5, -3, -2, -3, -2
1503685081927,10, 3, 4, 2, 8, 5, 5, 10
1503685081948,-23, -7, -7, -8, -3, -5, -10, -11
1503685081963,18, 5, 1, 4, 1, -1, 2, 4
1503685081985,0, -4, 1, 11, 11, 3, 4, -2
1503685082008,0, -1, -1, -4, -6, -1, 1, 1
1503685082023,-21, -9, -5, -4, -5, 2, -4, -7
1503685082045,-24, -1, 3, 1, 0, 0, 0, -3
1503685082068,14, 6, 2, 1, 1, -2, 4, 6
1503685082083,9, 3, -4, -6, -4, -4, -2, -3
1503685082105,14, 3, -2, -3, -3, -5, 1, 4
1503685082129,-5, -5, -3, 0, -1, -1, -5, -1
1503685082136,-5, -6, -1, -3, -1, 0, 1, -3
1503685082159,-1, -1, -3, -1, 1, -1, 1, -1
1503685082173,-1, 1, 1, 2, 2, -1, -3, 0
1503685082196,3, -1, -2, -3, -1, -2, -1, -2
1503685082203,-5, -2, 1, 0, 2, -1, -4, 1
1503685082228,0, 0, 1, 1, -2, 0, 1, 0
1503685082248,-2, -3, 0, -1, -3, -1, 0, 0
1503685082263,2, -1, -2, -1, -1, -1, 0, -2
1503685082287,5, -1, 0, 0, -1, -2, 0, 0
1503685082300,3, 1, -1, 3, 1, 0, 3, 5
1503685082316,-7, -5, -2, -2, -2, 0, -2, -3
1503685082339,3, -1, 0, -1, 0, -1, 2, 3
1503685082360,7, 5, 2, 1, 0, 0, 0, 3
1503685082376,-1, -1, 0, 1, -2, 1, -2, -3
1503685082398,-1, 1, -1, 0, -1, -2, -1, -3
1503685082422,-3, -1, -1, -2, -3, 0, 0, -2
1503685082436,-3, -4, -2, -1, 0, 0, -1, 0
1503685082458,-6, -2, -2, -2, -1, -1, -1, -2
1503685082480,5, 0, 0, -1, -1, 0, -1, 1
1503685082496,-2, 0, 1, 0, -1, -1, 0, 3
1503685082518,1, -1, -1, -2, -1, -2, -2, -1
1503685082541,-2, -1, 0, 1, 2, 0, -1, -3
1503685082563,-8, -6, -3, 0, -1, -2, -3, -5
1503685082578,-2, -1, -1, -2, 1, -1, 0, 0
1503685082601,0, 0, -1, -2, -3, -3, -1, 1
1503685082623,4, 1, 0, 0, -2, 0, 0, 0
1503685082638,2, 0, -1, -2, -1, 1, 0, 0
1503685082662,-1, 2, 1, 0, -1, -2, -1, 0
1503685082676,-1, 0, -3, -3, -2, 0, -3, -4
1503685082698,-3, -2, -3, 0, 2, 0, 2, 2
1503685082721,-1, -1, 0, -1, -1, 0, -2, 0
1503685082728,-2, -2, -1, -3, -1, -2, -3, -3
1503685082750,-1, -3, 0, -2, -1, -2, 0, -1
1503685082765,-2, -2, -3, -1, 0, 2, -3, -4
1503685082791,0, -1, 0, 0, -1, -1, -1, 1
1503685082810,-1, -3, 0, -1, -1, 0, -1, 1
1503685082833,1, 1, -1, -2, 0, -1, 1, 2
1503685082848,-4, 0, -2, -1, -3, -1, -3, -4
1503685082870,2, 1, 0, 0, 0, 0, 0, -1
1503685082885,2, -2, -1, 0, 0, 0, 2, -1
1503685082907,-3, -3, -2, 0, -1, -2, 0, -1
1503685082916,0, -1, -2, -1, -3, 0, -1, -1
1503685082938,1, 0, 0, 1, -1, -3, -2, 0
1503685082960,-1, 2, 0, 0, 0, 0, -1, 0
1503685082968,-2, 1, -1, -1, -2, 0, 0, -2
1503685082993,-4, 1, 0, 1, 2, -1, 0, -2
1503685083005,4, 1, 0, 1, -1, 0, -2, 0
1503685083028,-5, -2, -1, -2, -4, 1, -2, -2
1503685083050,-4, -1, 1, -1, 0, -1, 0, 0
1503685083065,-1, 0, -1, 2, 0, -1, -4, -2
1503685083080,1, 0, -2, -1, -1, -2, -2, -1
1503685083096,0, 2, 2, -1, 0, -3, 1, 0
1503685083118,0, 0, -1, -1, -1, 0, 1, 0
1503685083140,-3, 1, 0, -2, 0, 2, -1, -2
1503685083156,0, 0, -2, -2, -2, 0, 2, 2
1503685083178,0, 1, 2, 1, 0, -1, -1, -2
1503685083202,-4, -4, -1, -1, -1, -1, -2, -2
1503685083216,1, 0, -2, -3, 0, -2, -2, 1
1503685083238,-2, -4, -2, 4, 3, 4, 0, -2
1503685083261,0, -3, -5, -13, -9, -5, -1, 1
1503685083276,-1, -1, 2, 0, 0, 3, 1, -2
1503685083299,2, 6, 2, -7, -7, 3, 3, -2
1503685083321,0, 1, 6, 16, 10, 5, 2, -3
1503685083337,-19, -8, -6, -17, -20, -6, 9, -1
1503685083360,17, 3, -4, -1, 2, 2, -1, 2
1503685083380,3, 6, 2, -6, -4, -6, -7, 2
1503685083388,-4, 2, 5, 7, -3, -4, -4, 0
1503685083410,-3, 9, 15, 6, 7, -3, -6, -3
1503685083425,-8, -3, 3, 12, 9, 0, -6, -2
1503685083441,3, -5, -7, -6, -2, -2, -4, -1
1503685083456,-5, 1, 0, 5, 14, 4, -3, -2
1503685083478,11, 12, 1, -5, -12, -10, -4, 0
1503685083501,-15, 2, 2, 3, 3, -6, 2, 1
1503685083515,10, 11, 8, 5, -4, -6, 2, 4
1503685083538,20, 4, -4, -2, -2, 0, 0, 2
1503685083564,-4, -2, 6, 0, -2, 3, -1, -2
1503685083582,11, 7, -1, 3, -2, -2, 2, -1
1503685083598,6, 3, 2, -3, -13, -5, -3, -1
1503685083621,-7, -4, 3, 2, 8, 3, 0, 0
1503685083643,-4, -8, -5, 5, 7, 0, -2, -3
1503685083658,-2, -2, -3, -6, -5, 0, -1, -1
1503685083674,0, 3, 4, 1, -1, -2, -3, -3
1503685083687,4, 4, 2, 4, 4, 2, 0, 0
1503685083710,3, 19, 18, 2, -3, -2, -2, -1
1503685083733,-11, -19, -10, -6, -9, -3, -1, -3
1503685083747,0, 4, 4, -4, -4, 0, -1, 0
1503685083770,1, -3, -3, -8, -9, 1, 0, 1
1503685083792,2, 2, 2, -1, -7, 2, 1, 0
1503685083801,7, 4, 0, -2, -3, 0, 0, 0
1503685083823,6, 3, 5, 0, -4, -4, -3, -1
1503685083853,1, 0, 0, 1, 4, 1, -1, 6
1503685083868,0, 13, 8, 4, 3, -3, -9, -5
1503685083890,-10, 0, 7, -4, -3, 0, 3, -4
1503685083947,5, -1, -5, -14, -11, -4, -6, -1
1503685083959,-9, 2, 0, -2, -5, 1, 9, 0
1503685083981,1, -8, 3, 12, 12, 1, -3, 2
1503685084004,-8, -2, 7, 15, 27, 3, -5, -8
1503685084020,-4, -6, -12, -13, -25, -4, -2, -2
1503685084035,-2, -3, -2, 5, 12, 1, 0, -3
1503685084049,5, 8, -1, -2, -12, -9, -15, -13
1503685084071,-4, 2, -2, -6, -9, 2, 2, -1
1503685084093,-8, -15, -2, -1, 8, 3, 0, 0
1503685084108,16, 6, 0, -3, -13, -9, -18, 5
1503685084130,-3, -4, -1, -5, -5, -6, 2, 6
1503685084156,-6, 0, 0, 8, 15, 13, 11, 2
1503685084172,8, 9, -2, -10, -24, -15, -5, -1
1503685084190,-17, -7, -6, -15, -10, 6, 0, -1
1503685084201,1, -3, -4, 15, 30, 0, -7, 3
1503685084221,12, 7, 2, -9, -15, -3, -5, 4
1503685084244,19, 7, 1, -4, -8, -7, -2, 8
1503685084258,3, 2, 2, -7, -9, 1, 5, 12
1503685084281,-9, -12, -11, -12, -1, -3, 1, -7
1503685084303,-14, -4, 1, -8, -14, -4, 1, -6
1503685084318,-1, 2, -2, 3, 1, 1, 2, -16
1503685084341,-15, -9, -7, -7, -8, -5, -10, -18
1503685084363,9, 0, -2, 5, 9, 3, 3, 9
1503685084378,-10, 0, 7, 8, 3, 4, 2, 12
1503685084407,16, 28, 3, 7, 17, 2, 3, -3
1503685084423,7, -5, -8, -9, -13, -3, -3, -7
1503685084439,2, -3, 1, 12, 18, 3, -2, 4
1503685084462,-5, -6, -1, -3, -12, -2, -2, -17
1503685084483,14, 4, -3, -14, -13, -4, -3, 3
1503685084507,3, 0, -2, -7, -12, -3, 2, 0
1503685084521,-8, 1, 8, 10, 11, 4, -3, 1
1503685084536,15, 8, 2, -7, -6, 1, 3, 8
1503685084551,10, 4, 4, 18, 17, -2, -2, -3
1503685084573,-10, -8, -5, -4, 2, 4, -4, -5
1503685084596,12, 8, 4, 0, 4, 1, 7, 5
1503685084611,-8, -1, -1, -7, -7, -4, -1, -12
1503685084633,-12, -4, 2, -1, -5, -2, -1, -10
1503685084654,2, 3, -4, -4, -7, 0, 6, 12
1503685084671,16, 7, -4, -2, 0, -2, -6, 5
1503685084693,1, -9, -5, -1, -1, -4, -5, -4
1503685084714,9, 4, 2, 1, -1, 1, 3, 2
1503685084730,-2, 0, 4, 3, 6, 3, -2, -6
1503685084752,5, 15, -1, -6, -5, -9, -8, -7
1503685084775,1, 12, 2, -1, -1, 0, -4, -7
1503685084790,-14, -6, 0, 23, 11, 0, 0, -2
1503685084806,-3, 4, 2, 12, 13, 5, 0, 0
1503685084821,-1, -3, -3, -5, -7, 0, -1, 9
1503685084843,-2, -10, -4, -8, -4, 2, 2, 11
1503685084865,17, 8, -3, -5, -5, -2, -6, -1
1503685084881,1, 2, -3, 0, -1, -1, 0, -3
1503685084905,-5, -3, 3, 7, 5, 1, 1, -6
1503685084925,-18, -10, -8, -4, 3, -1, -7, -10
1503685084941,-23, -20, -10, -11, -6, -1, -1, -7
1503685084962,-15, -10, -12, -8, -6, 1, -1, -7
1503685084985,-7, 0, 7, 1, -5, -3, 0, 2
1503685085000,-2, 11, -1, 3, 1, -1, -2, -4
1503685085023,27, 10, -5, -6, -5, -3, 2, -4
1503685085045,-4, -3, 1, 2, 3, 3, -5, -5
1503685085060,4, 1, -5, -3, -5, -3, -6, -11
1503685085075,-2, -8, 5, 1, 0, -2, -4, 2
1503685085090,-5, -4, -2, -1, 0, -1, 3, -1
1503685085120,4, 0, 3, 2, 6, -1, 1, 2
1503685085135,0, -3, -2, 1, 0, 3, -2, -4
1503685085150,10, 12, -1, 1, -1, -11, -4, -6
1503685085175,-5, 1, 0, -1, -4, -1, -2, -4
1503685085194,5, 1, 4, -1, 1, 1, -2, -9
1503685085210,3, 4, 6, 1, 2, 3, 1, -4
1503685085232,3, -6, -7, -2, -3, -1, -6, -4
1503685085254,0, 1, -3, -3, -2, -2, -1, 5
1503685085270,-9, -1, -1, -1, -1, -2, -3, -1
1503685085292,-1, -1, -4, -4, -2, 0, 0, -1
1503685085314,-3, -3, 0, -1, -2, -2, 0, 3
1503685085330,-1, -1, -3, -4, -4, -2, -4, 2
1503685085353,-6, -1, -3, -3, -1, -1, -1, -3
1503685085375,2, 1, 1, 4, 3, 1, 2, 0
1503685085397,-2, -5, 0, 3, 0, 0, 1, -3
1503685085413,9, 5, 3, 0, 0, 1, 1, 5
1503685085435,-8, -2, -2, 0, 0, -1, 1, -2
1503685085457,-3, -4, -6, -2, -1, -1, 2, -5
1503685085475,1, 0, 1, -1, -2, -1, 0, 0
1503685085495,-1, 2, 1, -3, -4, -1, 1, 4
1503685085517,0, -3, -8, -6, -4, -1, -4, -2
1503685085533,1, 1, -1, -3, 1, -1, -1, -2
1503685085555,-1, -2, -5, -2, -3, -2, -1, 1
1503685085577,1, 3, 9, 8, 7, 2, -2, -1
1503685085592,-2, -6, -5, -3, -2, 1, 2, -2
1503685085616,4, -3, 1, 1, -1, -2, -3, 5
1503685085637,-7, -4, 7, 6, 11, -3, -11, -3
1503685085653,1, 2, -4, -4, -6, -2, 1, -2
1503685085677,-2, -5, -12, -3, 1, 1, 3, 0
1503685085697,1, -2, 4, 3, -2, 0, 4, 3
1503685085713,-6, -8, -1, -1, 0, 0, -1, -1
1503685085727,0, 2, 6, 3, 0, 1, 1, 1
1503685085748,7, -3, -17, -9, -6, -3, -1, -1
1503685085765,-7, -9, -8, -1, 1, -1, -2, -2
1503685085787,-3, -7, 1, 6, 4, 0, -5, -3
1503685085803,10, -10, -6, -5, -5, -1, 0, 1
1503685085825,-9, -3, 1, -1, 1, 0, -1, -3
1503685085848,-2, -2, -3, 0, -4, -1, -2, 1
1503685085863,0, 10, 7, 9, 7, 0, -2, -1
1503685085880,-2, -14, -6, -2, -2, -2, -1, 1
1503685085893,-7, 12, 1, 4, 3, 0, -4, -1
1503685085915,4, -2, 4, 5, 4, 1, 2, 0
1503685085937,6, 0, -5, 0, 0, -1, 2, 2
1503685085959,-5, 1, 2, -3, 1, -1, -1, 0
1503685085968,2, -3, -6, -8, -6, -3, -1, -2
1503685085986,-5, -4, -2, -2, -2, 1, 1, 3
1503685086005,3, 0, 0, -1, -2, -1, 2, 5
1503685086028,-3, -6, -1, 2, 7, 3, -4, -7
1503685086043,-1, 5, 1, -19, -17, -5, -1, -6
1503685086065,0, 24, 13, 4, 1, -5, -4, -7
1503685086089,2, -4, -3, 13, 9, 4, 2, 2
1503685086103,1, -10, -5, 3, 5, -3, 1, -1
1503685086126,0, -4, 1, 1, -1, -3, -10, -2
1503685086148,-4, -10, -5, -1, 1, 3, 3, 0
1503685086163,1, 1, -3, -6, -3, -1, 1, -3
1503685086187,5, -5, -13, -10, -7, -2, -2, -1
1503685086207,-13, -6, -7, -2, -4, -3, -3, 1
1503685086216,9, 7, 11, 5, 0, 1, -1, -3
1503685086237,-8, -1, 1, -2, -1, 0, 4, 3
1503685086253,2, -1, -5, -2, 7, 1, -3, -1
1503685086275,-5, -4, -3, -4, -4, -2, 0, -3
1503685086297,-4, -6, -2, -2, -4, -4, -4, -3
1503685086315,7, 3, -3, 0, -2, -3, -1, 9
1503685086335,-5, 2, 2, -2, -2, -1, -1, -5
1503685086358,-3, -1, 1, 3, 6, 2, 0, -3
1503685086379,3, -4, -7, -5, -6, -4, -3, -5
1503685086402,-4, -1, -4, -2, -1, -1, -1, -1
1503685086425,-2, 0, 2, 0, 0, 0, -2, 0
1503685086439,-2, -4, 0, 7, 8, -1, -3, -3
1503685086455,-3, 1, 0, -4, -6, -2, 2, -1
1503685086477,0, -1, 0, -2, -1, -1, 1, 0
1503685086499,1, -3, -1, 1, 1, 1, 1, -4
1503685086517,1, 7, 2, 2, 1, 1, 0, -2
1503685086536,1, -6, -4, 0, -2, -2, -5, 0
1503685086559,1, 2, 2, 3, 5, 2, 4, 2
1503685086575,3, 9, 2, -2, -6, -1, 0, -1
1503685086597,-2, -2, 0, 0, -2, -2, -1, -3
1503685086621,-2, -3, -3, -1, -4, -2, -3, 1
1503685086635,0, -4, -6, -12, -6, -2, -1, -1
1503685086657,2, 2, -2, 0, -1, 0, -2, -4
1503685086680,-4, -3, -2, -1, 0, -1, 3, 2
1503685086695,-2, -1, -3, -2, -1, -3, -3, -2
1503685086719,-2, 1, 1, 0, 1, -3, -1, 0
1503685086739,1, -2, 4, 4, -5, 0, 1, 4
1503685086755,-2, -2, 3, 3, 1, -1, -3, -5
1503685086777,-3, -1, -6, -16, -10, -4, -1, -2
1503685086799,1, -1, -1, 0, 4, -4, -1, -1
1503685086815,-2, 2, 1, 3, 6, 1, -2, 1
1503685086837,-4, -1, 0, -3, 0, -3, -1, 3
1503685086860,2, 2, 5, 1, 3, 1, -2, -1
1503685086876,-1, 3, 3, 3, -1, 5, 1, -3
1503685086897,4, 0, -2, 0, 3, 2, 0, -2
1503685086921,-4, -3, 0, 2, -1, 0, -1, -5
1503685086935,0, -2, -4, -4, -4, 4, 3, 2
1503685086957,0, -1, -2, 1, 1, 4, 1, -1
1503685086979,2, -1, -2, -1, -4, -3, 0, -2
1503685086995,-6, -3, -1, -1, 0, -2, -3, -1
1503685087017,1, 0, -1, 0, -1, -3, -2, 1
1503685087039,0, -1, 0, -1, -4, -1, -3, 0
1503685087063,0, -1, 1, 0, -2, -3, -1, 1
1503685087078,-1, -1, -1, 0, 0, -2, 1, 2
1503685087100,-3, -2, -1, -2, -1, -3, -2, -3
1503685087123,1, -1, -1, -2, -1, -3, -1, -1
1503685087138,-3, 0, -1, -1, -1, -2, -3, -3
1503685087162,-2, -2, -3, -2, 1, -1, -2, -2
1503685087183,-1, 1, 1, 1, -1, -1, 1, 1
1503685087198,-2, -1, 0, -1, -2, 0, 0, -1
1503685087222,0, -2, -1, -1, 2, 1, -1, -1
1503685087243,-1, 0, -1, -1, -3, -1, 0, 0
1503685087259,1, 2, -3, -1, 1, -3, -1, 0
1503685087280,-1, 0, 1, 0, 1, -4, -3, -1
1503685087289,-4, -2, 1, 0, 0, -2, -3, -5
1503685087310,-1, -3, -2, -1, 0, 1, -2, -1
1503685087332,-3, -1, -1, 0, 0, 0, 1, -2
1503685087347,1, -2, 0, -1, 0, 2, 3, -2
1503685087370,0, 2, 2, 2, 0, 0, 3, 4
1503685087393,-1, -1, -3, -1, -1, 1, 1, 0
1503685087407,1, 1, -2, -3, -1, 0, -1, 2
1503685087431,-2, -1, 0, -2, -2, -3, -2, -2
1503685087452,-2, -4, -3, -2, -2, 0, -4, -3
1503685087467,-3, -2, -3, -1, 0, 0, 1, 1
1503685087490,-1, 0, 0, -1, -1, -3, -2, -3
1503685087513,0, 1, 2, 0, -2, -2, 0, -1
1503685087528,1, 2, 4, 1, -1, 1, 0, 0
1503685087550,0, 0, -2, 2, 1, 0, 2, 1
1503685087572,1, -2, -1, -2, -1, -2, -1, -1
1503685087590,0, -1, -2, 1, -2, -1, -1, 0
1503685087610,1, -1, -1, -1, -1, 0, -1, 0
1503685087633,-2, -1, 1, -1, -2, -1, -1, 0
1503685087647,2, 1, -2, -2, -2, -1, 0, -2
1503685087670,-3, -6, -3, -2, -1, 0, 1, -2
1503685087692,-8, -5, -1, 0, 0, 0, -3, -1
1503685087708,2, 1, -1, -1, 0, 0, -3, -2
1503685087730,2, 4, 3, 1, 1, 1, -1, -2
1503685087752,-1, -2, -3, -2, -2, -3, -2, -3
1503685087768,0, -2, -3, -2, -1, -1, 1, 2
1503685087792,-3, -1, -1, -2, -1, -2, 0, -3
1503685087800,-2, -1, -3, 1, -1, 0, 2, -1
1503685087821,-2, -1, 0, -2, -1, 0, 1, -1
1503685087843,-1, -1, -1, -2, 0, -1, -3, -3
1503685087860,7, 2, 0, 1, -1, 0, -3, 0
1503685087880,-4, -3, -2, -1, -2, -1, 0, -2
1503685087903,-1, -2, 0, -2, -1, -1, -1, -3
1503685087918,-1, -2, -1, 0, -1, -1, 1, 1
1503685087940,1, -1, 0, -1, 0, 2, 0, 1
1503685087963,-3, -2, -1, -1, 0, 0, -1, 0
1503685087978,-2, 0, -2, 0, -2, -2, -3, 0
1503685087994,-2, 0, 0, -1, -3, 0, -2, -2
1503685088007,-3, -3, -2, -3, -2, 0, -2, -3
1503685088030,2, -1, -2, -2, 1, -1, 1, 0
1503685088052,0, 2, 1, 0, -1, -2, 4, -1
1503685088067,-1, 1, 1, -2, -1, -2, -2, -3
1503685088083,-2, 0, -1, 0, -2, -2, 0, -1
1503685088098,-3, -3, -4, -1, 1, -1, -1, -3
1503685088120,-1, -3, -3, -2, -2, -1, -3, 0
1503685088143,-1, -2, -1, 0, -1, -1, -2, -2
1503685088158,0, -2, -1, -4, -1, 0, 0, 1
1503685088180,-3, -3, 0, -2, -3, -1, -2, -2
1503685088203,1, 5, 1, 0, -2, 0, 1, 0
1503685088225,1, -2, -4, 0, -2, -2, -1, 2
1503685088241,-1, -2, 0, -1, 0, -1, -2, -2
1503685088267,-3, -1, -3, -1, 1, -1, 0, 0
1503685088285,0, 1, 0, 0, 0, 1, 0, -4
1503685088301,-2, -3, -3, 1, -1, -1, -3, -4
1503685088323,1, 2, 3, -1, 0, 0, -4, 0
1503685088345,0, -2, -1, 1, -2, -1, 0, 0
1503685088368,-1, -1, -2, -2, -2, -1, 1, -2
1503685088383,1, -1, 0, 0, 2, 1, 0, 2
1503685088405,0, -4, -1, -1, -1, 1, 0, 0
1503685088421,-1, 0, 0, 0, -2, -2, 0, -2
1503685088443,1, 5, 1, 1, -1, 1, -1, 0
1503685088465,-1, -3, -2, -2, -1, -1, -3, -3
1503685088473,0, -2, -3, -1, 0, 0, -2, 2
1503685088498,-1, -1, 0, -2, -2, 0, 1, -2
1503685088510,-1, 0, 0, -1, 0, -2, -2, -1
1503685088533,1, 0, -3, -3, -2, -2, 0, 0
1503685088555,-2, -1, 0, 0, 0, -1, 0, -3
1503685088570,0, 1, 1, 0, -1, -1, 1, -1
1503685088593,-1, -2, 2, -1, 0, 0, -2, -2
1503685088615,-1, -2, -1, -1, -3, -3, 0, -1
1503685088632,-1, 0, -2, -1, 1, -1, 0, -2
1503685088652,0, -1, -2, 1, 0, 1, -1, 1
1503685088675,3, -1, 1, 0, 1, 0, 0, 1
1503685088690,-2, -1, 0, 0, 0, -2, -1, 0
1503685088712,0, 2, -1, -2, 1, -1, 1, 0
1503685088735,-1, -4, -1, 0, -2, -1, 1, -2
1503685088750,0, -4, -3, -1, -1, 0, -2, -3
1503685088773,-2, 0, 0, 1, -2, 0, 2, 3
1503685088795,1, 6, 3, 1, -2, -1, -2, 0
1503685088810,-2, -3, -3, -3, -1, -1, -2, 0
1503685088839,-3, 0, -1, 0, -1, 0, 0, -2
1503685088855,1, 1, 0, -1, 0, -2, -1, 0
1503685088871,-1, -2, 1, -1, 0, 0, -1, 0
1503685088892,-1, -2, -1, -1, -1, 1, 0, -1
1503685088915,-1, -1, 0, 0, 0, -4, -3, -2
1503685088930,0, -5, -4, -2, -1, -2, -1, 0
1503685088959,-1, 0, 0, -1, -1, 1, 1, 1
1503685088975,-2, 1, 1, -2, -1, 0, 0, -4
1503685088990,0, -2, -5, -2, -1, -2, 0, -2
1503685089012,-2, 0, -2, 0, -1, -1, -2, -2
1503685089035,-1, 2, 3, 0, -1, 0, -1, -3
1503685089050,0, 1, -2, -1, 0, -1, -1, -1
1503685089072,-2, -1, -1, -1, 0, 1, -2, -4
1503685089080,-1, -1, 0, -2, -1, -1, 0, 0
1503685089110,-3, -3, -2, 0, 0, 0, -1, -3
1503685089125,0, -5, -2, -1, -1, -3, -2, 0
1503685089147,0, 1, 1, 0, 0, 1, 1, 0
1503685089163,0, 1, -1, 0, -1, 0, -3, -3
1503685089185,0, 0, 0, 0, 1, -1, 1, 1
1503685089207,-1, 1, 0, -1, 0, -2, 0, 2
1503685089223,-2, 0, 1, -1, -3, 0, -1, -1
1503685089245,1, -2, 0, 1, -2, -2, -2, -1
1503685089270,1, 2, 1, 0, 1, -1, -1, 0
1503685089283,0, 1, -2, 1, -1, 0, 0, -3
1503685089305,0, -6, -2, -3, -2, 1, -2, -3
1503685089313,-2, 4, 2, 1, 0, 1, 1, -3
1503685089336,4, -1, 0, 2, 0, 1, 2, 2
1503685089357,0, -3, 0, -1, -1, 0, 0, 0
1503685089372,-5, -4, -1, -2, -4, 0, 3, -2
1503685089395,-4, -3, -2, -7, -13, 0, 6, -4
1503685089417,5, 7, 5, -1, 4, 0, 5, 5
1503685089432,-9, -11, -8, -15, -12, -5, -5, -3
1503685089455,-4, -5, -4, -6, 4, 1, -3, -2
1503685089477,5, 1, -1, 2, 5, -6, -8, -2
1503685089492,-8, -3, -5, -7, 3, -7, -7, -3
1503685089515,1, -1, -5, -6, -12, -6, -6, -4
1503685089538,-5, -3, -1, 7, 7, 6, 3, 5
1503685089552,2, -2, 2, -1, -11, 0, 0, 1
1503685089577,1, 1, 5, 10, 4, 3, 1, -2
1503685089597,3, 0, -1, 0, -1, -1, 1, -1
1503685089613,0, 0, -5, 1, 3, -1, 1, -2
1503685089635,-2, -6, -7, 5, 6, 1, -1, -2
1503685089657,11, 9, 7, 2, 1, 0, 5, 0
1503685089673,6, 6, -2, 12, 15, 2, 3, 5
1503685089695,7, 8, 8, 3, -3, 1, 6, 5
1503685089717,6, -3, -11, -9, -5, -3, -13, -16
1503685089732,-2, -8, -10, -7, -6, -3, 0, 8
1503685089755,-25, -9, -1, -7, -6, -3, 1, -4
1503685089777,-10, 1, 3, 5, 1, -4, -4, -5
1503685089792,0, 4, 6, 5, -3, 0, -4, 0
1503685089815,2, -9, -13, -6, -4, 2, 1, 16
1503685089841,10, -9, -6, 1, 2, 0, -3, -6
1503685089852,11, 25, 12, -5, -11, -2, -1, 0
1503685089875,19, 2, 5, 0, 5, 2, 0, 6
1503685089897,-12, -1, 0, -1, 0, -2, -2, -8
1503685089912,3, -4, -3, -5, -9, -2, -4, -2
1503685089934,-17, -2, 8, 10, 6, 3, 3, -1
1503685089943,9, -2, -9, -7, -10, -3, -4, -7
1503685089966,-17, -8, -5, -9, -6, 0, -5, -2
1503685089987,-10, 3, 3, -1, -5, -5, -6, -25
1503685090003,39, 16, 6, 8, 5, 4, 10, 37
1503685090026,-5, 2, 4, 3, 4, 3, 2, -5
1503685090048,-19, -9, 0, 0, 2, 4, 5, 9
1503685090070,-2, -2, 4, 0, -1, -1, -2, -7
1503685090085,-16, 9, 19, 12, 3, -2, 0, -4
1503685090108,-2, -3, -3, -1, 3, 2, 3, 0
1503685090130,1, -4, -11, -12, 3, 0, -5, -3
1503685090147,22, 15, 2, 3, 4, 1, -32, -7
1503685090168,-3, -3, 2, 11, 8, 0, 9, 4
1503685090190,-4, -6, 2, 4, -1, -2, 7, 8
1503685090205,13, -4, -5, -3, -7, -3, 2, -9
1503685090227,34, 14, -3, -16, -21, 1, -8, 8
1503685090251,-4, -4, -5, -3, 1, -10, -2, -2
1503685090266,-15, -6, -8, 0, 1, -2, -1, -9
1503685090287,-4, 9, 3, -1, -1, -5, -1, -3
1503685090313,-1, -3, -1, 8, 12, 6, 8, 0
1503685090325,-22, -12, 1, -5, -5, -6, 11, 4
1503685090348,23, 4, -3, -4, -5, -2, -12, 0
1503685090370,-11, -8, -2, 6, 22, 6, -4, -1
1503685090386,0, 3, 3, 6, 9, -2, 1, 0
1503685090407,-4, -1, 2, -2, -5, 3, 4, 2
1503685090430,-21, -16, -6, -6, -14, -5, 0, 0
1503685090453,5, -3, -5, -7, -11, -6, -4, 3
1503685090467,-3, 0, 1, 5, 0, 5, 0, -2
1503685090490,-6, -1, -2, -8, -13, -9, 0, -10
1503685090505,-10, -13, -4, -1, 0, -2, -5, -13
1503685090527,6, 14, 6, 8, 10, 2, 1, -12
1503685090557,0, -2, -1, -6, -6, 1, 2, 4
1503685090565,9, 12, 4, 7, 3, 3, -5, -17
1503685090591,-15, -20, -14, -12, -10, -5, -3, -13
1503685090612,3, 0, 0, 1, 5, 5, -2, 11
1503685090626,4, 5, 4, 0, 0, -5, -1, 1
1503685090647,13, 14, 7, 3, 4, 2, 3, 7
1503685090670,-2, -2, -1, 2, -1, -1, -2, 0
1503685090687,11, 7, 3, -3, -2, -3, -6, -11
1503685090707,-4, -4, 3, 0, 0, 0, 2, 8
1503685090730,-1, 4, 6, 1, 1, -2, -5, 1
1503685090748,29, 26, 12, 1, -4, -2, 3, 4
1503685090767,-27, -9, -6, -4, -4, -3, -2, -4
1503685090790,10, -4, -6, 3, 2, 3, 5, 13
1503685090805,-18, -4, 1, -3, -2, -2, -6, 4
1503685090827,4, 2, 4, 2, 1, 3, 6, 1
1503685090851,4, -3, -9, -3, -1, 0, -2, -16
1503685090865,-9, -9, -5, -4, -4, -2, 3, 4
