1503525025313,-2, -1, -1, 2, 0, 0, -3, -2
1503525025328,-2, -1, 1, 0, -1, -2, 0, -2
1503525025350,0, 0, -1, -1, 0, -1, -2, -1
1503525025380,0, -1, -1, -1, -2, -3, 0, -1
1503525025388,0, -1, 0, 0, 1, -1, 0, 1
1503525025410,-2, -1, -1, -4, -3, -3, -2, -2
1503525025433,0, -1, 0, -1, 1, 0, 0, -2
1503525025448,0, 1, -2, -1, -1, -2, 0, -4
1503525025470,0, -1, -1, -1, -1, 0, -1, -1
1503525025493,1, -1, -1, -2, -1, -2, 1, 0
1503525025514,-2, -1, -2, 0, -1, 2, -1, -2
1503525025530,0, -1, -2, -3, 0, -2, 2, 0
1503525025553,-3, 0, 0, 0, -1, 1, -2, -2
1503525025574,1, 0, -3, -1, 1, -1, 0, 0
1503525025590,0, 0, 0, -1, -3, -2, 1, 1
1503525025613,-1, 0, -2, -1, -1, 0, -3, -1
1503525025635,-1, -1, -1, 0, 0, 0, -2, -2
1503525025652,-1, 1, 1, -2, 2, -1, -2, 1
1503525025673,-2, -1, 0, 0, 0, -1, -1, -2
1503525025695,0, -1, 0, 2, 1, 1, 1, 1
1503525025710,-1, 0, -1, -1, -3, -4, 1, -2
1503525025733,0, -1, -2, 0, 2, -1, -2, -2
1503525025755,-1, -3, 0, -1, -3, 3, 0, 1
1503525025770,-1, 0, -3, 1, -2, -2, -1, 2
1503525025793,-1, 1, 0, 0, -1, -1, -1, 1
1503525025801,-1, 0, 0, 0, -1, -3, -1, 0
1503525025823,-1, -2, 0, 0, 0, 3, 1, 1
1503525025845,-3, 0, -1, 0, 0, -3, -1, 0
1503525025861,-2, -1, -2, -1, -1, 1, 1, -2
1503525025883,0, 0, 1, -1, -1, -2, -1, -4
1503525025906,0, -2, -1, -1, 0, 0, -1, -1
1503525025921,2, 0, 1, -1, -1, -3, -2, 1
1503525025943,-3, -1, -3, 1, 0, -2, -1, 1
1503525025965,0, 0, 0, -1, -3, 1, -3, 0
1503525025980,0, 0, -3, 1, -1, 0, 1, -1
1503525025995,-1, -2, 0, 1, 1, -3, 0, -2
1503525026010,0, -1, 1, -1, 0, 1, 1, -1
1503525026033,-2, -1, 1, 0, -1, -1, -4, 0
1503525026055,-2, 0, -3, 0, 1, -1, -1, -1
1503525026071,0, -1, 2, 1, -1, -1, -2, -2
1503525026093,-2, -2, -2, -1, -3, -2, 2, -1
1503525026115,-2, -1, -1, 0, -2, 0, -3, -2
1503525026137,0, -2, 0, 0, -1, -1, 0, -1
1503525026159,0, 0, 0, -2, -3, -1, -2, -2
1503525026174,-1, -1, -2, -1, -1, 0, -1, 0
1503525026190,0, 0, 0, 1, 2, -1, 1, 1
1503525026205,0, 1, 2, 4, -1, 2, -2, -1
1503525026222,-2, -4, -5, -6, -2, -3, -2, -3
1503525026242,-1, 0, 0, -4, 0, -1, 0, 0
1503525026265,-3, 0, 0, 1, -1, -3, -3, -1
1503525026280,-1, -3, -1, 3, -1, -1, 1, 0
1503525026295,1, 0, 0, 1, 1, 0, 0, 1
1503525026310,-1, -2, -1, -1, -5, 2, 0, -1
1503525026333,-2, 0, -2, -2, -3, -3, 2, 2
1503525026359,-1, 0, -1, -2, 0, -4, 0, -2
1503525026370,-2, 0, 0, 0, 1, 0, 2, -3
1503525026394,-1, 0, 0, 2, -2, 0, -1, -3
1503525026407,-2, -1, -3, -4, -1, 0, 0, -2
1503525026424,-1, 0, 1, 0, -3, 0, -2, -1
1503525026445,-1, -1, -1, -2, 2, -2, -1, 0
1503525026468,-1, -3, -1, -2, -3, -5, -1, -2
1503525026482,-2, -1, -1, 1, 0, 2, 0, 1
1503525026505,1, 0, 2, 4, 0, -1, -1, -1
1503525026528,-1, -4, -2, -1, -2, -2, -2, 0
1503525026542,0, 0, 0, -2, -1, 1, 0, -2
1503525026566,-1, 0, 0, 0, -1, 0, -3, 0
1503525026587,-1, 0, -2, -2, -2, -1, -1, -1
1503525026603,0, 0, -2, -1, -1, -3, 0, -2
1503525026625,-3, -2, -2, -1, -1, -1, 1, 0
1503525026647,1, -2, -2, -1, -2, -3, -5, -1
1503525026654,-2, 0, 1, 1, -1, 0, -1, -1
1503525026677,0, -1, 0, -3, -1, -4, 0, -1
1503525026694,-1, -1, -2, 2, 0, -2, -1, -2
1503525026714,-2, 0, -3, -4, -1, 0, -3, -3
1503525026737,-1, 0, 0, 1, -2, 0, 3, 0
1503525026753,0, 0, -1, -2, -1, -2, -3, 1
1503525026774,-1, -1, -2, -4, 0, 2, -1, -3
1503525026798,0, -1, -4, 0, -1, -6, 0, -1
1503525026812,-1, -2, -2, 0, 0, -1, -2, -2
1503525026835,0, 0, -1, -3, 0, -2, -1, 2
1503525026857,-1, -1, 0, 1, -1, 0, 0, 0
1503525026872,-1, 1, 0, 0, -2, 0, -3, -3
1503525026894,-1, -1, -1, 0, -2, 1, -1, -1
1503525026917,-1, -2, 2, 1, -1, -1, 0, 0
1503525026933,0, -1, 0, -3, -3, 2, 0, 0
1503525026954,-2, 0, 1, 4, 2, -1, 0, 0
1503525026977,-1, -1, -1, -2, -1, -4, 0, 0
1503525026994,0, -2, 1, 0, -2, -1, -1, 1
1503525027014,-2, -1, -5, -2, -1, 1, 1, -2
1503525027037,1, -1, -2, -4, 0, 0, 1, 2
1503525027052,-2, -2, 0, 1, -1, -1, -3, 0
1503525027074,0, 1, 0, -1, 1, -3, -1, 0
1503525027097,0, 1, -1, 1, -1, 0, 1, -1
1503525027112,0, 1, 0, -1, -3, -4, 1, -2
1503525027134,-2, -1, -2, -2, -1, 0, 3, -4
1503525027157,-2, -2, 0, -2, -1, -1, -1, -3
1503525027173,-2, -2, -1, -2, 1, -4, -3, 0
1503525027196,-1, -2, -1, 0, -2, -3, -1, -2
1503525027217,0, 0, -2, -1, 0, 1, -2, 1
1503525027232,-1, -1, 0, -5, -1, -1, -1, -2
1503525027247,-1, -3, -2, -2, 2, -2, 1, -3
1503525027263,0, -1, -1, -1, -1, 0, -1, 0
1503525027285,0, -1, -1, 0, -2, 2, -1, 0
1503525027308,-2, 0, 1, 1, 1, 1, 0, -2
1503525027322,1, 0, -1, -2, -1, -1, -2, 1
1503525027345,-1, 0, -2, 0, -3, -1, -1, -3
1503525027368,-2, 0, 0, -3, 0, -5, -2, -1
1503525027390,1, 0, 0, -2, 0, -2, 0, -2
1503525027406,-1, -3, -1, -1, 0, 0, 1, -2
1503525027427,-3, 0, -1, -1, 0, 0, 2, 0
1503525027451,0, 0, -2, -1, 0, 1, -1, 1
1503525027465,0, -3, -1, 0, 0, -2, -1, 1
1503525027489,1, 1, -1, 3, 0, 0, -2, -3
1503525027510,-3, -1, 1, -4, 1, 0, -2, 0
1503525027525,0, -1, -1, 0, 0, -2, 0, 0
1503525027547,-1, 0, 0, -1, -2, -4, -1, -3
1503525027570,-2, -5, 0, -2, -1, 1, 0, 0
1503525027585,-1, -1, -1, 0, -1, -3, -3, -2
1503525027607,-1, 0, -3, -2, -1, 0, 0, 1
1503525027632,-1, 0, -1, -3, -2, 1, 0, -1
1503525027645,-1, -1, -1, -2, -1, 1, 2, -2
1503525027668,0, -1, -1, -1, 0, -1, 0, -1
1503525027690,0, 0, 0, 2, -1, -3, 0, -1
1503525027706,1, -1, 0, -1, -2, 3, 1, 0
1503525027727,0, -2, -1, -1, -1, -2, 0, -2
1503525027750,-1, 0, 0, -1, 1, -2, -2, -1
1503525027767,-1, -1, -1, 0, -1, 0, 0, -1
1503525027788,-3, -1, -2, 0, -1, 1, -1, 0
1503525027810,-1, 0, 0, 0, -1, -2, -3, 1
1503525027825,0, -1, -1, 0, 1, -1, 1, 0
1503525027848,-1, -2, 0, -1, -2, 0, -2, 0
1503525027871,-1, 0, 1, 1, -1, -2, 0, -2
1503525027885,1, -1, -1, -1, -3, -5, 0, 1
1503525027908,-2, 1, -1, -2, 1, 3, -4, -2
1503525027930,-1, -2, -1, 1, 0, 2, 0, -1
1503525027945,-2, 0, 0, -2, -2, 1, -1, -4
1503525027968,-1, 0, 1, 4, -1, 0, 0, 5
1503525027990,-1, -1, -3, -2, -1, -2, 1, -3
1503525028005,2, 0, 0, -2, -4, 0, -2, 5
1503525028021,0, 0, -1, -3, -1, -2, -1, 3
1503525028043,1, 2, 0, 2, 0, -1, -1, -1
1503525028058,-2, -3, -1, 0, -2, 1, 1, -3
1503525028080,-1, -1, -3, 1, -2, 0, -2, -2
1503525028103,-1, -2, -1, -1, -1, -1, -2, 1
1503525028118,1, -1, 1, -1, 1, 1, 3, 0
1503525028140,-1, 0, -1, 0, -1, 0, 0, -1
1503525028163,-1, -1, 0, 0, 0, -2, 0, 1
1503525028179,0, -1, -1, -2, 0, -2, 0, -1
1503525028202,-2, 0, 1, 4, 0, -1, -2, -1
1503525028223,-1, 0, -2, -4, -2, -1, 0, -1
1503525028239,-2, 0, -2, -3, -1, -1, -2, 0
1503525028260,0, -1, -2, 0, -1, 0, -1, -2
1503525028283,-2, -1, -2, -1, -1, -1, 1, -2
1503525028298,0, -1, -2, -1, 2, -1, -1, -1
1503525028328,0, 1, -1, 0, -4, -2, -2, -2
1503525028343,-1, -1, 0, -1, 0, -3, -2, 2
1503525028358,-1, -2, -1, -2, -1, -1, -3, -1
1503525028380,-1, -1, 0, -1, -4, 3, 1, -3
1503525028406,0, 0, -1, -2, -2, -5, 0, -3
1503525028418,0, 1, 1, -1, -1, -4, 1, 0
1503525028440,-2, -1, -1, 1, -2, 1, 0, 0
1503525028463,1, -1, 1, -1, -2, 0, -3, 2
1503525028479,0, -2, -2, -1, 3, -1, -1, 1
1503525028500,1, 1, -1, 2, -1, -1, 0, 0
1503525028508,-3, 0, -1, 0, 0, -1, -2, -1
1503525028530,-3, -2, -2, -5, -2, -3, 0, 1
1503525028553,0, 0, 0, -1, -1, -3, -1, -1
1503525028567,-1, -1, -1, -1, -1, -4, 0, 1
1503525028590,1, 0, -1, 0, 1, 0, 1, -1
1503525028612,-1, -2, -1, -2, 0, 0, 1, -4
1503525028628,-2, 1, -1, 1, -1, 0, 1, -1
1503525028650,1, -1, 0, 1, -1, -2, 1, 0
1503525028673,-2, 0, 1, -1, 0, -2, -2, -3
1503525028687,3, 5, 44, 99, 13, 4, 0, 4
1503525028710,-5, -12, -39, -76, -12, -4, -6, -4
1503525028732,1, 14, -10, -17, -2, -4, -5, 0
1503525028747,-4, -6, -5, -6, -4, -2, 3, -3
1503525028770,-3, -1, -14, -34, 18, 6, 10, 3
1503525028792,8, 74, -1, -31, -1, 7, -8, -13
1503525028807,-7, -45, -4, 4, -15, -9, -12, -23
1503525028830,-3, -15, 4, 13, -16, -7, -20, 7
1503525028840,1, 3, -3, 23, 1, -1, -2, 64
1503525028860,-2, -5, 0, 7, 1, 6, -3, -65
1503525028883,-1, 11, -18, -40, -8, -6, -18, -9
1503525028898,2, 15, 14, 24, -4, -3, -10, 29
1503525028920,0, 29, -9, -22, -3, -2, -6, 10
1503525028943,-2, -9, -8, -9, -3, 6, -5, -7
1503525028965,3, 6, 9, 6, 2, 1, -1, 0
1503525028980,-1, -3, -3, -5, 7, -3, -5, -3
1503525029003,-3, -7, -6, -9, -2, -8, -4, 0
1503525029025,-4, -5, -6, -15, 2, 5, -27, -13
1503525029040,1, 0, -2, 7, -2, 34, -3, 9
1503525029063,-10, -15, -9, -18, -27, -72, -11, -7
1503525029085,-1, -7, -9, -7, -10, -20, 3, 15
1503525029100,-9, 3, 12, -18, -19, -21, -12, -38
1503525029123,-3, -6, -34, -18, -35, -12, 1, -17
1503525029145,19, 101, 91, -6, -4, -23, -31, -15
1503525029160,-34, -33, 82, 0, -2, 36, -12, -40
1503525029183,-20, 37, -90, -3, 2, 8, -14, -70
1503525029205,51, 24, 54, 32, 35, 34, -2, -5
1503525029220,13, -83, -76, 28, 25, 20, -22, 80
1503525029244,-45, -87, -30, -19, -21, -7, -45, -23
1503525029265,-56, -94, 12, -26, 8, -27, 41, 31
1503525029281,-8, -58, 34, 6, 2, 24, 47, 76
1503525029303,16, 43, -32, -19, 13, 32, 25, 18
1503525029325,69, 50, -7, 26, 34, -28, 15, 27
1503525029340,18, -39, 43, 52, 12, 17, -4, 2
1503525029363,5, 20, -64, -12, -17, -18, 28, -5
1503525029385,-7, 5, -17, 16, 8, -15, -1, 9
1503525029392,6, 20, -21, 3, 0, -9, 14, 9
1503525029415,-12, -37, -6, 13, 1, 23, 3, 19
1503525029430,4, 10, 43, 8, 2, -10, 0, -7
1503525029453,-2, -2, -17, -2, 0, -9, 7, 3
1503525029475,2, 1, -5, 1, -1, -4, -6, 5
1503525029490,-16, -15, -34, -25, 1, -1, 2, -3
1503525029513,9, 7, -11, -15, -1, -10, 5, -8
1503525029535,0, 6, 8, 10, 2, -5, -7, -8
1503525029550,-16, -12, 1, 14, 0, -3, 0, 8
1503525029573,-13, -11, -13, -9, -1, 4, 19, 6
1503525029595,0, 9, 11, -2, -1, 6, 8, 0
1503525029612,-18, 7, -13, -3, 4, -2, -16, -27
1503525029632,-9, 26, 4, 5, 2, 3, 8, 3
1503525029655,15, -9, -4, 12, 17, 9, -6, -12
1503525029670,18, 1, 1, -4, -11, -11, 7, 75
1503525029692,11, 13, -9, -7, -4, 10, 5, 1
1503525029700,43, 19, 3, -2, -3, -4, -21, -10
1503525029723,-18, -7, 0, 18, 7, 8, -12, -20
1503525029746,-7, 9, -4, 5, 1, 1, 0, -14
1503525029760,-8, 1, -2, 1, -3, -1, -5, -33
1503525029783,-3, 1, 1, -5, -1, -1, 8, 10
1503525029806,-5, -7, 5, -5, -1, -7, 3, 29
1503525029820,-7, 4, -9, -7, 3, 10, -11, -24
1503525029835,10, 27, 17, 15, 1, 3, 4, 1
1503525029850,11, 4, 4, 4, 11, 1, 7, 22
1503525029873,6, -11, -9, -2, -5, -2, -2, 12
1503525029896,-3, -3, 3, 1, -2, -7, -6, -21
1503525029910,-10, -4, -4, 1, 8, 3, 1, -4
1503525029932,-22, -22, -11, -6, -7, -6, -2, 15
1503525029956,-5, 1, 1, 5, 12, 8, -5, 0
1503525029970,-7, -6, -3, -5, -10, -7, 0, -5
1503525029993,1, -2, -2, 1, -1, 9, -3, -6
1503525030016,3, -5, -2, 1, 6, 0, 2, 1
1503525030030,1, -2, -3, -2, -9, 17, 10, 16
1503525030052,2, -2, -4, -6, -11, -13, 10, 30
1503525030075,-9, -4, 0, -1, 18, 17, -10, -39
1503525030091,-3, -4, 2, -4, -12, -14, -6, -31
1503525030112,5, 13, 4, -1, -1, -1, 9, 20
1503525030135,6, -2, 7, 15, 36, 13, 8, 27
1503525030158,-2, -2, -5, -6, -14, -13, -27, -74
1503525030173,-5, 0, 0, 2, 1, 6, 11, 5
1503525030195,-1, -3, -4, -1, 1, 0, -7, 6
1503525030217,3, -3, 1, -2, -12, -15, 5, 9
1503525030232,-4, -2, -13, 6, 1, 8, -6, 1
1503525030255,-1, 0, -3, -5, -12, -5, -13, -4
1503525030277,-3, -1, 0, 0, -1, -11, -19, -7
1503525030286,1, -1, -5, 1, -2, -3, -7, -15
1503525030307,-5, 14, 0, 5, 0, 6, 7, -11
1503525030324,-1, -5, -1, -4, -3, -5, -5, -7
1503525030345,0, -2, 0, 3, 8, 7, -13, -18
1503525030368,3, -4, 1, -2, 0, 5, 13, 5
1503525030384,-3, -4, -10, -5, -8, -2, 5, 18
1503525030398,4, 0, -5, -4, 10, 19, 2, 27
1503525030412,-1, 14, -1, -2, 0, -8, 2, 5
1503525030436,-5, -17, 0, 3, -1, -4, -7, -3
1503525030458,-2, -2, 1, 5, 11, 17, 2, 1
1503525030472,10, 4, 4, 1, -1, -2, -6, 29
1503525030495,0, 1, 0, -6, -11, -15, 3, -5
1503525030519,1, 13, 18, 5, -6, -13, 3, -8
1503525030532,-1, -5, -5, -7, 0, -4, 2, 8
1503525030556,2, -3, -8, 0, -9, -14, -2, -12
1503525030577,-5, -5, -1, -3, 0, -1, 0, 6
1503525030593,0, -3, -1, 0, 2, -6, -2, 2
1503525030615,3, -5, -2, -1, -2, 3, 1, -6
1503525030637,-7, -3, -3, 1, 6, 10, -7, -11
1503525030654,-6, -2, -3, -2, -3, 1, -1, -2
1503525030675,-4, -1, -1, -4, -2, -6, -3, -9
1503525030697,-2, 1, -1, -5, -9, -5, 0, -8
1503525030712,-1, -2, -1, 3, -1, 8, 2, 8
1503525030729,2, -6, 3, 6, 0, -3, -6, -25
1503525030743,1, 1, -7, -4, 1, 2, 3, 10
1503525030765,0, 0, 1, -1, 0, -5, -12, -31
1503525030788,-1, 0, -1, 0, 8, -1, 3, -18
1503525030803,-6, 0, -5, -4, -2, -3, -2, -5
1503525030825,-8, -1, -1, 0, -2, 7, -3, -1
1503525030847,-3, -1, 0, 1, 3, 1, -5, -13
1503525030863,3, -4, -6, -5, -6, -8, 3, 4
1503525030888,4, 1, 6, 4, -2, -1, -2, -4
1503525030908,8, 1, 0, -5, 1, -2, -7, 11
1503525030923,1, 1, -2, 0, 1, 0, 2, 0
1503525030945,1, -3, -1, -1, -2, -3, 5, 46
1503525030968,-7, -3, -3, -2, 0, -13, -2, -17
1503525030983,1, 5, 2, 0, 5, 21, 4, 4
1503525031005,0, -6, 8, 5, -2, -4, -3, -10
1503525031028,-3, -9, -3, 1, 0, -2, -3, -11
1503525031043,1, 4, 2, -1, 15, 43, 23, 57
1503525031066,-8, -5, -9, -6, -7, -8, 5, -28
1503525031089,-1, -1, -4, -1, -3, -8, -18, -15
1503525031110,-9, -2, -16, -1, -3, -4, -1, -12
1503525031126,4, 3, -1, -2, -10, -9, 0, -4
1503525031149,0, 1, 6, -5, -9, 1, -11, 5
1503525031170,5, 1, -2, 0, 2, -16, 11, 52
1503525031186,-4, -2, 1, -2, -2, -5, 8, -15
1503525031207,-18, -5, -6, -2, 3, 24, 8, 1
1503525031215,5, 4, -1, 0, -4, 1, -2, -4
1503525031238,-6, -6, -2, -4, -3, 3, 5, 36
1503525031259,-8, -3, -1, -3, -5, -6, -11, -20
1503525031282,-3, -7, -5, -3, -1, -2, 8, 0
1503525031298,-4, 1, -1, 0, -6, -21, 1, 1
1503525031319,1, 6, 4, 1, 7, 8, 2, 7
1503525031335,-4, 12, 2, 2, 0, -7, 7, 15
1503525031358,11, -5, -4, -3, -8, 13, 10, 54
1503525031379,-6, -4, -1, 1, 2, -2, -13, -10
1503525031395,-1, -3, 1, 1, 10, 1, 1, -21
1503525031417,-1, -2, 0, -9, -6, -14, -6, 19
1503525031439,-11, -6, -1, 10, 0, -8, -1, 0
1503525031457,-1, -1, 0, 2, -4, 5, -12, -17
1503525031477,-2, -4, -4, -3, 1, -5, -3, -6
1503525031499,-5, -4, -3, -11, -6, -15, 4, -14
1503525031515,11, 2, 0, -1, -3, 26, -3, -12
1503525031537,1, -3, -3, -2, -1, -11, -14, -24
1503525031560,1, -2, -4, 3, 1, 10, 16, -1
1503525031575,-5, 3, 5, 8, 15, -14, 3, 2
1503525031597,-3, -5, -2, -2, -3, -1, 7, -13
1503525031619,4, -2, -8, 0, 6, 1, -8, -12
1503525031635,-1, -16, -5, 0, 2, 1, 2, 5
1503525031650,0, 0, 5, 14, 2, 10, -10, -64
1503525031666,4, 4, 1, -4, 15, 7, -9, -83
1503525031687,-3, 2, 2, 1, 3, -7, -24, 101
1503525031710,-3, 0, 4, -3, -6, -8, -1, -6
1503525031727,-1, 1, -3, -8, -3, -13, 1, -16
1503525031739,10, -1, 2, 2, -2, 17, 16, -21
1503525031755,-7, -3, -1, 0, -3, -15, -11, -5
1503525031777,6, 0, -1, -2, 0, 7, -5, -14
1503525031800,-5, -6, -4, -4, -11, -3, -6, -1
1503525031815,2, 2, 3, 0, -2, -15, -17, -20
1503525031837,-9, 0, -2, -3, -9, -14, 13, -6
1503525031860,5, 5, 3, 6, -2, -5, 5, -29
1503525031875,-5, -3, -5, -2, 7, 9, -23, 8
1503525031897,4, -12, -3, -4, 1, 11, 13, -7
1503525031919,-15, -6, -4, 2, 4, -1, -17, 20
1503525031935,-4, 0, -1, -4, -8, 1, 7, 15
1503525031961,11, -4, -2, -6, -5, -16, 6, 17
1503525031979,-3, -3, -1, -1, -4, -29, -15, 3
1503525031995,-3, 0, 0, 2, -4, -9, 9, -23
1503525032017,-7, -5, 0, -1, 7, 1, 0, 11
1503525032039,-9, 0, 2, -1, 0, 8, -12, -15
1503525032062,1, 8, 5, 4, 7, 12, -15, 5
1503525032077,9, 0, 1, 3, 22, 42, 12, 30
1503525032099,-14, -13, -6, -7, -7, -14, 14, 23
1503525032122,0, 8, 2, 4, 1, -1, -4, -10
1503525032137,-2, -2, -3, -2, -5, -5, 2, -4
1503525032161,6, -6, -2, -3, 2, 4, 4, 32
1503525032167,-1, 13, -1, -8, 2, 0, 3, -6
1503525032190,4, -7, -1, -4, -3, -15, -7, 4
1503525032212,2, 0, 0, 6, 0, -2, 1, -14
1503525032228,9, -4, -14, -11, -4, 0, -6, 1
1503525032250,3, 11, 3, -10, -14, -36, -10, 2
1503525032272,-2, -4, -1, 2, 6, -2, -4, -6
1503525032287,-6, -4, 2, 3, 8, 34, -2, 16
1503525032310,-2, 0, -1, 2, 0, 6, 1, -9
1503525032332,-5, -4, -4, -7, 1, -5, 0, -12
1503525032347,7, 9, 1, 1, 4, 35, 33, 49
1503525032370,-7, -7, -1, -3, -3, 0, -5, 7
1503525032396,6, -2, -2, 1, -9, -2, -4, 8
1503525032407,4, 9, 3, 2, -4, -23, 0, -22
1503525032430,-2, -5, -3, -4, -2, -5, -8, 9
1503525032452,-2, -7, 1, 0, -7, -3, -7, -6
1503525032467,10, -4, -2, -4, -7, -16, 17, 42
1503525032490,-4, -3, -6, -7, 4, 3, -21, -3
1503525032512,6, 8, 8, 15, -1, -8, -6, -19
1503525032532,-20, -4, -10, -11, -4, 1, -5, 12
1503525032550,-5, -5, -1, 23, 3, 8, 5, -7
1503525032573,6, 3, 4, -6, -8, -5, -3, 2
1503525032587,-2, -2, -3, -6, 4, 4, 5, -33
1503525032611,0, 1, 3, -15, 6, 10, -3, -2
1503525032633,2, -6, 2, 21, 2, 0, 12, 11
1503525032647,-3, -5, -10, -11, 12, 9, -9, -12
1503525032670,-3, -2, -4, -12, -1, 0, -1, 1
1503525032692,-2, 1, 16, 43, 2, -1, -4, 4
1503525032707,4, 18, -1, -12, -4, 0, 1, 20
1503525032732,1, -6, 0, -5, 11, 3, 2, 2
1503525032753,3, -2, 2, 3, -2, -9, 2, 7
1503525032768,-3, 0, -5, -14, -11, -8, -3, -7
1503525032790,-1, 0, 4, 4, -3, 7, 1, -5
1503525032812,-2, -4, -5, -9, 16, 13, 0, -7
1503525032827,-7, -7, -6, -11, -13, -13, -8, 5
1503525032857,2, 1, 2, 0, -7, -15, -5, 72
1503525032873,-4, -8, 0, -4, -5, 10, 0, -27
1503525032887,-5, 2, 4, 9, -4, -17, -6, -9
1503525032921,-2, -1, 5, 3, 1, -3, -5, -3
1503525032940,0, -1, -2, 0, -4, -1, -4, -128
1503525032962,4, 4, 1, -3, -3, 1, -1, 1
1503525032984,1, 13, 2, 0, -3, -6, -3, 55
1503525033000,1, 5, -1, -4, -6, -3, 22, 26
1503525033022,1, -5, -4, -2, 5, 3, -1, 51
1503525033044,-1, -2, -2, 0, -2, -10, -8, 12
1503525033059,-9, -5, -4, -5, -1, 9, -15, -39
1503525033081,-3, -2, 7, 20, -4, -12, -5, -10
1503525033104,-5, -5, -6, -13, 5, 8, 4, 17
1503525033119,6, 16, 4, 4, 3, 10, 1, -30
1503525033142,-2, -6, -6, -13, -8, -22, -8, 5
1503525033166,-8, -4, 4, -17, 4, 21, 0, -1
1503525033180,-3, -5, -9, -9, 2, 6, 5, 3
1503525033203,1, -4, 3, 10, 7, 2, -1, 11
1503525033225,1, -2, -1, 6, -6, -11, -2, 0
1503525033241,3, 2, 17, 59, 4, 7, 1, -3
1503525033263,10, 5, 7, 17, 3, -6, 5, 6
1503525033286,-4, 3, -1, -16, -5, -10, -12, 12
1503525033304,-2, -2, -4, -9, -5, 4, -2, 0
1503525033323,-3, -13, -5, -6, 0, -4, -2, -3
1503525033345,-3, -3, -11, -27, -7, -24, -4, -6
1503525033360,0, -8, -9, 3, 2, 3, 5, 21
1503525033383,0, -1, -4, -1, 6, 17, -1, -8
1503525033405,6, 6, 5, 1, -3, 7, 3, -3
1503525033427,-5, 3, -2, -11, -5, -4, -3, -10
1503525033443,-1, -2, 2, -3, -6, 4, -3, -6
1503525033467,-4, 1, -5, 5, -2, -11, -10, 18
1503525033487,3, -1, 4, 2, -3, -3, -8, 34
1503525033503,-4, -2, 1, -1, 3, 1, 6, 46
1503525033526,11, 2, -5, -5, -3, 2, 6, -27
1503525033548,-13, -14, 7, 14, 4, 2, -3, -16
1503525033563,0, 4, -6, -13, 2, -4, -7, -25
1503525033585,2, 2, -1, -1, 0, 1, -3, -68
1503525033608,-5, -3, 3, 2, -2, 3, -3, 72
1503525033623,1, 2, 4, -10, -4, -12, 8, 56
1503525033645,0, -4, -11, -11, 2, 5, 7, -2
1503525033675,-2, 2, 0, 4, 0, 5, -4, 0
1503525033683,1, 0, 0, -3, 4, 1, 0, 2
1503525033705,-3, 1, 1, 2, -10, -7, -6, -61
1503525033728,3, -1, -3, -1, -4, 3, 3, -21
1503525033743,-3, 1, 0, 0, 0, -1, -1, 38
1503525033765,-4, 2, -2, 1, 0, -4, -2, 10
1503525033788,0, -7, -3, 4, 1, 7, -4, -5
1503525033804,2, 0, -1, 1, 4, 1, 8, -13
1503525033825,1, 0, 0, 1, 1, -2, 7, 23
1503525033848,-8, -5, -3, 0, 3, 11, -5, -1
1503525033863,0, 0, -3, -11, 1, -3, 1, 0
1503525033878,0, -1, -4, -8, -4, -3, -4, 1
1503525033892,-15, -6, 3, -2, -2, -5, 2, 27
1503525033915,2, 5, -3, -4, -5, 2, 1, 3
1503525033938,-1, 1, 5, 9, -1, -2, 3, -4
1503525033952,2, 3, -2, -5, -2, -7, -2, -11
1503525033975,-1, -3, -3, -2, 3, 5, -1, -1
1503525033997,8, 15, 0, -5, -2, 0, -6, 34
1503525034012,-6, -8, -10, -1, -1, 0, 0, -12
1503525034036,-3, -1, -7, -5, -3, -8, 0, -5
1503525034043,5, -3, -6, -5, 1, 9, 12, 16
1503525034065,4, 0, 2, 0, -2, -7, 0, 9
1503525034087,3, 3, -1, -4, 0, 1, -1, 0
1503525034104,1, -2, 0, 4, 1, 1, -6, 1
1503525034125,-4, -2, -4, -7, -1, 0, 3, 26
1503525034147,3, 0, 2, 6, 5, 1, -13, -14
1503525034163,-4, 0, -1, -3, 17, 12, -5, -13
1503525034186,-1, -4, -4, -10, -8, -6, -4, -9
1503525034207,3, 1, -4, 1, 1, -3, -3, -9
1503525034215,2, -2, -1, 6, 0, 0, -2, 12
1503525034238,-2, -4, -7, -2, 5, 10, -3, -9
1503525034252,1, -1, 1, 2, 0, -4, 3, 10
1503525034267,-6, -2, -1, -3, -6, -3, -8, -8
1503525034283,-1, 0, 0, -2, -3, -2, 0, -4
1503525034305,1, -2, -1, -2, -6, -14, -3, 12
1503525034328,-3, -2, 2, 12, -2, -2, -1, 7
1503525034343,0, -2, -2, 1, 8, 8, 13, -3
1503525034365,-1, 2, 2, -2, 7, 24, -4, -6
1503525034388,5, -3, 0, -3, -5, -9, -9, -7
1503525034406,-3, -16, -9, -2, -4, -3, -3, -10
1503525034425,-5, -1, -1, -1, -10, -20, -7, -12
1503525034448,4, 0, -1, -1, -4, 1, 5, 2
1503525034463,-1, 7, 5, -7, -3, -7, 1, 16
1503525034485,-2, 1, 10, 2, 0, 6, 4, -9
1503525034508,4, 9, 1, 4, 5, 0, -4, -10
1503525034523,-3, -1, -2, -8, -4, -1, 0, 3
1503525034546,-4, -3, -7, -2, -5, -9, -3, 5
1503525034568,-3, 24, 21, 1, 1, 8, 0, 7
1503525034583,0, -7, -5, -1, -2, -4, 3, 4
1503525034606,-3, -1, -6, 4, -7, 3, 1, -25
1503525034628,-2, -8, -5, 5, -2, -6, -1, -2
1503525034644,-9, -14, -4, -15, 3, 5, 8, 39
1503525034665,10, 2, 0, 8, 4, 3, 5, 17
1503525034688,12, 0, -12, 1, 3, 6, 4, 16
1503525034703,-2, -4, 4, -6, -5, -9, -4, -17
1503525034725,-7, -2, -3, 5, -3, -1, -9, -47
1503525034748,3, 2, 2, 0, 1, 1, 0, 6
1503525034763,1, -6, -8, 1, 7, 19, 0, -5
1503525034785,-5, -5, -8, -2, -1, -11, -11, -22
1503525034808,-3, 2, 0, -3, -2, -17, 10, -11
1503525034830,-2, 1, 3, -2, 8, 34, -13, 5
1503525034845,6, 12, 1, -8, -4, -17, 2, -14
1503525034868,-9, -3, -3, -4, -10, -18, -12, -18
1503525034889,-4, 0, -3, -3, -6, -9, -8, -14
1503525034897,1, -4, 1, 0, -6, 1, -3, 5
1503525034920,0, 0, -2, -7, -10, -23, -8, -7
1503525034935,-3, -9, -10, -5, -4, -10, -3, 26
1503525034957,-4, 0, 1, -4, 1, -3, -7, -13
1503525034980,0, -1, 1, 3, 12, 12, 0, 2
1503525034995,3, -10, -2, -5, -3, -4, 7, 15
1503525035017,0, 10, -1, -2, -3, 4, 5, -2
1503525035043,-3, -4, -2, -1, -4, -3, 2, -1
1503525035055,-1, -2, 1, -2, -6, -13, 1, 13
1503525035077,4, 11, 3, -3, 3, 9, -6, 5
1503525035100,-4, -8, -3, 3, -1, -10, -11, -2
1503525035117,-2, 4, -3, -1, 2, -3, -2, 1
1503525035137,-2, -3, -7, -9, -8, -16, -4, -9
1503525035160,3, -2, 1, -2, 6, 7, 4, 11
1503525035175,3, 11, -4, 3, 6, 6, 1, 26
1503525035190,-4, 3, -4, -10, 6, 6, -2, -10
1503525035205,-1, 0, 8, -3, 4, -5, -3, -12
1503525035228,1, -2, -12, -13, 5, -2, -6, -2
1503525035250,2, 1, -3, -8, -2, 2, 3, -11
1503525035265,-7, 6, 1, 10, 1, -4, 3, 52
1503525035288,1, -2, -1, 23, 0, -5, -1, -1
1503525035310,0, 1, 2, -4, -8, -12, -4, -32
1503525035325,4, 0, -2, -8, 0, 6, 0, -10
1503525035348,-6, -5, 1, 18, -1, -14, -3, 4
1503525035370,-1, 10, 17, 2, -6, -1, -20, -19
1503525035386,-1, -6, -10, -17, -17, -21, -4, 13
1503525035410,7, 2, 4, 19, 0, -3, 4, 12
1503525035430,0, 0, 1, -15, 12, 27, 3, -12
1503525035446,4, 3, -4, -3, 2, -2, -17, 3
1503525035468,-3, -19, -6, -2, 0, 10, 11, 13
1503525035490,1, -3, 0, 0, 2, 2, 2, -19
1503525035505,-11, 4, 4, 4, -1, -12, 1, -5
1503525035528,0, 4, -2, -6, 0, 3, -5, -1
1503525035550,11, 18, -2, -6, 0, 10, 9, 11
1503525035565,-2, -4, -4, -5, -8, -7, 1, -4
1503525035588,-7, -3, -2, -2, 6, 3, -6, -6
1503525035611,3, -5, -5, -9, 1, 19, 6, 42
1503525035632,-11, -12, -2, -1, -4, -16, 5, 10
1503525035648,1, -1, -3, 2, 8, 33, 12, -51
1503525035670,-2, 13, 3, 13, 3, -14, -7, 87
1503525035685,5, -4, -4, -7, -8, -7, -1, -22
1503525035708,3, -5, -1, 1, -2, 0, -7, -25
1503525035729,-4, 0, 7, 23, 0, 0, 6, 18
1503525035753,-3, -5, -5, -8, -5, -14, 8, 7
1503525035768,2, -3, -4, -6, -1, -8, -2, 0
1503525035790,5, 0, 0, -3, 3, 15, -2, -2
1503525035813,-4, 0, -3, -8, -5, -2, -2, -2
1503525035828,9, 19, 1, -12, 3, 4, -4, -7
1503525035850,5, -6, -3, -4, -5, -14, 15, 15
1503525035873,-3, -9, -2, -3, -3, -11, -6, -21
1503525035888,5, 0, -17, -6, -5, -3, -13, 8
1503525035909,2, 4, -4, -11, -8, -15, 6, -1
1503525035919,-8, -6, -5, -13, -14, -15, -8, -11
1503525035940,-5, -16, 0, -2, 2, 4, 11, 17
1503525035961,-6, -3, -2, -7, 1, 15, -3, 8
1503525035980,-6, -4, -4, -3, -3, -21, -3, 17
1503525036000,4, 6, -3, 1, 1, 1, 10, -4
1503525036021,5, 3, -1, 0, -8, -16, 2, -6
1503525036037,1, 2, 2, 3, 2, 5, -2, -13
1503525036060,-4, -2, -14, 0, 3, 7, -1, 8
1503525036081,1, 3, 3, 7, 15, 27, -7, -17
1503525036097,-5, 3, 2, -1, 3, 10, -2, 4
1503525036120,-4, -10, -3, -8, -2, -5, 0, -9
1503525036141,8, 1, 1, -2, -8, -22, -4, 2
1503525036157,5, 5, 13, -2, 0, -2, 0, -2
1503525036181,7, 2, -2, -3, -5, -17, 6, 1
1503525036201,8, 0, 10, 21, -3, -3, 1, -9
1503525036210,3, 7, 0, -6, 3, -3, 0, 18
1503525036232,-10, -5, -1, -7, -7, -4, -12, -29
1503525036248,-11, 6, 5, 2, 4, -1, -10, 7
1503525036271,9, -1, 8, 18, 6, 8, 4, 15
1503525036292,-5, -1, 12, -1, -4, -7, 0, 11
1503525036308,11, 5, -5, -4, -4, 0, 3, 1
1503525036330,-7, -3, -5, -6, 6, 26, 6, 11
1503525036353,-2, -4, -6, -10, 2, 11, 3, -7
1503525036375,3, 8, -6, -1, -5, -19, -10, 15
1503525036397,-4, -13, -6, 5, 4, 14, 13, 25
1503525036412,-2, 6, -1, -11, -6, -14, 3, -14
1503525036428,11, 9, 0, -6, -2, -2, -1, 2
1503525036450,3, -7, -7, -16, -7, -15, -3, -10
1503525036472,-4, 12, 26, 41, 8, 4, -7, -15
1503525036488,-8, -9, -12, -12, -5, 7, 2, 27
1503525036510,-4, -6, -2, -5, 1, 0, 7, 101
1503525036532,-12, -24, -3, -4, 2, -6, 4, -68
1503525036549,-4, 2, 1, -8, -5, -7, -21, -81
1503525036570,-2, -2, -5, -5, -5, -14, 1, -13
1503525036594,0, 1, 0, 0, -6, -9, 13, -10
1503525036620,-2, -4, -4, -2, 2, 9, -5, -24
1503525036630,-3, -2, -8, -13, -4, -6, 0, -20
1503525036654,8, 2, 2, 3, 11, 12, 11, 37
1503525036675,-10, 7, 5, 15, 3, -7, -16, 83
1503525036690,1, 3, 6, 16, -4, -3, -3, -120
1503525036712,13, 11, 33, 29, 19, 8, 1, 16
1503525036735,-16, -8, -12, -18, -6, -7, -8, 27
1503525036751,1, -6, -11, -11, -4, 1, 8, -58
1503525036773,8, 2, -3, -1, -7, -2, 3, -7
1503525036795,13, -1, -6, -8, -4, -4, 6, 77
1503525036810,-4, 1, -13, -13, -6, 4, -6, 10
1503525036833,4, -1, -1, -8, 0, -5, -1, 12
1503525036855,-7, -7, -5, 1, -1, 2, -3, -16
1503525036870,2, 2, 1, 8, 1, 9, 4, -12
1503525036894,-2, -1, -3, -3, -1, -15, 0, -9
1503525036915,4, 5, 9, 20, -2, -11, -2, 2
1503525036926,-1, 0, 1, 8, 8, 11, 3, 7
1503525036944,0, 11, -2, 0, 8, 17, 0, -5
1503525036960,4, -4, -5, -8, -12, -13, -2, -3
1503525036985,-5, 8, 1, -2, -6, -8, -7, -1
1503525037004,-1, -6, -13, -20, -12, -11, -8, -11
1503525037021,8, 2, 2, -1, -2, 13, -2, 5
1503525037042,0, 14, 0, -2, -6, -5, -3, -16
1503525037064,-6, -9, 3, -6, -3, -8, -9, 2
1503525037080,-2, -7, 5, 0, 4, 16, 2, -2
1503525037102,-2, -3, -2, 2, 0, -2, 1, 5
1503525037125,-4, 6, -2, 1, 7, 8, 8, 0
1503525037140,4, -11, -1, 3, -2, -3, 4, -2
1503525037162,6, -5, -1, 2, -2, -5, 4, 0
1503525037185,-3, -11, -1, 3, -1, -3, -4, 3
1503525037200,-11, -11, 4, 2, -4, -1, -1, -34
1503525037222,-3, 4, 5, 19, -2, -6, -3, 1
1503525037244,3, -1, -6, -6, -6, -3, -4, 7
1503525037262,2, 4, 4, 5, 1, -4, 4, 29
1503525037281,0, 1, -5, -6, 1, -4, -1, 2
1503525037304,1, -4, -4, -6, -6, -4, -4, -29
1503525037320,-1, 0, 1, -5, -9, 0, -10, -8
1503525037341,-2, 2, -2, -3, 0, 10, -1, 5
1503525037364,3, 4, 28, 8, 2, -6, 4, 9
1503525037379,-2, 2, -2, -2, -1, 2, 1, -5
1503525037395,-7, -1, 11, 11, -6, -8, -5, -8
1503525037410,-11, -5, -11, -8, -4, 13, 6, 5
1503525037432,-2, -6, -5, -6, -8, -19, -8, -15
1503525037440,0, 2, -8, -8, 2, -7, 2, -3
1503525037463,-3, -6, -8, -6, -3, 1, -2, 5
1503525037484,-1, -2, -3, -2, -1, 27, 3, 0
1503525037500,-14, -22, -3, -3, -5, -12, -12, -3
1503525037526,9, 4, -1, 9, -1, -7, 3, 3
1503525037544,-3, -1, 1, -4, -1, 1, 0, 8
1503525037559,-3, 7, 16, 6, 3, 3, 1, -3
1503525037574,-6, -5, 2, 0, 1, 12, -3, -28
1503525037593,2, -5, 8, 7, 2, 2, 5, 7
1503525037612,-1, 0, 4, 1, 2, -5, -6, 4
1503525037634,-5, 3, 8, -2, 0, -1, -3, 16
1503525037658,-3, 4, 2, -1, 1, -5, -5, -15
1503525037672,-3, -8, -5, -5, -4, -4, -3, -1
1503525037695,4, 0, 5, 1, -8, -5, 8, 8
1503525037717,-4, -5, 1, 1, -3, -13, -2, -12
1503525037732,-5, -1, -5, -2, -2, -7, -2, -8
1503525037757,-4, 5, 4, -1, -13, -1, -1, -10
1503525037777,1, 3, -3, -1, 3, -7, -1, -17
1503525037792,-7, -6, -2, 2, 4, 4, 1, -14
1503525037814,-12, -10, 22, 6, 1, 6, 2, -2
1503525037837,3, 14, -4, -5, -3, 17, -4, 4
1503525037852,3, -1, -7, -3, 0, -10, -4, 4
1503525037874,1, 3, 15, 18, 0, -3, -5, -21
1503525037898,-1, 0, -10, -7, 3, -2, -7, 0
1503525037913,8, 3, -5, 1, 1, -2, -2, 9
1503525037935,-4, 2, 3, 1, 3, -4, -8, -17
1503525037958,0, -9, -6, -3, 1, 6, 5, -3
1503525037972,7, 15, 16, 5, 0, -2, 13, 48
1503525037995,-6, -4, -8, -6, -1, -11, 5, 6
1503525038017,2, -4, -4, -5, -14, -17, -12, -20
1503525038033,-1, -3, -3, -4, 0, 0, -5, 7
1503525038056,-1, -17, -8, -6, -2, -7, -4, 2
1503525038077,2, 1, -10, -6, 1, 2, 3, -2
1503525038092,-2, -3, -5, -1, -1, -15, -6, 11
1503525038116,12, 4, -2, -2, 0, 11, -5, 27
1503525038137,3, 4, 16, 60, 4, 3, 2, -10
1503525038152,-5, 0, -13, -28, 1, 6, 6, 2
1503525038174,-8, -7, -3, -13, -5, -10, 1, -11
1503525038198,-3, 1, 4, 0, -1, -4, -5, -7
1503525038212,-1, -3, -7, -13, -2, 3, 4, -13
1503525038236,5, 8, -3, 5, 3, 5, 11, -3
1503525038258,-3, -3, -2, -4, 4, 6, -10, -9
1503525038272,0, 0, 7, 1, 2, 2, 11, -7
1503525038295,1, 1, -2, 1, 2, -1, 15, -1
1503525038317,1, 1, 0, -8, -6, -13, 2, 10
1503525038333,0, -3, -4, 0, 7, 12, 1, -16
1503525038358,-4, -12, -2, -6, -6, 3, -12, 6
1503525038377,-9, -8, 4, -3, -4, 8, -16, -5
1503525038393,-2, 0, -11, -4, 1, 17, 3, -7
1503525038415,-7, -2, -7, -4, -3, -17, -3, 2
1503525038437,1, 5, 2, -3, -6, -18, -3, 27
1503525038452,-3, -5, -7, -3, -1, -7, -2, -5
1503525038475,0, -1, 3, -3, 1, 7, 10, 24
1503525038512,0, -2, 3, -2, -5, -20, 10, 29
1503525038530,1, 6, 12, 2, 3, -9, -4, -9
1503525038550,-5, 10, -7, -3, 0, 3, -4, -20
1503525038565,2, -9, -6, -5, -8, -20, -2, 1
1503525038587,-3, 1, 15, 6, 10, 19, -2, -43
1503525038610,-4, -8, 12, 3, -1, 3, 6, 74
1503525038627,5, -4, -14, -12, 1, 6, -8, -13
1503525038647,4, -4, -9, -2, -2, 3, 8, 21
1503525038670,-8, -7, -6, -5, -12, -6, 7, -17
1503525038685,1, 1, -2, 3, 17, 2, -12, -39
1503525038707,4, 1, -1, 0, -5, -5, 0, 1
1503525038732,1, -7, -5, 2, 1, 1, 4, 21
1503525038745,-3, 4, 3, -4, 0, 2, -4, 4
1503525038768,-2, -4, -2, 6, -5, -9, -2, -2
1503525038790,-2, 8, 24, 14, 6, 8, -6, -16
1503525038805,5, -5, -14, -3, -2, 2, -9, -11
1503525038829,-7, -3, -11, -13, -10, -6, 5, -18
1503525038850,2, 1, 1, 2, 7, 4, 1, 2
1503525038872,-15, -6, 3, -4, 3, 11, -12, -18
1503525038887,-4, -2, -8, -10, 1, 15, 2, 11
1503525038910,4, -1, -3, 1, -6, -7, 5, 12
1503525038933,-1, 1, -1, 0, -3, -13, 18, -13
1503525038954,4, -2, 2, 12, 1, 8, 0, 18
1503525038970,1, 4, -2, 4, 0, 0, -6, 10
1503525038995,0, 3, 1, -10, -5, -1, -2, -16
1503525039008,-7, 0, -1, -5, -8, -9, -15, -41
1503525039030,3, 9, 0, 4, 2, -3, -15, -22
1503525039052,5, -2, 8, 7, 13, 8, 12, 7
1503525039068,-4, -4, 3, 6, -3, 3, 0, -7
1503525039090,-4, -3, -5, -9, 0, -1, -10, 2
1503525039112,0, 4, 2, 3, 2, -16, -10, -21
1503525039119,3, 0, -1, -1, 0, -9, -12, -10
1503525039135,-9, -3, 1, -1, 3, 25, 19, -55
1503525039157,-1, -3, -1, 4, 6, 5, 7, 57
1503525039179,1, 2, 3, 2, -5, -20, 13, -5
1503525039196,-1, -2, -9, -14, -8, -7, -6, -86
1503525039225,-5, 2, -4, -2, -8, 2, -6, 11
1503525039239,2, -11, 1, 4, 1, 5, 25, 3
1503525039248,6, -3, -1, -2, 10, 14, 10, -11
1503525039271,3, -4, 0, 7, 0, 15, 8, 0
1503525039293,-3, -3, -6, -18, -13, -34, -9, -7
1503525039307,-3, -1, -2, -6, -11, -16, -27, 23
1503525039331,0, -11, -1, -1, 0, 10, 0, -8
1503525039353,3, -3, -4, -4, 1, 15, 47, -16
1503525039368,3, 7, -3, -8, 3, 10, -14, -5
1503525039390,1, 3, 2, 1, -2, -1, -5, -27
1503525039412,-5, -3, -1, -5, 2, 15, 1, -18
1503525039420,-7, -5, 1, 2, 5, -1, -24, -2
1503525039435,7, 25, 5, -2, -12, -13, 8, 17
1503525039457,-3, -6, -6, -4, 0, -5, 5, -9
1503525039479,-5, -2, 5, 22, 0, -12, -27, -26
1503525039502,12, 0, -5, -14, -9, -11, 11, 2
1503525039517,9, 3, -4, -7, -7, -23, 4, 12
1503525039541,-5, -11, -2, -5, -6, 18, -3, -16
1503525039566,-3, -3, -5, -14, 1, -14, 0, 11
1503525039577,0, -2, 1, 3, 6, 19, 15, 3
1503525039600,-15, -6, -4, -5, 0, 5, -9, -9
1503525039622,-3, 4, -3, -1, 1, 3, -5, 11
1503525039639,6, -5, -2, 4, 4, 9, 12, 5
1503525039654,-1, 3, -8, -2, -3, 1, -8, -26
1503525039674,-2, 1, 8, 7, 7, 3, -5, 1
1503525039690,-3, -6, -2, 1, -3, 0, -10, -14
1503525039713,8, 1, -3, -9, 0, 3, 6, -18
1503525039720,-3, 4, 2, 6, -7, -16, -11, -4
1503525039742,-1, -6, 1, 6, 3, -4, 3, 5
1503525039757,3, 0, -1, -4, -4, 2, 3, 27
1503525039779,10, 20, 4, -7, 2, -3, -1, -12
1503525039803,-1, -10, -2, 5, 2, 36, 3, 4
1503525039817,0, 3, -2, -6, -6, -28, -19, -21
1503525039840,-3, -4, 3, 8, 3, 10, 2, 6
1503525039862,-7, -4, 0, -2, 4, 1, 15, 14
1503525039877,-1, -11, 1, 4, 3, 23, -3, -11
1503525039900,-1, -1, 0, 4, 8, 19, -9, 0
1503525039922,1, -7, -5, 7, -7, -17, 8, 26
1503525039937,-22, -6, -8, -4, -6, -4, 4, 13
1503525039960,5, -7, -14, -31, -2, -8, 0, -15
1503525039982,1, -4, 3, -1, 4, -3, 0, -10
1503525039999,-7, 0, 6, -10, 1, 2, -13, -7
1503525040023,5, 6, -5, -16, -5, -7, -5, -9
1503525040042,-1, 15, 11, 0, -3, -16, -12, 4
1503525040057,3, -3, 3, 28, 3, -1, 1, 10
1503525040080,0, -5, 6, 10, -2, -4, -2, -4
1503525040102,-5, -29, -9, 14, -1, 5, -3, 16
1503525040118,-4, -4, 2, -11, 2, 6, -2, -8
1503525040139,3, 6, -3, -2, 15, 59, 17, 41
1503525040162,3, 5, -3, 14, -5, -16, -6, -26
1503525040177,-18, 1, 8, 39, -1, -5, -5, -9
1503525040201,18, 20, -7, -24, -12, -16, 10, -17
1503525040222,-1, -3, 19, 8, 11, 26, 1, 16
1503525040238,-4, -1, -2, -3, -7, -22, -7, -21
1503525040260,2, 4, 17, 39, -5, -10, -6, -10
1503525040282,3, -3, -3, -18, -1, -7, 0, 19
1503525040297,-6, -6, -9, -12, 6, 7, -10, -83
1503525040319,8, 14, 4, 11, 6, 1, 0, 42
1503525040336,5, 2, -13, 1, -6, -6, 1, 45
1503525040350,2, 6, 22, 43, 3, -11, -11, 52
1503525040372,-1, -1, 3, 6, 2, 0, -11, 7
1503525040387,8, 5, 0, 2, 12, -2, -22, 16
1503525040410,-6, -5, 7, 2, -7, -13, 26, 0
1503525040440,-7, -7, 6, -17, -5, 1, 0, -17
1503525040454,0, -8, -3, 4, -3, 2, 0, -8
1503525040470,0, 9, -3, 3, -9, -23, -20, -16
1503525040492,-2, -27, -9, -26, -5, 0, 2, -8
1503525040514,-3, -1, -16, -24, -2, -1, 7, 5
1503525040531,-5, -4, -1, -4, 0, 21, -1, -7
1503525040552,-2, 4, 10, 34, 21, 14, 3, 6
1503525040574,12, 20, -11, -23, -8, -14, 10, 26
1503525040582,-5, -5, -8, 3, -1, -12, -12, -19
1503525040604,-4, -3, 1, 10, 3, 6, 4, 7
1503525040619,-5, -4, 16, 20, -4, -10, -7, 2
1503525040642,-3, -3, -2, 3, 5, 9, 3, -4
1503525040664,9, 9, -7, -8, 7, -2, 4, -6
1503525040679,3, 2, -6, -1, 15, 7, 5, -5
1503525040703,0, -2, -4, -7, 0, 8, 4, 21
1503525040724,-10, 2, 11, 12, -5, -10, -6, 3
1503525040740,20, -1, 3, 6, -3, -18, 3, 30
1503525040762,-7, 12, 10, -3, -6, -16, -7, -9
1503525040784,-5, -10, -11, -22, 0, 17, 3, -17
1503525040794,-6, -2, -2, -9, -11, -6, 1, 1
1503525040815,-1, 0, 3, -5, -13, -31, -5, 1
1503525040830,-3, -3, 29, 26, -2, -1, 2, -6
1503525040853,0, 2, -19, -20, -4, -2, 0, -2
1503525040875,4, 10, -8, -17, -7, -2, -13, 8
1503525040890,-2, 1, 1, 4, 13, 2, 6, -17
1503525040913,-8, -7, -7, -7, -3, 3, 4, 19
1503525040934,3, 5, -4, -9, -2, -18, 2, 33
1503525040950,-2, -7, -1, -2, -3, 0, 16, -12
1503525040973,6, 8, 12, -9, 3, 2, 2, -9
1503525040994,0, -6, -9, -5, 0, 15, -3, -5
1503525041010,-8, -7, -5, 1, -6, 5, -2, -14
1503525041032,4, 0, -4, 2, -2, 9, -6, -2
1503525041054,1, 1, 3, 6, 4, 25, 4, 9
1503525041073,1, -2, -2, -1, -8, -6, -6, 3
1503525041092,-3, -11, -7, -6, 0, -13, 2, 7
1503525041114,0, -5, 0, -2, -2, 9, 8, 13
1503525041130,3, 3, -2, -9, -6, -14, -5, -2
1503525041153,-3, -2, -7, -3, 6, 1, 4, 2
1503525041175,-5, -12, 5, 8, -7, 9, -1, -6
1503525041190,-17, -9, -5, 2, 2, 1, 0, -6
1503525041213,8, 8, 5, 7, 2, -11, -6, -10
1503525041234,-4, 3, -2, 1, -5, -12, 2, -6
1503525041250,0, 3, 2, -1, 2, -7, -2, -15
1503525041273,1, -1, -2, -1, 1, -1, -38, -8
1503525041294,3, 4, -4, -4, -3, 5, 6, 3
1503525041310,-2, -1, -6, -9, -7, 2, -4, -23
1503525041332,5, 2, 5, 5, 2, -7, 16, -7
1503525041354,-1, 0, 1, 4, 24, 7, -15, 12
1503525041377,3, -1, 5, 4, -15, -4, 6, 0
1503525041392,0, -6, -19, -5, 2, 2, -11, -5
1503525041407,2, 1, -5, -17, -6, 3, -9, -2
1503525041422,13, 3, 39, 77, 7, 1, -3, -3
1503525041445,3, -3, -12, -31, -7, 7, 0, -3
1503525041466,-3, -2, -8, -6, 13, 12, 5, 6
1503525041504,-3, -3, -8, -7, -4, -15, -7, -3
1503525041512,5, 0, -7, 13, -9, -13, -2, 3
1503525041534,6, 1, -5, -6, 2, 8, 2, -2
1503525041557,-10, 3, 14, 6, 0, 8, -10, -8
1503525041575,-5, -3, -5, -11, -10, -15, -8, -7
1503525041594,3, -2, 9, 6, 9, 10, 3, -1
1503525041617,1, 16, 2, 1, -2, 0, 11, 0
1503525041633,-6, -5, 11, 12, 5, -1, -12, -16
1503525041654,7, -4, -16, -25, -3, -1, 5, 11
1503525041677,-3, -1, -3, 2, 9, 16, 18, -3
1503525041693,1, -2, 0, 6, 1, 14, -8, -7
1503525041716,6, -13, -5, -16, -12, -20, -5, 11
1503525041737,-8, 2, -10, 4, 2, 13, -8, -7
1503525041745,19, 6, 15, 10, 35, 37, 3, 8
1503525041766,-8, -2, 1, 2, -28, -55, -13, -19
1503525041782,7, -9, 4, -1, -6, 7, 9, -3
1503525041804,3, 6, -4, 4, 7, 14, 2, 13
1503525041826,-2, 1, -1, 0, -15, -37, -8, -15
1503525041843,-2, 5, 3, 11, 31, 56, 3, 6
1503525041865,6, 1, -3, -6, -10, -14, 8, 63
1503525041873,-1, -3, -1, 13, 19, 50, -7, -5
1503525041894,-1, -10, 5, 2, -20, -26, -1, 15
1503525041918,-4, 3, -4, 5, 2, 11, -13, -25
1503525041932,0, 1, 3, -4, -16, -26, 4, -3
1503525041954,-3, 0, 1, 8, -7, -22, -2, 0
1503525041977,8, 10, -1, -7, 0, -11, -4, 5
1503525041993,3, 2, -5, -7, 1, 4, -1, 17
1503525042017,3, 16, -9, -6, 4, 16, 1, 7
1503525042022,-1, -3, 2, 0, -11, -21, -9, -8
1503525042045,-1, -5, -4, -6, -12, -14, 16, -15
1503525042066,4, 2, -2, 0, -1, -2, 2, 2
1503525042097,-4, -8, -3, 4, 16, 18, 3, -17
1503525042113,-9, 4, -8, -11, -1, 7, 3, -1
1503525042134,-1, 2, -2, 2, -6, -18, -3, -2
1503525042157,-1, 0, 4, 4, 9, 13, -6, -1
1503525042172,-4, -4, 9, -5, -14, -22, -4, -10
1503525042194,-1, -8, -7, -2, -5, -19, 5, 6
1503525042217,1, 5, -2, 5, -1, -3, 14, -6
1503525042233,9, 8, 16, -1, -6, -28, 8, 44
1503525042254,-8, -3, -3, 1, 4, -4, -22, -19
1503525042278,2, 1, -5, -8, -18, -13, 8, 13
1503525042299,-6, -1, -6, 4, 5, -4, -12, -8
1503525042315,2, 5, 20, 11, 3, 7, 3, -9
1503525042337,-2, -4, 2, 2, 8, 25, 15, -3
1503525042359,-2, -5, -11, -6, -7, 23, -7, -10
1503525042374,-3, -2, -8, 1, 14, 25, -6, -3
1503525042397,-2, -1, -7, -10, -9, -21, 4, -1
1503525042420,6, 17, 9, 3, -5, -10, -16, 1
1503525042435,2, -7, -5, 3, 5, 26, -25, -8
1503525042457,-3, -8, -3, 1, 4, 3, 14, -2
1503525042479,1, -12, -5, -4, 0, -8, -9, -6
1503525042494,-6, -11, 0, 2, -5, -13, 7, -13
1503525042517,0, 0, -6, 0, 11, -8, 2, 5
1503525042540,-1, -9, 4, 1, -11, 3, 1, -9
1503525042561,0, 3, -3, -5, -9, -22, -18, -12
1503525042584,-1, 11, 1, 3, -1, -9, -14, 17
1503525042599,2, -2, -5, -3, -3, -11, 1, -6
1503525042617,-3, 15, 1, -3, 11, 18, 26, -50
1503525042639,-7, -5, 1, 2, 5, 4, 13, 93
1503525042659,-2, 1, -2, -3, -4, 10, 19, -14
1503525042674,-3, -5, -2, 0, 15, 39, -11, 2
1503525042697,-1, 15, 0, -2, -16, -38, -15, -15
1503525042719,-4, -8, -1, 1, 0, 3, -5, -13
1503525042734,1, -1, 3, 8, 17, 35, -2, -3
1503525042757,-4, 1, -3, -2, -8, -8, -8, 32
1503525042781,5, -3, 4, 11, 12, 20, 10, -26
1503525042795,3, -1, -4, -6, -8, -14, 10, 15
1503525042818,-2, -4, -3, -5, -12, -26, -3, 10
1503525042839,3, 2, 4, 6, 21, 9, 7, -3
1503525042855,1, -5, -4, -9, -17, -11, -8, -11
1503525042877,0, 0, 2, -3, -8, -2, 6, -4
1503525042900,-3, -1, -1, -1, 1, 22, -33, -19
1503525042915,1, -3, 0, -5, -7, -19, 16, -16
1503525042937,-1, 3, 5, 11, 0, -4, -6, 1
1503525042959,-3, 1, -5, -12, 7, 20, 25, 1
1503525042975,-4, -4, 0, 0, -11, -13, -12, -7
1503525042997,-5, -5, -5, -5, -3, -28, -2, 0
1503525043022,-5, -5, -5, -4, -12, -9, 5, -27
1503525043026,-1, -5, 4, -6, 1, 3, 5, 21
1503525043050,3, 4, -4, 1, -6, 7, 13, 17
1503525043064,-8, -1, 2, 5, -1, -9, -17, -43
1503525043087,-13, -10, -3, -5, 0, 13, -2, 16
1503525043095,2, 9, 12, 2, 5, 19, 1, 27
1503525043118,6, 1, 2, 9, 22, 29, 3, 5
1503525043139,-7, -6, -5, -4, -15, -32, -17, -16
1503525043155,2, 3, 8, 5, -6, -16, -17, 15
1503525043177,-4, -2, -12, -19, -6, -21, -8, 3
1503525043199,0, -11, -9, -8, -11, -16, 6, -20
1503525043222,3, -2, 10, 20, -3, -10, 3, -19
1503525043237,-1, -9, -6, -4, -3, 3, 11, 16
1503525043260,-1, -8, -7, -18, -2, -6, -9, 6
1503525043283,-2, 11, 5, 14, 8, -5, 3, -7
1503525043289,2, -1, 4, 1, -1, -15, -10, 12
1503525043311,1, -4, 7, 3, -2, -7, 6, 14
1503525043327,-1, 3, 0, -17, -1, 1, 1, 4
1503525043350,11, -3, 4, -9, 2, -2, 4, 72
1503525043371,5, -4, 0, 4, 19, 24, 19, 73
1503525043388,-9, -6, -2, 3, -16, -23, -37, -118
1503525043408,-8, -1, -8, -18, -6, 4, 7, -40
1503525043431,-26, -21, -4, 0, -7, -24, 0, -9
1503525043447,-4, 1, 1, -5, -5, -5, -9, 6
1503525043468,8, -1, -1, -3, -1, 9, 4, 51
1503525043492,0, 5, -6, -9, -12, -16, 2, -12
1503525043507,3, 1, 7, 13, 2, 15, 16, -3
1503525043528,11, 0, -1, -5, -10, -29, -4, -8
1503525043551,-3, 5, 5, 14, 14, 2, -22, -16
1503525043567,3, 5, 0, -5, -4, -5, -12, -1
1503525043590,-10, -21, -6, -7, -3, -10, 6, -26
1503525043612,-2, -4, -5, -5, 2, 7, -4, 1
1503525043635,2, -4, -5, -1, 1, 15, -2, 44
1503525043650,-1, 4, 0, 0, -4, 4, 3, 28
1503525043672,-2, 2, -2, 0, 21, 33, 11, 13
1503525043695,0, 2, 1, 3, -4, -9, 11, -14
1503525043710,-2, 16, 9, 12, -6, -18, -2, -24
1503525043733,10, -10, -6, -11, -2, 11, -4, 3
1503525043755,-1, -2, -2, -5, 2, -5, -5, 8
1503525043770,9, 7, -1, -4, -9, -6, 2, -68
1503525043792,0, -3, -9, -9, -1, 6, 4, 28
1503525043799,-2, 9, -6, -13, -8, -2, -9, 22
1503525043822,1, -4, -2, -11, -6, -4, 2, -22
1503525043837,-1, -4, 2, -3, -5, -29, 4, -49
1503525043859,-1, 3, -4, -12, -8, -17, -37, -15
1503525043882,1, 4, -1, -11, 7, 10, 23, -19
1503525043897,-9, -8, -2, 2, -13, -17, 0, 13
1503525043921,-3, 1, 1, -5, -6, -5, 8, -2
1503525043942,-3, -14, -5, 0, 4, 1, 0, 41
1503525043957,2, 0, 1, -4, 7, 14, -1, -12
1503525043979,-15, -5, -7, -2, -4, -5, 1, 4
1503525044002,4, 3, -9, -2, -6, -11, -7, -10
1503525044020,-2, 1, -1, 2, 4, 4, 1, -9
1503525044039,2, 1, -2, -1, -5, 1, 4, -12
1503525044062,1, -1, 5, 5, 1, 9, 5, 25
1503525044078,-19, -11, -5, -2, 9, 3, 4, 15
1503525044115,-4, 5, 0, 1, 0, -1, -7, -13
1503525044130,2, -4, -4, -3, -7, -3, 4, -7
1503525044154,-8, -1, -5, -4, -8, -14, -26, -23
1503525044175,-16, -9, -10, -4, -5, 9, 4, -2
1503525044190,1, -7, -1, 15, 1, -9, -3, 10
1503525044213,1, -2, -7, -7, 3, 7, 6, -1
1503525044235,2, 1, -3, 0, 4, 8, -2, -6
1503525044250,5, -5, 5, 7, 6, 8, 11, -5
1503525044272,-4, -5, -7, -6, -6, 0, -1, -14
1503525044295,3, -5, 3, 5, 5, 4, 8, 5
1503525044302,-6, 4, 2, 3, 5, 23, 2, -11
1503525044324,-4, -1, 2, -1, -3, -17, -2, 1
1503525044339,10, 3, 4, 5, 2, -1, 2, 1
1503525044363,1, 0, -3, 2, 5, 4, 7, 5
1503525044384,-5, -6, -2, 7, 0, -2, 1, 2
1503525044399,-4, -2, -4, -6, -5, -7, -5, 7
1503525044422,-3, 4, 3, -4, 2, 12, 16, -17
1503525044445,-2, 0, 3, 1, -1, 18, 7, 20
1503525044460,-3, -13, -4, -4, -12, -18, -20, -8
1503525044482,0, -2, -5, -1, 1, -5, 3, 3
1503525044504,1, 2, -4, -8, -6, -20, -4, -11
1503525044519,-3, 7, 4, 13, 34, 49, 0, 4
1503525044542,-8, -3, -1, -4, -10, -19, 12, -18
1503525044565,9, 12, 4, 17, -3, -3, -8, -4
1503525044579,-6, 2, -4, -8, -5, -9, -13, -21
1503525044602,-2, -3, -5, -4, -12, -23, -24, 19
1503525044624,4, -3, 1, 0, 6, 1, 5, 1
1503525044633,1, 0, 3, -1, -7, -12, -10, -12
1503525044657,-9, -8, 0, 1, 6, 8, -28, -70
1503525044670,-5, -2, -1, -2, -12, -14, -24, 17
1503525044695,-3, 4, 2, 2, -1, -1, 6, 20
1503525044715,3, 8, -4, -4, 2, 3, 0, 31
1503525044730,-10, -6, -4, -2, 10, 11, -32, -30
1503525044753,0, -3, 0, -1, 1, 17, 10, 10
1503525044775,1, 0, -2, -1, -6, -11, 18, 6
1503525044793,4, 10, 7, 0, -3, -5, 3, -27
1503525044813,1, -2, 2, 3, -4, 1, -5, 3
1503525044835,0, -5, 2, 4, 2, 6, -24, -1
1503525044850,-3, -3, 0, 21, -1, -5, 18, 7
1503525044872,4, 0, -7, 5, 3, -7, 2, -4
1503525044895,-6, 0, -2, 12, -2, -13, 4, 30
1503525044910,1, -1, 1, -7, 15, 0, 8, -9
1503525044933,1, -5, 1, -12, 7, 9, -6, -4
1503525044955,0, 0, 21, -13, -9, 0, -6, -18
1503525044970,1, 2, -3, -3, -9, -7, 4, -15
1503525044993,1, -2, -8, 3, 7, -11, 17, 30
1503525045015,-3, -4, 9, 15, -9, -4, -13, -26
1503525045030,-12, -13, -6, -9, -2, 2, 12, 57
1503525045052,5, 4, -5, -1, 0, -1, -24, -28
1503525045075,-5, -3, -8, -13, -8, 7, 11, 13
1503525045097,2, -2, -6, -7, -3, -3, -2, -2
1503525045112,-10, -3, -5, -9, 2, -2, -6, -47
1503525045135,4, 1, 5, -2, 0, 10, 12, -24
1503525045159,-1, 4, -1, 7, 15, 23, 7, 13
1503525045172,7, 2, -4, -3, -8, -11, 14, 18
1503525045195,2, -2, 0, -1, 1, -2, 0, 0
1503525045202,4, -4, -1, -1, 6, -4, -19, -3
1503525045226,-1, 2, -2, -1, -4, -9, -1, 2
1503525045247,1, 1, 3, 2, 4, 12, 14, 17
1503525045262,7, 5, 10, 23, 2, 1, 1, 62
1503525045284,-7, -6, 1, -6, -1, -7, -3, 0
1503525045307,-9, -6, -3, -2, -7, -9, 4, -27
1503525045322,-1, -3, -5, -9, 2, 18, 14, 30
1503525045344,-3, 0, -3, -3, -2, -1, 27, 14
1503525045368,0, -3, -2, -8, -11, -22, 0, -23
1503525045382,2, -5, 3, 9, 8, 18, 16, -14
1503525045404,3, 6, -3, -6, 19, 75, -10, -30
1503525045427,-7, -3, 3, 11, 1, -4, -16, -7
1503525045442,-2, -1, 0, -4, -2, -18, -10, -1
1503525045464,3, 12, -7, -11, -14, -14, -1, 0
1503525045487,6, 5, -9, -20, -2, 0, -7, 8
1503525045502,-3, -7, -6, -10, -1, -8, 26, 14
1503525045524,4, 2, 1, 11, -2, -7, -30, -8
1503525045547,-12, -6, -6, -4, -5, -16, -10, -11
1503525045562,-2, -1, 1, 2, 8, 22, -7, -9
1503525045584,-1, -7, 2, -3, 18, 31, 11, 38
1503525045607,3, 1, 2, -3, -12, -25, 3, -32
1503525045621,5, -1, 0, -1, 3, -16, 15, 20
1503525045644,-1, -3, -1, 5, 3, 6, -6, -12
1503525045667,0, 1, 17, -2, -7, -4, -7, -3
1503525045681,-3, 0, -5, 9, -8, -11, -1, 13
1503525045704,-12, -7, -10, -11, -17, -57, -12, -2
1503525045730,0, 0, 1, 3, -1, -13, -8, -11
1503525045742,-2, -1, -2, -4, -5, 3, 2, 5
1503525045765,13, 19, 30, 13, 4, 13, 0, 11
1503525045787,-4, -8, -12, -2, 1, -10, -2, 15
1503525045802,-3, -5, -7, 2, 8, 48, 13, 9
1503525045824,7, -2, -9, -8, -5, -11, 5, 33
1503525045847,10, 22, 9, 29, 3, 2, -12, -3
1503525045863,-1, -15, -13, -14, -3, -2, -5, 10
1503525045884,0, -3, 4, 17, -2, 7, 10, -16
1503525045907,-13, -9, -10, -8, 4, -9, -6, 3
1503525045922,-3, 7, -7, -33, -2, 6, 3, -20
1503525045944,-5, 3, 35, 38, -3, -11, -3, -28
1503525045967,2, 4, -6, -15, 4, 1, 0, -8
1503525045988,-4, -4, -4, -2, 6, 4, 31, -10
1503525046004,-2, -9, -4, 0, -4, 3, -4, 3
1503525046027,-3, -9, -8, -16, -6, 2, -23, 6
1503525046049,-3, -5, -13, -20, -12, -16, -4, 35
1503525046079,-5, -6, 6, 14, 0, 1, 5, -19
1503525046096,-8, 11, 2, -1, 1, 0, -26, -3
1503525046117,6, 4, 24, 63, 4, -11, -18, -7
1503525046140,-3, -6, -6, -14, -9, -20, -17, 0
1503525046155,-8, -21, -8, -8, 11, 19, 3, -18
1503525046177,-23, 29, -6, 20, -12, -23, -24, -15
1503525046199,-5, -17, -8, -6, 30, 47, 38, 18
1503525046215,14, 9, 1, -11, -1, 17, 1, -33
1503525046237,18, -5, 1, -6, -6, 1, 16, 15
1503525046259,-3, -3, 15, 29, 8, -2, -2, 10
1503525046275,7, -16, -5, -12, 9, 23, -9, -22
1503525046302,0, -8, -2, -6, -17, -34, 0, 13
1503525046319,-8, 2, -7, -24, -10, -10, -10, -44
1503525046335,3, 3, 4, 15, 20, 15, 10, 26
1503525046357,-2, -6, -5, -14, 3, 13, 30, 20
1503525046379,7, 1, -4, -10, -7, -18, 17, 73
1503525046395,-4, 0, 11, 18, 11, 10, -4, -6
1503525046417,-5, 0, -3, -9, -5, 10, 12, -8
1503525046440,9, 2, -6, -9, -14, -45, 1, 40
1503525046455,2, -1, -9, -17, -8, -11, -6, -74
1503525046477,1, 39, 13, 35, -9, -8, 4, 44
1503525046499,-12, -26, -10, -11, -9, -1, -35, -3
1503525046515,1, 0, 2, 0, 0, -10, -1, -11
1503525046538,0, -3, -8, -24, -4, 0, 3, -2
1503525046560,0, -10, -5, -9, -2, -3, -11, 22
1503525046576,4, -3, 2, 4, 5, 19, 18, -7
1503525046599,-9, -4, -6, -2, -8, -11, -7, -15
1503525046619,7, 15, 5, 9, 3, 5, -1, -9
1503525046637,6, -13, -1, 0, 3, -8, 34, 78
1503525046657,-6, 7, -5, -7, -1, -11, 15, -19
1503525046679,10, 7, 8, 10, 5, 2, -4, 41
1503525046695,-3, -12, 1, -2, -6, -5, -23, -53
1503525046717,-9, -7, -5, -8, 4, 15, -3, -10
1503525046739,-3, -5, 1, -2, -1, 27, -30, -6
1503525046755,-2, -2, -2, 5, -9, -16, 1, -19
1503525046777,11, 8, -5, 5, -2, -9, -10, -37
1503525046801,-5, -3, -3, -5, 1, 20, 3, -12
1503525046815,6, -1, 1, -4, 4, -5, 41, 71
1503525046839,2, -1, 4, 10, -3, -9, -8, -5
1503525046859,-11, -6, -4, -5, 1, 17, -6, -8
1503525046875,9, 3, -3, -11, 0, -7, -7, -7
1503525046897,-8, -11, -5, -4, -4, -22, 9, 1
1503525046920,-1, 13, 2, -3, -10, -10, -8, 8
1503525046942,1, 3, 9, 3, 0, -1, -9, -32
1503525046957,-10, -10, -4, 1, 0, -10, -1, -1
1503525046979,-2, -9, 1, -1, 1, 9, -12, 7
1503525047002,6, -1, -6, -8, -4, 0, -7, -17
1503525047017,-3, -4, -3, -4, 0, -6, 1, -7
1503525047040,-12, 3, 2, 11, 27, 32, -1, -51
1503525047062,1, 5, 2, -2, -13, -9, 7, 0
1503525047077,-3, 5, 1, 2, -4, 0, 1, -14
1503525047102,5, -4, -3, -2, -2, -1, -5, 39
1503525047122,-1, -5, -2, -3, 0, 4, 5, -13
1503525047137,-9, -2, 4, 5, -16, -33, 5, 25
1503525047159,-8, 0, -3, 0, 1, 6, -3, 5
1503525047181,2, 1, 0, 1, 2, 30, 5, 9
1503525047197,2, 7, 2, -2, -8, -16, -3, 10
1503525047226,6, 0, 1, 3, 12, 10, -6, -5
1503525047242,4, 3, 1, 0, 9, 12, 0, 8
1503525047257,2, 12, 0, -1, -5, 1, 16, -15
1503525047279,5, -7, 1, 4, -5, -14, 2, 6
1503525047303,-6, -4, -2, 0, -2, 8, 8, 1
1503525047310,-6, -3, -3, -2, -4, -15, -23, -32
1503525047331,-4, -12, -5, -4, -8, 2, 14, -4
1503525047347,-7, -3, -17, 0, 4, 4, -1, -13
1503525047370,1, 7, 0, -1, -2, -5, 14, -13
1503525047391,-3, 2, 5, -2, 5, 3, -23, -60
1503525047411,-5, -5, 4, 1, 4, -2, 6, 25
1503525047429,4, 0, 4, -2, -4, -2, 5, 11
1503525047451,1, 3, 4, 3, 6, 1, 4, -24
1503525047466,-1, -2, -2, -3, 13, 39, -7, -46
1503525047481,-7, -3, -2, -2, 1, -7, -2, -24
1503525047497,1, -3, 0, -1, -5, 1, 2, 22
1503525047519,2, 5, -1, -2, 0, 8, -17, -29
1503525047542,10, 1, 1, 5, -4, 2, 27, 31
1503525047557,-1, 12, 3, 4, 12, 32, 2, -42
1503525047579,-6, 6, 0, -4, -5, -9, -23, -29
1503525047602,-4, -10, -3, 0, 11, 25, 6, 0
1503525047617,-8, -5, -2, -2, -2, -12, -7, 11
1503525047639,-1, -7, 9, 4, -7, -15, 0, -1
1503525047662,0, -4, -4, -3, 0, -1, -2, 6
1503525047677,-4, -3, -5, -6, -13, -15, -7, -10
1503525047699,6, 4, 1, -1, -7, -8, -2, -20
1503525047722,-4, 3, -4, -5, -6, -7, -9, -17
1503525047738,6, 11, -3, -7, -3, 9, 6, 27
1503525047759,-5, -12, 2, 6, 6, 9, 9, 44
1503525047782,7, -4, -1, -2, 2, -14, 4, 73
1503525047797,-6, 0, -1, -2, -9, -5, -5, -37
1503525047819,0, 14, 2, -13, 2, 5, -13, -38
1503525047842,1, -10, -3, 2, -3, 1, 9, -41
1503525047865,2, 7, -3, -7, 0, -5, 0, -13
1503525047879,0, -5, 0, 7, 1, -1, -19, 18
1503525047902,-9, 5, 3, 10, 22, 53, 7, 9
1503525047924,5, -7, -3, -3, -2, 4, -3, -14
1503525047940,-6, 1, -1, 0, -4, -34, 13, 60
1503525047961,4, -3, -4, -4, 1, 16, -13, 29
1503525047985,-1, -3, 1, 7, 3, -11, 2, -21
1503525047999,-2, -8, -4, -9, -4, -21, 5, -25
1503525048022,-7, -1, -1, -2, -8, -26, -13, -24
1503525048046,-4, 2, -2, -1, -1, 4, -16, -27
1503525048059,1, 12, 3, -4, 9, 42, 14, -16
1503525048082,-9, -7, -6, -2, -7, -17, 2, 1
1503525048107,1, -1, 4, 0, -6, -15, -3, 3
1503525048119,5, -5, -4, -6, -5, -6, -12, -15
1503525048142,-2, -2, -2, -7, -4, -1, 0, -11
1503525048164,2, -2, -10, -13, -11, -4, -1, 1
1503525048179,4, 3, 0, 7, 5, -3, 5, 6
1503525048201,-2, -1, 4, 21, 11, 20, 2, 3
1503525048224,-5, -4, -1, -6, -4, -13, 0, 10
1503525048240,0, 0, 5, -3, 10, 25, 7, 10
1503525048261,-5, -8, -9, -8, 4, 30, 15, 3
1503525048284,6, 1, -5, -6, 0, -8, 0, 15
1503525048299,-2, 5, 14, 47, -4, -13, -1, 4
1503525048322,3, 6, 19, -5, -1, -8, -4, -4
1503525048344,1, -4, -7, -10, -14, 9, 5, 5
1503525048359,-1, -2, -4, -4, -1, -22, -6, -5
1503525048384,0, 7, 14, 39, -2, -7, -7, -4
1503525048404,-4, -4, -13, -17, -9, -30, -7, -4
1503525048419,1, 8, -3, -10, -2, -10, -5, -6
1503525048442,-2, -2, -1, -3, 2, -6, 5, 4
1503525048465,-1, -3, -3, -6, -6, 12, 12, -2
1503525048479,-5, 0, 1, 1, -4, -10, 1, -3
1503525048501,-4, -8, -4, 6, 5, 10, 1, 8
1503525048524,7, 1, -1, -6, -1, -4, -10, -6
1503525048539,-4, -1, -2, -4, 15, 19, -12, -10
1503525048561,-2, -4, -1, -1, -3, 12, 8, -10
1503525048584,-2, -8, -6, -17, -7, -27, 0, 10
1503525048599,2, 6, -2, -2, 16, 53, 10, 15
1503525048621,-5, -6, 5, 3, 0, 16, -8, 0
1503525048644,-4, 8, 1, -7, -4, -15, -14, -13
1503525048659,-8, -11, -4, 3, -4, 8, -17, -10
1503525048682,7, 2, -4, -9, -8, -33, 10, -1
1503525048704,9, 2, 3, 2, 0, -6, 5, 11
1503525048719,-1, -3, -11, -8, 3, 8, -3, -8
1503525048744,-5, -6, 2, 3, 7, 10, -27, -2
1503525048764,6, 1, 7, 21, -5, -11, 13, 1
1503525048779,3, 4, 5, 1, -5, 6, -4, -28
1503525048802,-5, 1, 0, 0, -4, -21, -2, -11
1503525048824,-1, -4, -5, -9, 3, 10, 6, 18
1503525048847,4, 13, 3, 2, -8, -42, -21, 17
1503525048861,-6, -3, -4, -3, 3, -5, 4, -12
1503525048884,1, 1, -2, -3, -4, 2, 2, 3
1503525048906,-3, -4, -14, -13, 2, 20, -3, 16
1503525048922,-3, -8, -2, 0, 6, 33, 18, 21
1503525048946,2, 14, -2, -5, -3, -12, 3, 2
1503525048960,-10, 9, 5, 1, 2, -11, -7, 24
1503525048975,-3, -8, -1, 11, -1, -6, 15, 9
1503525048997,-4, -7, -9, -14, 0, 0, 10, 5
1503525049020,15, 9, -1, -3, 1, 2, -8, 38
1503525049034,6, 12, 0, 7, -6, -5, -15, -23
1503525049057,-10, -2, 5, 15, 7, 36, 17, 2
1503525049075,-7, -8, -4, -12, -3, -18, -2, -4
1503525049094,-9, -4, -4, -10, -4, -1, -18, 1
1503525049118,-1, -22, -6, -10, -9, -39, -1, -10
1503525049132,0, -5, -3, 0, 0, -6, -3, 10
1503525049154,1, -8, -7, -9, -1, 5, -20, -10
1503525049179,-3, 2, 4, 3, 2, 8, 13, -4
1503525049199,4, 0, -5, -6, -4, 11, 9, 6
1503525049215,-2, 3, 3, -6, -2, -11, 5, -28
1503525049237,-4, -4, 0, 1, 0, 11, 14, -2
1503525049259,2, 3, 2, -1, -4, -19, -3, 10
1503525049274,-6, -4, -1, -5, -9, -24, 2, -13
1503525049297,-4, -2, 0, -2, -1, -7, 5, -3
1503525049319,2, -8, -1, 4, 9, 37, -1, 9
1503525049334,-11, -4, -1, 3, 8, 15, -6, -30
1503525049357,6, 3, 0, 0, 9, 25, -2, -1
1503525049381,1, 5, -4, -6, -6, 0, 8, -14
1503525049394,0, 18, 1, 2, -2, 0, -11, 5
1503525049417,-2, -1, -6, -6, -2, -4, -2, -6
1503525049424,0, -1, -3, -9, -1, 7, 10, 14
1503525049448,-1, -2, 0, 4, 0, -8, 8, -11
1503525049461,-10, -16, -3, 21, 4, -3, -4, -11
1503525049484,-17, -10, -3, -17, 5, 23, 16, 8
1503525049507,7, 5, -3, -10, -1, -7, 7, 1
1503525049523,0, 5, -2, -9, -4, -17, -20, 4
1503525049544,-3, -1, -2, 2, -1, 0, 7, 12
1503525049567,9, 4, 1, -3, 3, 2, -3, -86
1503525049575,10, 8, -1, -4, -6, -8, -16, 12
1503525049597,-2, 4, -1, -2, 10, -21, 1, 60
1503525049620,-1, -2, 2, 12, 10, -4, 20, -58
1503525049627,0, -4, -4, 1, 5, 15, 13, 15
1503525049642,11, 0, -7, -6, -16, 8, -5, 3
1503525049664,0, 0, -2, -4, -1, 4, -9, 34
1503525049687,-5, 0, 8, 5, 4, -14, -3, -84
1503525049702,-16, -5, 3, 5, 15, 41, -4, 7
1503525049724,3, -9, -6, -1, -7, -22, -3, 29
1503525049749,1, -1, -1, -3, -1, -1, 1, 4
1503525049769,1, 7, 0, -3, 2, 6, -14, 4
1503525049784,0, 9, 3, 0, -9, -34, -10, -6
1503525049806,-3, -3, 5, 5, 1, 7, -7, -23
1503525049829,-3, -19, -5, -1, 5, -4, -12, -5
1503525049844,10, -3, -13, -14, -14, -29, 0, -7
1503525049866,-7, 2, -1, 0, -8, -5, -10, -43
1503525049889,-5, -13, -2, 3, 5, 8, 29, -16
1503525049904,12, 0, -2, -8, 3, 9, -4, 127
1503525049927,-8, 4, 1, 11, 3, 2, -31, -102
1503525049950,5, -2, 3, -1, 0, -4, -4, -47
1503525049964,-9, -1, 6, 19, 1, 10, 10, 27
1503525049987,8, 19, -4, -19, -1, -4, 3, 21
1503525050009,-22, 12, -6, -6, -2, 3, 14, 10
1503525050024,-4, -11, -5, -1, -1, -2, 6, 0
1503525050046,-4, -4, -1, -8, -6, -20, 2, -28
1503525050069,-3, 0, -1, 32, 5, 6, 12, 4
1503525050088,-8, -9, -3, 13, 1, 12, -7, -8
1503525050106,7, -5, 3, -16, 3, 7, 17, 3
1503525050129,-1, 7, 4, 0, 9, 5, 11, 38
1503525050144,9, 0, -5, -16, -4, -11, -21, -3
1503525050166,0, 2, 2, -5, -7, -3, -14, -56
1503525050189,-2, -10, -6, -7, 0, -5, -3, -35
1503525050211,4, -1, 0, 0, 6, 6, 4, 56
1503525050226,-10, 2, -12, -6, -7, -2, 23, -10
1503525050252,-3, 1, -4, -3, -4, 6, -16, 17
1503525050264,5, 2, 4, 0, -8, -14, -8, 23
1503525050287,-1, -1, 16, 24, 7, 18, 0, -1
1503525050309,6, 6, -3, -11, 9, 14, 10, 2
1503525050324,5, -2, 0, -2, -5, -7, 1, 34
1503525050346,-3, -1, 1, 11, -2, -9, -10, -25
1503525050369,-6, 1, -3, -9, -1, 15, -7, 0
1503525050385,-2, -2, 0, -4, -3, -7, 5, 14
1503525050406,2, 1, 0, 0, -6, -10, -10, -10
1503525050429,1, 2, 4, 4, -5, -12, 7, -11
1503525050444,-2, -2, -9, -11, -2, -9, -12, -4
1503525050466,-3, -2, 4, -3, -5, -10, -5, 4
1503525050489,6, 15, -1, 0, 5, 11, 11, 2
1503525050504,-7, -10, -2, 4, 1, 8, 3, -2
1503525050527,1, 0, -1, 0, 4, 6, -11, -2
1503525050549,0, -2, -2, -1, -9, -17, -10, -19
1503525050564,7, -4, 3, 8, -3, -5, 4, 11
1503525050588,-2, 2, -2, -2, 3, -6, 5, -3
1503525050609,-6, -7, 3, 5, 7, -12, 7, -33
1503525050624,-2, -6, -4, -9, -9, -7, -13, 29
1503525050646,0, 2, 0, 0, 3, 3, -20, 10
1503525050669,0, 6, 3, 1, -7, 12, -6, -7
1503525050692,-5, -5, -4, -6, -6, -7, 0, -2
1503525050706,-3, 2, -13, -7, -4, 3, 1, -8
1503525050729,2, 0, -5, 1, 8, 11, -2, -6
1503525050759,6, -1, 4, 5, 20, -2, 17, 29
1503525050767,1, 1, 1, -1, -9, -7, -12, -5
1503525050796,0, 17, 1, 0, 1, 16, -10, -8
1503525050800,-19, -8, -8, 3, -1, 3, -3, -20
1503525050821,4, 2, -4, -2, -2, -3, -10, 1
1503525050841,-1, 1, 2, 1, 1, 13, 15, -12
1503525050859,16, -4, -1, -2, 4, -1, -10, -26
1503525050879,-1, 5, 0, 0, -5, -9, -6, -7
1503525050901,-2, -6, -1, -4, -10, -15, 3, 2
1503525050917,1, 0, 2, 4, 18, 24, -1, -9
1503525050939,-1, -10, 3, 0, 0, 0, 15, 43
1503525050961,-12, -2, 4, 5, -6, -12, -4, -10
1503525050977,6, 7, -2, -6, -1, 10, 3, -5
1503525050999,5, 5, 2, 4, 18, 27, 6, 38
1503525051022,-8, -17, -6, -5, -5, -6, -3, -19
1503525051037,11, 9, 10, 12, 0, -7, -10, -14
1503525051060,1, 5, -3, -7, -11, -30, -8, -2
1503525051081,-6, 0, -4, -3, 1, -7, -24, 1
1503525051097,-3, 1, -1, -5, 0, 7, -22, -11
1503525051121,-3, -8, -4, -4, -10, 0, 0, 33
1503525051141,-4, -4, -1, -2, -4, -3, 10, -15
1503525051157,-1, 1, -3, -3, -1, 6, 31, 8
1503525051179,0, 1, -2, 4, 10, -1, 6, -1
1503525051202,-4, 11, -1, -4, -10, -5, -3, -16
1503525051217,-1, -1, -1, 2, -2, -12, 1, 21
1503525051239,7, 0, -2, -1, 3, 12, 6, 7
1503525051262,1, -1, -4, -5, 2, 14, -4, -2
1503525051277,7, -5, 0, 4, 14, 0, -6, 8
1503525051299,-8, -1, 1, 2, 3, -2, -4, -17
1503525051323,-3, 11, 4, 0, -10, -3, 22, -8
1503525051337,-7, -2, 6, -10, -3, -17, -19, -26
1503525051360,1, -6, -12, -14, -3, -1, -7, -5
1503525051381,-2, 0, -4, 4, -6, -8, -15, 22
1503525051404,1, -8, 1, 0, -3, -3, -3, 8
1503525051419,-8, 0, -8, -7, 0, -17, -11, -10
1503525051426,2, -3, 4, 0, 1, -1, 2, -4
1503525051449,-1, -1, -3, -11, -1, 0, -9, -8
1503525051471,-2, -5, -3, -7, 3, 3, -8, -8
1503525051493,4, 2, 9, 23, 25, 60, 7, -2
1503525051509,2, -14, 5, 8, 1, -22, -18, 11
1503525051532,-5, 2, 5, 14, -8, -5, -11, -10
1503525051547,-5, 0, -5, -8, -10, -4, -4, -5
1503525051569,-3, 0, -4, -18, -12, -19, -4, -1
1503525051591,-3, 0, -4, -8, -9, 13, 8, -13
1503525051600,-1, 4, 9, 17, -6, -22, -12, -9
1503525051621,0, -1, -2, 8, -3, 7, -24, -22
1503525051644,1, 1, -3, -6, 13, 1, 10, 28
1503525051659,1, 0, -2, 5, -11, -35, 1, 96
1503525051681,-5, -21, -6, -1, -2, 7, 22, -49
1503525051704,8, 10, -5, -8, 2, 7, -16, -34
1503525051719,-1, 2, 6, 8, -7, 10, 14, 14
1503525051741,-3, 1, 0, 2, 2, -13, -2, -20
1503525051764,-2, -2, 1, 3, 4, 3, 11, 1
1503525051779,5, 8, 0, -11, -9, -28, -13, -12
1503525051802,-5, -1, 3, 5, 22, 25, -4, 5
1503525051828,10, 2, -1, 13, 12, 5, 9, 11
1503525051832,2, -1, 0, -5, -4, 0, -3, 9
1503525051853,-5, -10, -2, -2, -3, -1, 15, 7
1503525051869,-1, -4, 1, 0, -1, -6, -9, 5
1503525051893,0, 2, 3, 7, -3, -9, 4, 15
1503525051913,-2, -1, -3, -2, -1, -13, 2, 11
1503525051929,2, 4, 2, 4, 2, -11, -4, 2
1503525051951,-2, 1, -3, -6, 1, 4, 10, 16
1503525051973,5, 17, 13, 2, 1, 9, 15, -15
1503525051989,1, -3, -6, -10, -15, -10, -7, -1
1503525052011,-6, -3, 1, -1, -8, -8, -15, -23
1503525052034,6, -1, -1, -2, 0, -4, -6, 6
1503525052049,1, 4, 0, 2, -4, -5, 2, 17
1503525052074,-4, -7, -3, 4, 3, 0, 1, 3
1503525052094,2, -1, -3, -4, 5, 7, -5, 4
1503525052109,-3, -6, -1, 11, -1, -4, -14, 0
1503525052132,-1, 3, 4, 5, 11, 34, -9, -13
1503525052153,6, 0, -3, -7, -4, -7, 29, 21
1503525052169,7, 15, 4, 11, 0, -7, -2, -19
1503525052193,-12, -9, -2, 3, -2, -13, -7, -8
1503525052213,-7, -6, 0, -1, 1, 43, 12, 81
1503525052229,-2, -2, -3, -13, -8, -19, -10, -25
1503525052251,-2, -4, -3, -6, 6, 12, -2, -13
1503525052273,1, 2, 5, 8, 1, -15, -5, -2
1503525052289,3, 1, 2, -4, -1, -4, 0, -3
1503525052312,-5, -2, -2, 2, 1, -3, 4, 8
1503525052333,-4, -4, -2, 7, -9, -17, 10, 13
1503525052349,2, -4, -7, -9, 5, 23, 5, 2
1503525052371,5, 6, 1, 2, 6, 18, 2, -22
1503525052395,0, 0, 4, 7, -3, -11, -1, 16
1503525052409,-1, -14, -10, -4, -4, -19, -8, -3
1503525052432,-8, -4, 1, -3, 2, 18, 2, -11
1503525052453,-2, 0, 2, -9, -8, -14, 2, -1
1503525052470,-1, 4, 6, 17, -1, -10, 13, -6
1503525052491,-6, -15, -11, -16, 0, 9, 0, -14
1503525052514,10, -3, 6, 9, 0, -3, -3, -11
1503525052537,-15, -11, -7, -11, -3, -5, -12, 12
1503525052552,-7, 44, 2, 5, -1, -2, 0, 18
1503525052573,-9, -22, 1, -2, 2, 3, -3, -4
1503525052596,-11, 18, 20, -3, -3, -7, 9, 43
1503525052611,36, 44, 33, 45, -1, -7, -42, -10
1503525052633,-47, -17, -19, -21, -1, -1, 6, -48
1503525052656,9, -9, -13, -11, -6, -13, 6, 87
1503525052672,13, -2, -17, -25, -3, -22, 5, -29
1503525052695,-26, 15, 21, 1, -6, -1, -7, -69
1503525052716,16, -24, -14, -2, 7, 16, 9, -37
1503525052731,-11, -2, -6, -16, 5, 18, 27, 36
1503525052754,-17, 21, -10, -7, -2, 4, -11, 47
1503525052776,-21, -28, -12, -8, -4, -6, -37, 20
1503525052791,28, -5, 4, 2, 7, 8, -2, -42
1503525052814,8, -12, -3, -5, 3, -4, 19, 7
1503525052836,14, 3, -1, 4, -9, -8, -7, -18
1503525052851,9, -5, 3, 13, 3, 12, 25, -8
1503525052874,13, -2, 3, -6, 4, -4, -2, -46
1503525052898,4, -5, -3, 9, -3, -11, -4, 29
1503525052911,3, 6, 16, 0, 1, 24, 16, -4
1503525052934,-6, -17, -7, -4, -6, -3, -4, 4
1503525052956,-12, -7, -12, 6, 4, 9, -20, -14
1503525052972,4, 3, 0, 10, -1, -13, -4, -12
1503525052993,-5, 19, 21, 36, 13, 9, -5, 1
1503525053003,8, -5, -4, -7, -7, -7, -3, 20
1503525053024,-5, -3, 0, -5, 7, 13, 0, -15
1503525053046,40, -12, -3, -5, 2, 25, 41, 6
1503525053061,-14, -6, -5, -1, -7, -9, -19, -27
1503525053084,-8, 4, 0, 12, 1, -1, -17, 6
1503525053107,-6, 5, -4, -4, -6, -14, -3, 1
1503525053121,-2, 4, -1, 2, 0, -5, 0, -5
1503525053144,-2, 17, -14, 5, 1, -6, -10, -7
1503525053168,14, -5, -4, -9, 11, 34, 19, -3
1503525053181,-16, -33, 4, 10, -3, 1, 14, 31
1503525053205,37, -36, 3, 7, -4, 0, -15, -13
1503525053226,-14, 19, 10, 1, -3, -12, 7, -11
1503525053241,8, -4, 7, -8, -3, -2, -10, -18
1503525053256,43, -1, 21, 3, -3, -5, -3, -6
1503525053272,-19, 3, -10, -8, 5, -2, -8, 1
1503525053293,18, -2, -7, -1, -3, 1, 11, -18
1503525053316,-12, 16, 1, 12, 20, 54, 0, 34
1503525053333,-6, 6, -3, -8, -11, -17, -5, -20
1503525053353,-16, -9, -3, 8, -2, -11, -10, -7
1503525053376,1, 4, -4, -8, -11, -10, 1, 39
1503525053391,-8, 0, -2, 2, 6, 15, -6, -21
1503525053413,5, -3, -6, -1, -10, -12, 1, 2
1503525053436,-10, 4, 0, 5, 0, -3, 6, -5
1503525053451,-2, -11, -5, -14, -6, -9, 2, 11
1503525053473,-3, 11, 3, -3, 11, 31, -1, -26
1503525053496,5, -6, -3, 0, -6, -16, 9, 6
1503525053518,-26, 2, -2, -1, -1, -8, -11, -16
1503525053534,1, -5, -2, -5, 3, 4, 33, 23
1503525053555,55, -8, -7, 3, -3, -1, 4, -5
1503525053578,-3, -3, 1, -7, -1, -4, -13, -4
1503525053593,-6, 11, 2, 3, 2, -4, 10, 33
1503525053615,-4, -5, -2, 3, -3, 3, 8, -36
1503525053638,-7, 18, -1, -6, 0, -2, 1, 12
1503525053653,-12, 2, 5, 2, 0, 4, -13, -20
1503525053676,-7, -9, -2, 1, 0, -10, -14, 2
1503525053698,-8, -2, -3, -1, -7, -17, -5, -13
1503525053713,-7, -3, 2, 3, 5, 7, -4, 19
1503525053736,-3, 0, 19, 27, 5, 6, 1, 9
1503525053758,23, 4, -7, -7, -4, -6, -9, 15
1503525053773,4, -6, -3, -3, -1, -3, 4, -5
1503525053796,-1, -3, -2, -4, -2, -8, -12, -12
1503525053818,-9, 0, 7, 2, 1, 9, 6, -14
1503525053836,-2, -2, -10, -14, -1, -1, -10, -19
1503525053855,-7, 6, -1, 1, -8, -33, -19, -8
1503525053878,1, -17, -6, -1, -2, 4, 12, 4
1503525053894,-5, -8, -11, 0, 1, 3, 11, 10
1503525053916,7, 9, 3, 8, -3, 3, 5, 6
1503525053938,-24, -5, -4, -8, 11, 38, 0, -21
1503525053954,6, 5, 3, -2, -14, -19, -9, 7
1503525053976,8, 1, 13, 0, 7, 13, 3, 17
1503525053998,40, -14, -3, 5, 3, -4, -4, -2
1503525054014,-3, -3, -8, -8, -6, -11, -16, -8
1503525054039,-5, 9, -8, -9, -3, -1, 1, 11
1503525054059,-9, -1, 4, 5, 11, 23, 15, -1
1503525054083,3, 2, 0, -2, -4, -7, 1, -20
1503525054097,-25, -31, -4, 2, -1, -3, -7, -7
1503525054119,0, 3, -4, -10, -2, 0, -1, -42
1503525054143,1, 5, 0, -6, -5, 1, -7, 37
1503525054157,6, 10, -3, -11, -1, 3, 3, -29
1503525054179,-2, -10, -2, 1, -3, -10, 9, 24
1503525054204,-3, 9, 0, 2, -6, -15, -13, 19
1503525054217,-2, 4, 0, 3, -2, -6, 27, 4
1503525054239,-4, -35, -8, -14, -2, 1, -1, 4
1503525054262,-2, 1, -2, -1, -2, -7, -4, -20
1503525054277,-6, 5, 1, 0, -4, -14, -12, -4
1503525054300,-1, 6, 0, 2, -8, -14, -14, 9
1503525054323,0, -2, 2, 10, 8, 0, -7, -5
1503525054340,19, 13, 20, 8, -2, 8, -1, 12
1503525054359,0, 5, -8, 1, -2, 4, 9, 2
1503525054382,-4, -1, -1, 1, 6, 18, 19, 3
1503525054398,-8, -12, -3, 0, 2, -7, -13, 24
1503525054419,2, 9, 1, 0, 0, 6, -4, -7
1503525054445,-8, 3, 11, -2, -2, 4, -2, 1
1503525054457,5, 1, -3, -2, -2, -2, -4, 10
1503525054481,5, -1, -5, 6, -6, -12, 8, -11
1503525054502,2, 0, -4, -2, 3, 14, 3, 15
1503525054517,-1, 3, -1, -1, 3, -3, 6, -10
1503525054539,5, 2, -2, -1, 4, -5, -11, 15
1503525054562,-18, -5, -12, -1, 1, 3, 17, -10
1503525054577,-14, -6, 0, 2, 4, 23, 4, -13
1503525054599,9, 0, -1, -6, -10, -19, -4, -6
1503525054622,-2, -11, -2, -3, 9, 19, -2, -5
1503525054645,6, 0, 3, -4, -5, -8, -18, -41
1503525054659,2, -1, -3, -2, -3, -3, 7, 36
1503525054682,5, 6, 3, -1, -3, -5, -1, 14
1503525054697,3, 6, -1, 0, 1, 8, 5, 28
1503525054719,-4, -1, -2, -1, -3, 3, -6, -18
1503525054742,-6, -1, -1, 1, -3, -7, -6, -14
1503525054764,-20, -1, -1, 3, 1, -5, -3, -21
1503525054779,0, 1, -4, -2, 0, -9, 13, -5
1503525054802,3, -5, -3, 1, 4, 8, 5, 8
1503525054817,7, 1, 3, 4, 4, 0, 0, 19
1503525054843,6, 14, 3, -2, -5, -9, -8, -25
1503525054862,-1, -4, -1, -1, -1, 4, -9, -9
1503525054877,2, -3, 0, 0, 3, 20, -33, -3
1503525054899,-3, 2, -1, -1, 6, -3, 2, -31
1503525054922,-3, -1, 3, 2, -2, 13, 3, 12
1503525054937,-2, -3, -3, -4, -1, 0, 13, 1
1503525054959,4, -4, -2, -8, -13, -28, 13, 9
1503525054982,4, -1, -1, 0, -5, -6, 7, 26
1503525054997,-2, 3, -1, 1, 6, 9, -4, 7
1503525055019,-1, -2, 3, -2, -9, -3, 7, -3
1503525055042,-4, -3, -2, 0, -2, -17, -20, -10
1503525055064,-2, -1, -2, -4, -4, -8, -12, 50
1503525055080,2, 1, 1, 2, 17, 43, 13, -18
1503525055102,-3, -3, -6, -9, -6, 5, 10, -20
1503525055124,0, -2, -4, -2, -4, -10, 7, 1
1503525055140,-10, -1, -3, -4, -12, -33, 1, 18
1503525055162,-6, -6, -4, -1, -6, -18, 3, 1
1503525055184,3, 2, 1, 7, 12, 12, -4, -9
1503525055199,-4, 4, 2, 7, 14, 28, -6, -18
1503525055222,6, -3, 0, 0, 0, 3, 16, 10
1503525055244,10, 8, 0, -1, 0, 4, -1, 25
1503525055259,-2, -1, 1, -6, -9, -18, -23, -22
1503525055282,-8, -1, 0, 0, -1, 14, 7, -4
1503525055304,2, -4, -2, -1, -7, -10, -24, 9
1503525055319,-3, 0, -1, 3, 3, -5, 7, -27
1503525055343,0, -1, -1, -2, -1, -18, 0, -6
1503525055364,-2, -2, 1, 3, 12, 15, 2, -7
1503525055380,-2, 2, -1, -2, -11, -18, -14, -51
1503525055402,-2, 6, -1, -3, -8, -11, -15, -11
1503525055424,1, -8, -3, 1, 17, 18, 23, 26
1503525055439,-7, -3, 1, 0, -1, 4, 5, 23
1503525055462,1, 0, -2, -6, -12, -38, -4, -6
1503525055485,-2, 1, 5, 9, 4, 8, -2, 21
1503525055499,0, -6, -6, -10, -13, -21, 17, 69
1503525055522,0, 0, -1, -3, 0, -2, -1, -13
1503525055544,2, -5, 0, 4, 10, 18, -4, -10
1503525055552,-18, -6, -5, -5, -2, -4, -2, -12
1503525055574,2, -2, 0, 0, 2, 12, -22, -23
1503525055590,-3, -3, 2, 2, 2, -22, -11, -7
1503525055611,7, 2, 2, 1, 1, 14, 7, 3
1503525055634,5, -4, 0, -3, -15, -36, 5, -13
1503525055649,0, 5, -6, 1, 1, 1, -6, -6
1503525055671,-2, 1, -5, -2, 16, -3, 4, 0
1503525055693,-1, -2, -3, -4, -10, -35, -13, -5
1503525055702,6, 4, 3, -2, -3, 5, 10, 25
1503525055724,12, 3, -5, -1, 1, -2, -11, 18
1503525055739,-10, -1, 1, 0, 1, -11, 2, 11
1503525055762,-5, -5, -1, 6, 22, 54, -9, 23
1503525055784,-4, -12, -1, -5, -5, -7, 0, -4
1503525055799,7, 8, 13, -4, -1, 3, 9, -9
1503525055822,-12, -25, -10, -8, -4, -8, 4, -4
1503525055846,-3, 1, -4, -1, -12, -2, 15, 8
1503525055859,3, 2, -1, -5, 6, -7, -8, -1
1503525055883,-22, 5, 21, 5, 5, 4, 3, 2
1503525055904,15, 4, 5, -1, -1, 0, -1, 45
1503525055919,1, 4, -12, -7, -3, -3, 7, -14
1503525055942,-4, -5, -6, -4, -5, 1, -27, -58
1503525055964,-3, 2, -1, -1, -10, -20, -10, -5
1503525055982,0, -3, 0, 13, 7, 11, 7, -19
1503525056002,-1, 0, -5, 4, 4, 0, -2, -12
1503525056024,-4, -18, -20, -2, 3, -3, 3, 17
1503525056039,1, 3, -3, 0, 10, 21, 9, 0
1503525056055,12, 7, 5, 3, 34, 50, -5, 13
1503525056069,11, 15, 7, 1, 1, -9, -7, 8
1503525056091,-6, -7, -5, -9, -6, -3, -6, -1
1503525056115,-6, -12, -2, -3, -6, -12, -6, -26
1503525056130,9, -2, 0, 4, 11, 0, -12, -8
1503525056151,1, 0, -5, -7, -10, -6, 20, 16
1503525056174,-6, 6, 4, 7, -2, 4, -9, -10
1503525056189,-3, -5, -3, -2, -3, 0, -7, -57
1503525056211,-3, -1, 1, -4, -9, -18, -7, 48
1503525056234,-8, -4, 0, -3, -3, 1, 0, 20
1503525056249,4, -5, 5, 14, -3, -5, -20, 4
1503525056271,2, -2, -3, -8, 0, 6, 9, 4
1503525056294,-2, -1, 1, -4, -8, -9, 3, -13
1503525056316,-6, 0, 5, 9, 6, 27, -2, -14
1503525056331,-3, 0, 3, 3, 2, 4, 5, 8
1503525056354,-2, -5, -5, -4, 6, 6, -4, -11
1503525056375,-1, -3, -3, -2, -7, -17, 0, -1
1503525056391,2, -3, -3, -2, 9, 8, -5, 7
1503525056419,5, 4, -4, -4, -4, -10, 2, 5
1503525056435,4, 3, 0, -2, 0, 6, 15, -9
1503525056451,-4, 1, -2, -3, -6, 37, -2, -1
1503525056474,-2, 2, 1, -3, -7, -19, -10, -16
1503525056495,-6, -3, -3, -1, -6, -6, -8, -18
1503525056503,7, 2, 28, 43, 6, -3, 9, 54
1503525056526,-6, -6, -6, -15, -2, 8, -2, 2
1503525056542,1, 2, 0, -5, 3, 47, -1, 15
1503525056564,-2, -3, -4, -9, -5, -15, -7, -22
1503525056587,-2, -1, 9, 13, 1, -12, -10, -45
1503525056602,-11, 10, -2, -10, -5, -21, -11, -43
1503525056625,7, 2, -1, 4, 15, 10, 22, 37
1503525056646,-26, -8, -7, -7, -2, -9, -17, -42
1503525056662,12, -8, -5, -7, -8, -3, -6, 5
1503525056684,0, 4, -1, -3, -4, -6, 8, 27
1503525056706,12, -4, -5, -10, -13, -28, -3, -33
1503525056722,-5, -13, 2, -5, -4, -13, -3, -13
1503525056744,-6, -4, -4, -3, 0, 2, -19, -40
1503525056766,-9, 9, 0, 11, 3, 3, 8, 10
1503525056785,-11, -14, -17, -1, 0, 5, 3, 9
1503525056803,0, 2, -1, -2, 0, -7, -4, 7
1503525056826,2, 2, 3, -2, -2, 1, 6, 10
1503525056842,6, 1, -4, -2, -5, -2, -1, 16
1503525056863,-15, -1, 18, 5, 3, 3, 2, -16
1503525056887,5, -7, -5, -3, 1, 8, -2, 6
1503525056902,-4, -3, -6, -4, -10, -4, -11, -46
1503525056925,2, 1, 0, -2, -6, -20, -11, -12
1503525056947,9, 27, 14, 3, 3, 8, 8, 30
1503525056962,15, -3, -5, 1, 0, 9, 20, 43
1503525056987,-1, -3, -2, -1, 10, 21, -5, -14
1503525057006,1, 3, -1, -2, -4, 3, 7, 43
1503525057023,-5, 0, 0, -5, -10, -21, 0, -21
1503525057044,5, -3, -2, -5, 0, -2, -7, 8
1503525057077,-8, -6, -1, 2, 17, 16, 5, 0
1503525057082,2, -11, 1, 4, -1, -2, -9, -16
1503525057104,0, 1, -1, 0, -3, 15, -5, 2
1503525057127,4, -2, -6, -2, -5, -13, -7, -20
1503525057142,-3, -10, 1, 0, -1, -15, 9, -2
1503525057164,-1, -6, -1, 2, -4, 8, -10, 22
1503525057187,-2, 3, -1, -3, 7, 4, 2, 8
1503525057209,-2, 0, -5, -3, -2, -11, 8, 11
1503525057225,1, 1, 0, 0, -4, -5, 0, -22
1503525057248,-9, 6, 4, 4, 17, 15, 5, 5
1503525057269,-3, -1, -1, -5, -13, -2, -13, -9
1503525057288,0, -2, 1, -1, 2, 3, 2, 0
1503525057306,4, 4, 1, 5, 8, 48, -1, 2
1503525057329,-1, -3, 0, -2, 0, -8, 11, 9
1503525057344,-25, -8, -1, -10, -6, -9, -21, -31
1503525057366,2, -3, -1, 1, -2, -21, 3, 2
1503525057391,6, 0, 0, -4, -4, -19, 2, 17
1503525057404,3, 3, -7, -4, -1, 4, 0, 7
1503525057428,-8, -3, -4, -3, 0, -6, 8, 18
1503525057434,1, -6, 3, 13, 1, 6, -8, -27
1503525057463,1, -1, -7, -5, 1, 7, -1, -5
1503525057478,-3, -1, -3, -9, -10, -30, 3, 0
1503525057494,-10, -10, -4, -7, -14, -17, -1, -22
1503525057516,-1, -1, -12, -13, -1, -12, 1, -5
1503525057538,-2, 0, -1, -2, -2, 31, 30, 8
1503525057556,7, -2, 2, 7, 20, 34, -2, 7
1503525057576,-1, -4, 1, -4, -11, -2, -7, -1
1503525057598,-5, 4, -6, -14, 1, 4, -10, -5
1503525057614,-7, -1, -1, -2, -4, -5, -16, -32
1503525057636,-11, -9, 0, 1, -4, -5, 11, 10
1503525057658,19, 10, 4, 1, -2, 4, 13, 64
1503525057674,0, -3, 0, 2, 3, -3, 0, -6
1503525057696,5, -1, 0, 0, 2, -25, -6, -3
1503525057718,2, 0, 6, 13, 3, 4, 10, 0
1503525057734,0, 0, -5, -9, -2, -1, -34, 12
1503525057757,1, 0, -1, 0, 0, 20, 6, -12
1503525057778,-12, -2, -1, 0, -8, 3, 14, -2
1503525057794,-5, 0, -3, 0, 15, 11, 0, 0
1503525057816,16, 7, 2, 12, -4, -16, -11, 10
1503525057838,-6, 11, 3, 4, -2, -4, -22, -8
1503525057856,-4, -10, -6, -8, -11, -19, 3, -11
1503525057876,-10, -6, -2, -5, -5, -14, 4, 5
1503525057898,3, -4, 0, 2, 2, -9, -11, -21
1503525057913,-2, -6, -5, -11, -7, -1, 7, -1
1503525057936,5, -3, -3, -2, 4, 13, 18, 14
1503525057958,-1, -4, 5, 3, 15, 16, 4, 22
1503525057974,3, 5, -1, -1, -8, -9, 12, -28
1503525057996,-6, 0, 1, 10, 2, -3, -16, -1
1503525058023,-3, -4, 2, 1, 6, 5, 3, 2
1503525058034,1, 0, -2, -4, -4, -9, 18, 32
1503525058057,8, -3, -3, -5, -3, 1, 23, 24
1503525058078,-5, -3, 2, -1, -1, 7, -19, -8
1503525058094,-4, 1, -2, -2, 2, -12, -47, -8
1503525058116,-5, -3, 0, -3, -3, -4, -7, 31
1503525058138,-10, -2, -5, -6, -3, 14, -4, -39
1503525058161,0, 2, 1, 2, 1, 7, 1, -5
1503525058176,-3, 1, 0, 1, 3, -8, 2, -30
1503525058199,3, 2, -1, -5, -1, -2, 21, 14
1503525058220,5, 2, -2, -3, -2, -4, 13, 17
1503525058236,4, 2, -5, -8, 0, 3, 15, -7
1503525058259,3, -5, -19, -10, -2, 1, -8, -19
1503525058280,-3, 1, 2, 2, -5, -22, -33, -11
1503525058296,-6, 2, 6, 4, 13, 50, 21, -7
1503525058318,-3, -5, 3, 13, 1, -2, -5, 0
1503525058340,-4, -9, -2, -9, -6, -6, -4, 39
1503525058358,4, 0, 6, -2, -12, -25, -10, -2
1503525058378,0, 1, 3, 1, -2, -23, -9, 1
1503525058408,5, 3, -3, 2, -4, 2, -9, 7
1503525058416,-1, -8, -3, 14, 4, 9, -2, 8
1503525058438,-6, -5, -5, -15, -2, 15, 3, 22
1503525058461,-8, 2, 2, 7, 36, 56, 3, -9
1503525058476,-10, 0, 1, -2, -8, -8, 33, -17
1503525058498,5, 15, 4, 1, -4, -11, -2, 5
1503525058520,7, -1, -6, -7, -3, -8, 14, 43
1503525058536,-4, -3, 5, 6, 12, 15, -10, -21
1503525058558,-1, -3, -3, -6, -12, 2, -10, -19
1503525058580,4, 14, 12, 30, 1, -8, 6, 20
1503525058596,-1, -3, -4, -10, -4, -9, 8, -19
1503525058618,-2, -16, -7, -14, 1, -12, 1, 6
1503525058641,-3, -8, -4, -11, -6, -22, -20, 26
1503525058656,3, 1, -2, 9, -3, -5, 4, -24
1503525058678,-2, -9, -7, -16, -4, -11, -16, -59
1503525058702,10, 2, 7, -1, -3, 3, -5, 29
1503525058716,0, 7, 0, 2, -7, -19, -4, 0
1503525058738,-1, 10, 4, 3, 4, 12, 1, 9
1503525058760,13, -1, -3, -3, -1, 6, 16, 13
1503525058776,-5, -3, -7, -11, -1, 4, -16, -9
1503525058798,-4, -3, 0, -1, -5, -10, -5, 0
1503525058820,-5, -3, 1, 7, 13, 32, -3, -51
1503525058836,-14, -1, -4, -3, -3, 0, -2, -15
1503525058861,5, 11, -13, 0, 0, -10, -12, 49
1503525058880,2, -4, -5, -1, 6, 15, 19, 7
1503525058897,1, -2, 5, 2, 3, 4, 9, 43
1503525058918,-6, -4, 2, -4, -12, -12, 2, -20
1503525058940,9, 1, 2, 0, -7, -13, -6, -40
1503525058956,1, -17, -2, 2, 1, 1, -4, 57
1503525058978,-9, 6, 0, -6, 4, 1, -16, 3
1503525059000,-4, 0, 4, 5, 10, -2, 5, -21
1503525059016,7, 5, -2, -4, -4, 1, 4, 4
1503525059038,3, 4, 0, 5, 1, -4, -29, -14
1503525059063,-4, 2, 6, 6, 29, 58, 0, 0
1503525059083,-6, 9, -2, -1, -12, -12, 1, -10
1503525059098,-1, -13, -7, -5, -10, -5, 6, -4
1503525059120,13, 1, 3, 7, 0, -4, 3, -27
1503525059143,-3, -3, 3, -6, 1, -11, -1, 3
1503525059158,-4, 3, 4, 11, -10, -15, 4, 4
1503525059180,-2, -8, -3, -4, -1, 2, -4, -5
1503525059204,-3, -5, -4, -2, -4, -4, 17, 27
1503525059218,-11, -2, 0, -6, -3, -8, 27, -40
1503525059240,11, 1, -4, 4, -1, -2, -5, 16
1503525059265,-8, 0, -10, -10, -2, -7, -18, -7
1503525059286,-2, 1, 3, 2, 7, 19, -2, -3
1503525059301,-2, -1, -6, -10, -9, -14, -1, -14
1503525059308,-4, 0, 2, 6, -4, -4, 9, 14
1503525059332,10, 4, -1, -4, -1, -7, 3, 14
1503525059353,-4, -4, 0, 1, 4, 3, 5, 3
1503525059369,-3, -1, -5, -12, 2, 8, -1, 9
1503525059391,6, -6, -2, -4, -2, 1, 3, 17
1503525059414,-6, 11, 0, 0, -2, -6, 2, 5
1503525059441,-2, -3, 1, -3, -3, 5, -9, -10
1503525059451,-1, -1, -4, -1, -9, -14, 4, -4
1503525059474,3, -9, -2, -2, 2, -6, 6, 9
1503525059489,-3, -1, 2, 2, -3, -1, 1, -2
1503525059511,6, -3, -3, 10, 3, 3, 3, 3
1503525059535,1, 5, 1, 10, -2, -3, -10, -4
1503525059549,0, -2, -2, -4, 1, 18, 4, -8
1503525059574,5, 3, 1, -2, 0, -1, 3, 16
1503525059594,-4, -3, 1, 1, 9, 26, -2, 1
1503525059609,3, -1, -11, -23, -7, -17, -3, 1
1503525059640,1, 4, 11, 24, 1, -7, -2, -8
1503525059654,-1, -1, -6, -11, 1, -1, -9, -1
1503525059669,-2, -3, 1, 0, -2, 1, 7, -3
1503525059691,-6, -3, -4, -7, -5, -4, -24, -4
1503525059714,-1, -3, -5, -4, -1, -2, 10, 6
1503525059729,2, 1, -5, -8, -3, -15, -2, 5
1503525059751,-5, 12, 6, -5, -11, -21, 11, -19
1503525059774,3, -2, 3, 1, -8, -8, 5, 13
1503525059789,-16, -14, -1, 8, 5, 9, -1, -5
1503525059811,9, -1, 2, 2, 3, 5, -5, 6
1503525059837,-5, -1, -3, -1, 3, 5, -2, -3
1503525059849,4, 16, 3, -2, -7, 5, -1, 3
1503525059871,2, -11, -1, -3, -3, -13, -4, -3
1503525059894,1, 3, -4, 0, 5, 3, -7, -5
1503525059910,-2, -5, -2, 0, -1, -1, -4, -4
1503525059933,-1, 1, -2, 0, 4, 4, -3, 0
1503525059953,1, -8, -2, 0, -1, 3, -3, -13
1503525059968,1, 6, 1, 2, -2, -2, -1, 2
1503525059984,-8, -1, -1, -4, -1, 6, -11, -12
1503525060009,1, -6, 0, -1, 1, -3, 0, 2
1503525060022,-6, 0, 2, -2, -4, -10, 7, 4
1503525060045,3, -2, -1, -1, -3, -6, -14, -10
1503525060076,1, -12, -3, 2, 4, -3, -9, -6
1503525060096,-5, -4, 1, -3, -6, -20, 0, -2
1503525060112,6, 12, 1, -2, -1, -9, -3, 17
1503525060128,0, -3, -5, -4, -6, 9, 6, 15
1503525060142,3, 17, 2, 2, 3, 17, 13, 1
1503525060167,-4, -12, -3, -3, 1, 2, -8, 8
1503525060187,-6, -1, 1, 0, -1, -12, -3, -22
1503525060202,-2, -1, 0, 0, 2, 8, -11, -30
1503525060225,-3, 0, -1, -5, -10, -20, -13, -12
1503525060252,-8, -14, -4, -4, -1, 2, -3, -9
1503525060262,-1, 2, -2, 1, 0, -4, 0, 10
1503525060284,11, 8, -2, 0, -8, -4, -1, 7
1503525060307,0, -4, 1, 4, 6, 5, 0, -23
1503525060322,3, 4, 0, -1, 0, 4, -1, -17
1503525060344,19, 18, 30, 6, 4, 2, -4, 3
1503525060368,-5, -5, -12, -6, -2, -3, 0, 16
1503525060382,-5, -9, -10, -10, -5, -15, 2, 13
1503525060397,-4, -2, -7, -2, -10, 6, -1, -17
1503525060412,2, 2, -2, -1, -10, -23, -29, 6
1503525060435,-6, 18, 3, -2, 9, 9, 24, 1
1503525060456,-5, -4, -1, 1, 4, -13, -3, -16
1503525060472,-1, -2, -1, 1, -2, 16, 3, 2
1503525060494,5, -1, -5, -2, -5, -6, -13, -16
1503525060516,5, -12, -10, 1, 0, -4, 9, -2
1503525060531,-20, -14, 1, -4, -3, 2, 10, 26
1503525060554,3, 5, 0, -2, -4, 5, -5, 5
1503525060577,2, 18, 5, 0, -5, -11, 8, -1
1503525060592,3, -5, -2, 0, 1, -6, -13, -26
1503525060614,-5, -2, 3, 3, 5, 5, 16, 11
1503525060637,-2, -9, -3, -5, -7, 1, -12, -43
1503525060651,-8, -8, -3, -1, -4, -16, -20, 2
1503525060674,-5, -3, -2, -1, -6, -6, 12, 83
1503525060696,7, 1, -4, -2, 3, -4, 1, 12
1503525060712,-5, 1, -7, 3, 16, 32, -52, -45
1503525060733,0, -1, 2, 3, -10, 1, 2, -3
1503525060744,1, -2, -2, 3, 11, 15, -6, -31
1503525060764,1, 1, 1, -2, -6, -18, -16, -6
1503525060787,-7, 17, 2, 0, 5, 13, -1, 10
1503525060803,8, -4, 0, 1, 6, 19, 17, 47
1503525060824,2, -5, 0, 3, 9, 12, -6, 17
1503525060847,8, -3, 0, 1, -3, -7, -8, -10
1503525060862,10, 20, 2, 0, -5, -7, -13, -32
1503525060877,0, -4, 0, 0, 2, 16, 6, -18
1503525060891,-3, 4, 2, 1, 2, 7, -2, 14
1503525060908,0, -5, -2, -1, -3, -9, -7, -2
1503525060929,-12, 18, -1, -1, -8, -8, 9, -9
1503525060945,0, -13, -2, -3, -1, -2, 16, 3
1503525060959,3, 4, 1, 2, 12, 4, 1, 9
1503525060974,-7, -9, -1, -1, 2, 1, 5, -5
1503525060996,8, 7, 8, -2, 5, 3, 10, 43
1503525061019,-3, -9, -1, -1, -12, 2, 14, -7
1503525061034,-3, 1, -4, -2, -6, -19, -10, -25
1503525061056,-5, 1, -3, -1, -2, 6, -6, -7
1503525061079,-16, -5, -3, -3, -6, -21, -25, -18
1503525061093,1, -3, 0, 4, -10, -11, 0, -2
1503525061116,0, -6, -4, -6, 1, -13, -3, 8
1503525061146,9, 1, 0, -2, 2, -3, 0, 10
1503525061154,1, -12, -5, -4, -2, -13, 1, 0
1503525061177,7, 2, 5, 12, -1, -11, 16, 26
1503525061199,2, 7, 12, 12, -1, 5, -25, 9
1503525061214,-3, 2, -6, -9, -5, 12, 5, -2
1503525061236,2, 4, 2, 9, 2, 3, 12, -2
1503525061259,-15, -3, -4, -9, -2, -8, 6, -4
1503525061274,-9, -25, -8, -17, -2, 1, -1, -1
1503525061297,1, -5, -8, -8, 3, 9, -4, -9
1503525061319,8, 6, 0, -1, 1, -8, -6, -20
1503525061334,-3, 4, -1, -8, -4, 5, 6, -5
1503525061356,-4, 4, 3, 8, -4, -22, -5, 3
1503525061379,1, 3, 0, 1, -4, -16, -10, 5
1503525061394,4, 4, 3, -6, 1, 7, 9, -2
1503525061417,0, -4, -3, -3, -2, -6, 2, 0
1503525061440,-1, 0, 0, 8, 9, 25, -7, 4
1503525061454,-5, -1, -4, -5, 0, 3, -7, -5
1503525061477,8, 19, 6, 9, -1, 10, -1, -7
1503525061498,-2, -6, 0, 2, -2, 17, -4, -21
1503525061508,-3, 1, 0, 0, 3, -2, -6, -47
1503525061528,-3, -4, 1, 1, -6, -24, -5, 64
1503525061546,0, 1, -1, -1, 1, 2, 0, -14
1503525061567,3, -5, 1, 5, 3, -12, -6, -10
1503525061589,9, 8, -3, -6, -6, -1, 16, -1
1503525061604,2, 1, 2, -1, -1, 18, -5, -8
1503525061626,-3, -2, -4, -2, 1, -7, -16, 0
1503525061649,-6, -3, -1, 2, 12, 48, -8, 7
1503525061664,0, 2, 1, 0, -3, -11, -13, 6
1503525061686,3, 23, 2, 3, -3, -9, 1, -1
1503525061709,6, -8, 1, -12, -5, -6, 3, 7
1503525061724,-5, -3, 0, 7, 11, 1, 0, 11
1503525061747,-12, -7, 1, 8, -3, 2, -3, -15
1503525061768,3, 7, 4, 10, 6, 8, 3, 8
1503525061776,-1, 11, 0, 11, 0, 3, 5, 8
1503525061799,2, -2, 0, -1, -3, -2, 5, -20
1503525061828,1, 2, -2, -1, 5, 28, 25, 10
1503525061836,3, -2, 1, 3, 5, -12, 7, -10
1503525061858,-8, 1, 4, 6, 9, 27, 2, -19
1503525061867,-2, -4, 9, 30, 6, 6, 10, -5
1503525061888,-5, -4, -3, -13, -7, -7, 6, -10
1503525061912,2, 3, -5, -9, -2, -7, 6, 2
1503525061926,2, -2, -3, -5, -1, 10, 4, 26
1503525061949,0, 0, 2, 6, 2, -13, 11, -9
1503525061971,-6, -5, -5, -15, -5, -6, -12, -12
1503525061994,-12, -11, -2, -3, 1, -2, 0, -10
1503525062010,1, 0, 1, 3, 4, 9, -25, 1
1503525062031,0, -2, -3, -5, -6, -15, 13, 11
1503525062056,-4, 1, -3, -8, -11, -22, -9, -3
1503525062069,10, 17, 0, -1, 1, 15, 10, 14
1503525062091,-5, -4, -4, -5, 6, 3, 8, -15
1503525062106,-2, -3, -4, -12, 5, 45, 0, 8
1503525062128,0, 3, 4, 8, 5, 12, -2, -8
1503525062136,-1, -2, -4, -2, -12, -10, -13, 14
1503525062158,-1, 1, 1, 2, -4, -6, -9, -4
1503525062167,-1, -2, -3, 0, 2, -22, 3, 10
1503525062189,-3, -1, 4, 14, 1, 4, 5, 2
1503525062211,1, 5, 1, -5, -1, -2, -7, 9
1503525062226,6, -1, 0, 2, -4, -18, 0, 11
1503525062240,-2, -8, -3, 0, 0, 0, 6, -4
1503525062256,-4, -5, 0, 0, -1, 2, -4, -9
1503525062280,2, -2, -7, -18, -1, 11, 31, 8
1503525062287,-1, 1, 16, 8, 0, 8, 1, -1
1503525062311,-10, -6, -5, 0, 2, 1, 7, -12
1503525062331,-1, -6, -7, -8, 0, 4, 2, 9
1503525062347,-2, -2, 5, 23, 4, 7, 26, 6
1503525062368,-6, -1, -7, -10, 0, 8, 8, -1
1503525062391,2, -5, -2, -6, -5, -9, -14, -2
1503525062406,-2, -2, -1, 2, -2, -3, -5, 3
1503525062428,1, -5, -2, -3, 1, -3, -13, -9
1503525062451,-1, 9, -1, -5, 2, 18, -3, -5
1503525062459,3, -4, -5, 3, -3, -5, -13, 0
1503525062482,-2, 5, -4, -23, -5, -8, -18, -2
1503525062489,-9, -5, 5, 2, 0, -2, -8, 4
1503525062512,2, -6, -3, -6, 2, -17, -5, 4
1503525062526,3, 3, -4, -7, 6, 7, 7, 0
1503525062549,-1, -8, -10, 3, -6, 1, 3, 7
1503525062571,-1, 3, 2, 5, -7, -4, -24, -20
1503525062587,1, -5, -5, -7, 4, 0, 7, 50
1503525062609,7, 5, 13, 34, -4, -7, 3, -20
1503525062631,-7, -19, 1, -3, -5, -4, 8, 51
1503525062639,-9, -8, 16, -14, -19, -20, -10, -4
1503525062661,2, 5, 0, 17, 4, -8, -7, -1
1503525062676,10, 5, -4, -2, 11, 30, 20, 18
1503525062698,-3, -3, -10, -20, -7, -17, -4, -11
1503525062721,6, 7, 5, 15, 4, -4, 5, -23
1503525062736,4, 1, -6, -10, 7, 23, -5, -6
1503525062759,-1, -8, -5, -2, -7, -13, -12, 13
1503525062782,-6, 3, 5, 12, -3, -26, -10, -11
1503525062803,-1, -3, -3, -1, -3, -5, -26, -34
1503525062819,-6, -1, 0, 5, -3, -18, 2, 7
1503525062841,-7, -5, 4, 3, -2, -8, -11, -33
1503525062863,6, 3, 7, 24, 5, -1, 11, 25
1503525062882,1, -4, 3, 19, -2, 4, 3, 21
1503525062901,-12, -1, -15, -16, -2, 1, -1, -23
1503525062923,4, 5, 11, 30, 40, 17, 14, 2
1503525062938,-3, 1, 4, 2, -7, 4, -5, -40
1503525062961,8, 4, -4, -8, -7, 10, 2, 54
1503525062983,2, 4, 4, 2, -1, -5, -6, -20
1503525062998,-8, -2, -2, -14, -19, -20, -7, 71
1503525063025,7, 3, -15, -16, -5, 3, 7, 16
1503525063043,1, -6, -4, -6, 1, -2, 1, -24
1503525063059,0, -3, -6, -15, -15, 1, 41, 4
1503525063085,-2, 1, 2, 3, 4, -22, -7, -10
1503525063103,-3, 6, 19, 9, -3, -3, -5, -7
1503525063120,-4, -10, -9, -11, -1, 0, -14, -46
1503525063141,-8, -3, -8, -8, 4, 29, -8, -3
1503525063163,-1, -10, -4, -2, -4, -10, 0, 11
1503525063178,-3, -5, -13, -7, -1, 5, -4, -2
1503525063200,-2, 1, -3, -3, 1, -2, -4, -2
1503525063223,0, -2, 4, 1, -10, -17, 16, 30
1503525063238,0, 0, -6, -8, 11, 25, 25, -17
1503525063260,-2, 6, 1, -3, -1, -4, -16, -14
1503525063285,-1, -4, 0, -8, -1, -8, -7, -2
1503525063292,-5, 0, -7, -1, 7, 16, -1, -4
1503525063317,2, 2, -2, 2, 4, 19, -7, -8
1503525063329,0, 0, -4, -11, -5, -15, 15, -4
1503525063352,-4, 0, -8, -12, 5, 2, 4, 11
1503525063373,-1, -4, -2, 0, -2, -10, -8, 0
1503525063389,2, -2, 0, 2, -1, -2, -1, -8
1503525063411,3, -1, 0, -5, -2, -8, -8, 4
1503525063433,1, 0, 0, 1, -8, -8, -7, 7
1503525063451,-4, 0, -2, 6, 11, 12, 3, 0
1503525063471,-9, -4, -1, -3, -1, -12, -1, 0
1503525063494,-3, 0, -2, 0, -5, -7, -28, 3
1503525063509,-2, 4, 1, 3, -3, 0, 0, -10
1503525063531,7, 16, 8, 6, 0, 0, 2, -1
1503525063554,5, 12, -4, -6, -3, -2, 3, -2
1503525063569,-4, -9, -2, -4, -5, 1, 8, 5
1503525063592,-2, -5, -3, -4, 0, -4, 7, 8
1503525063613,1, -2, 4, 6, 1, 2, -1, 2
1503525063629,4, -1, -5, -6, -3, -14, -8, -15
1503525063651,-1, -6, 0, -3, -4, -13, 7, 7
1503525063673,-4, -5, -2, -1, 4, 16, 10, -3
1503525063689,2, 5, 0, -6, 5, 8, -5, -5
1503525063711,-4, -11, -3, -7, -5, -8, -15, 3
1503525063734,-3, 1, 4, 10, 10, 11, 2, 6
1503525063756,0, 0, -4, -3, -6, -3, 10, -7
1503525063771,-4, 0, -4, -5, 3, 9, 8, -8
1503525063794,2, -12, -7, 1, -1, -2, -3, -15
1503525063816,-1, -3, 10, 32, 1, -5, -6, -2
1503525063831,-1, -1, -3, -11, -5, -2, -1, 3
1503525063854,-2, 1, -5, -7, 0, 7, 2, 3
1503525063876,0, 0, 3, -8, -3, -10, 0, -17
1503525063891,-5, 1, 0, -3, 1, 5, -4, -6
1503525063914,-8, -14, -5, -7, 1, -1, -7, -33
1503525063936,3, -1, -9, -2, 2, -8, -13, 10
1503525063954,-2, 6, 0, -2, -5, -3, 4, 7
1503525063973,-2, -2, 1, 6, 12, 18, -4, 2
1503525063996,0, -1, -1, -4, -14, 1, 15, 13
1503525064011,3, 2, -3, -4, -8, -17, -13, 5
1503525064034,-2, -2, 0, -1, -1, -4, 0, 5
1503525064056,6, 6, 4, 1, 5, 6, -6, 17
1503525064072,-3, -3, 0, -2, -7, -14, 17, 46
1503525064094,-7, 0, -6, -13, -17, -22, 9, -10
1503525064101,-3, 10, -9, -1, -6, 1, 5, 4
1503525064123,4, -4, -1, 1, 3, 5, -4, -2
1503525064145,-3, -1, -7, 4, 4, 10, -3, 5
1503525064162,-2, 3, 4, -2, -4, -8, -2, 1
1503525064183,0, 1, 1, 0, 7, -6, -15, -9
1503525064205,1, 13, -1, -5, -3, -5, 6, 17
1503525064222,2, -8, -1, -2, -1, -6, 1, -6
1503525064243,-1, -5, 3, 0, 2, -3, 12, 9
1503525064265,1, 0, 0, -2, -3, -14, -7, -4
1503525064281,15, 5, -3, -5, -6, -2, -1, 4
1503525064302,0, 3, 6, 4, 1, -16, -7, 3
1503525064311,-2, 21, -4, -4, -2, -3, 29, 8
1503525064334,-4, -11, 2, 1, 4, -7, -11, -2
1503525064357,-1, -3, -6, -2, -3, -5, -13, -5
1503525064371,-3, -1, 1, -6, 4, 16, -5, -11
1503525064394,0, -5, -2, -2, 3, 20, 5, -5
1503525064417,3, -18, 3, 24, -3, -11, -13, -2
1503525064433,1, 9, -8, -27, -5, -15, -10, 5
1503525064462,-6, -4, -5, -33, -12, -18, 4, 2
1503525064485,0, -3, -1, 6, -5, -14, -1, 3
1503525064506,-4, -5, -8, -14, -3, -5, 2, 1
1503525064529,0, 1, -3, 4, -2, 13, -5, -2
1503525064544,-2, 3, 5, 18, -3, -14, -5, -13
1503525064566,-2, 0, 7, -3, 3, 0, 11, 2
1503525064590,7, 10, 4, 17, 3, -16, 4, -4
1503525064598,-2, 4, 10, 21, 0, -3, -7, -5
1503525064611,-2, -2, 1, 2, 5, 5, -9, 0
1503525064634,8, 1, 1, -4, -2, 16, 1, 9
1503525064656,1, 1, 8, 12, 0, -9, -7, -10
1503525064679,-6, -4, -3, -6, -4, -8, 0, 19
1503525064694,-17, -6, 2, 6, 1, -4, -4, -12
1503525064716,3, 0, -2, -3, 0, 6, -5, 6
1503525064738,3, 7, 6, 4, 9, -3, -4, 12
1503525064753,-3, 0, 3, -9, -13, -21, 14, -8
1503525064769,-3, -3, 8, 20, 8, 13, -5, -10
1503525064784,-7, -2, -7, -15, -6, -1, -7, -12
1503525064806,2, -2, -4, -6, -1, 12, 9, -1
1503525064830,-4, 2, 2, 0, -2, -28, -1, -7
1503525064844,4, 1, 0, 3, 10, 12, 7, 1
1503525064867,2, -1, 1, -12, -5, -25, 2, -14
1503525064891,2, 2, 1, -5, -10, -16, -2, 22
1503525064911,4, -1, -1, 2, 0, -10, -9, 18
1503525064926,-2, -1, -1, 0, 9, 5, 2, 4
1503525064949,-4, -2, -1, 2, -5, -12, 7, 1
1503525064971,-3, 0, -2, -5, -6, -2, 12, -21
1503525064986,1, 14, 11, 15, -2, -21, -1, 0
1503525065009,-2, -7, -2, -5, 1, 1, -15, 14
1503525065031,-28, -9, -4, -1, 5, 2, -3, -38
1503525065047,11, 4, -2, -7, -4, 13, 15, 13
1503525065069,7, 0, -6, -2, -9, 4, -6, 8
1503525065077,0, 1, 5, 8, -6, -20, 1, -12
1503525065099,-2, -2, -9, -16, -15, -3, -11, -4
1503525065113,1, 3, -3, -4, -1, -15, -5, -5
1503525065136,3, 1, -2, -1, -3, -4, -6, 1
1503525065159,-5, -7, -4, -11, -10, -8, 18, 9
1503525065167,-4, -3, 6, 1, -14, -23, -8, -16
1503525065190,5, 5, 0, 8, -1, -9, 5, 3
1503525065212,-6, -5, -5, -7, 3, 2, 4, 0
1503525065228,-3, 5, 3, 5, 19, 33, 5, 3
1503525065234,6, 1, 5, 15, -5, -12, -10, -10
1503525065260,-9, -8, -4, 3, -2, -6, -5, -9
1503525065278,-3, -3, -6, -8, -4, -8, -1, 1
1503525065294,1, 5, 1, -5, -2, 2, 0, -2
1503525065316,2, 3, 5, 4, -1, -2, 10, -5
1503525065338,-6, -7, -10, -18, -4, -3, -2, 15
1503525065353,6, 2, -3, -3, 5, 12, -2, -11
1503525065369,-13, -11, -19, -23, -1, 12, 1, 2
1503525065376,10, 0, -8, -12, -2, -1, 2, 2
1503525065399,-1, 2, 2, 6, 18, 49, 2, 6
1503525065413,-4, -2, -2, -1, -8, -23, -3, 3
1503525065436,-8, 0, -2, -14, 9, 19, 4, -6
1503525065460,-5, -2, -2, 0, -3, -4, -9, -13
1503525065473,-3, -4, 0, 2, -8, -14, -2, -17
1503525065496,5, -1, -2, 6, -9, -28, 18, 45
1503525065518,-5, 2, 3, 3, 2, -8, 1, -14
1503525065534,-3, 3, 0, -1, 4, 10, -2, -10
1503525065556,10, -1, -5, 2, -1, -8, 8, 8
1503525065578,-18, -8, 0, -1, -8, -31, -16, 5
1503525065602,2, 2, 1, 1, -6, -23, -16, -17
1503525065616,5, -3, 1, -3, 0, 12, 0, 5
1503525065638,7, 19, 15, 15, 8, 18, 2, -1
1503525065662,-2, -3, 0, 4, 6, 42, -1, 2
1503525065676,-1, -1, -3, -4, -7, -5, -7, -7
1503525065699,1, -2, -8, -11, 0, 3, 4, 8
1503525065721,-1, -4, -3, 0, 1, 15, 12, -5
1503525065737,-3, -2, 1, -2, -11, -11, 2, 1
1503525065758,5, 0, 2, 3, -7, -3, -12, 2
1503525065767,-10, -6, -7, -7, 0, 19, 18, -2
1503525065789,5, 7, 8, 11, -5, -2, 10, 7
1503525065796,-2, 3, 4, 9, 4, 9, 5, 4
1503525065818,-5, -3, -3, -1, 13, 5, 11, -22
1503525065841,-1, 4, 0, -4, 5, 43, -1, 6
1503525065856,-1, -1, 0, -5, -8, -21, -2, -20
1503525065878,-1, -8, -1, 5, 4, 16, -9, -1
1503525065901,8, -1, 5, 3, -5, -19, 9, 13
1503525065916,-2, 3, 5, 13, 0, 2, -8, 2
1503525065939,-19, -10, -4, -15, -3, -19, -2, -1
1503525065964,4, 8, -13, 0, -4, -3, -1, 7
1503525065976,3, -2, 2, 16, 5, 1, -1, 6
1503525066000,6, 6, 5, 3, 7, 7, -1, -13
1503525066022,3, 8, 1, 12, -1, 1, 3, 2
1503525066036,7, 1, 20, 9, -7, -6, -3, 7
1503525066058,-6, -3, 0, -14, -6, -7, 9, -3
1503525066081,4, 2, -7, -7, -3, -24, -6, -9
1503525066097,-14, -15, -17, 3, 0, 1, -3, 0
1503525066118,-4, -17, -16, -26, -4, -1, 0, -5
1503525066141,-1, 7, 19, 23, 1, 11, -13, 8
1503525066156,1, -5, -5, -12, -5, -9, 4, 20
1503525066178,-9, 6, 3, 1, 9, 4, -2, -34
1503525066201,3, 3, 2, 14, -6, -6, -5, 0
1503525066216,-4, -2, -5, -26, -7, -5, 10, 26
1503525066239,2, 4, -10, -21, -12, -22, -8, -16
1503525066261,6, -2, 9, -1, 7, 1, -2, 2
1503525066276,-10, 10, -7, 5, 7, 5, 0, -11
1503525066299,7, -4, -2, 7, -12, -20, -7, 3
1503525066321,-3, 1, 7, 23, -3, 6, -10, -1
1503525066336,8, 4, -5, -20, 2, 5, 1, 3
1503525066358,16, -6, -15, -18, 9, 23, 8, 28
1503525066381,-2, -2, -3, 6, -8, -23, -4, -33
1503525066398,3, 5, 8, 5, -1, -1, 7, 20
1503525066418,-3, -8, -4, -15, -3, 1, -1, 2
1503525066441,-8, -6, 4, 12, 4, 9, 0, -11
1503525066456,5, 5, 8, 19, 5, 20, -2, 0
1503525066478,12, 14, 12, 5, 0, -2, 0, -9
1503525066501,-11, 1, -9, -8, 3, 4, 4, 22
1503525066516,-4, -7, -1, -1, -1, -6, -7, 3
1503525066539,9, 2, -4, 8, 8, 10, -4, -1
1503525066561,-4, -2, -10, -24, -6, 10, 12, -15
1503525066583,-12, -10, -11, -9, -7, -8, 1, -7
1503525066599,-1, -7, -5, -13, 10, 17, 2, -1
1503525066621,3, -3, 6, 9, 9, 32, 10, 16
1503525066643,-5, -1, 3, 5, -10, -19, -7, -11
1503525066658,2, -3, 1, -8, 1, -15, 0, 7
1503525066675,2, 0, 0, -2, 4, 2, 3, 4
1503525066689,-5, -6, 0, -10, -10, 7, -13, -9
1503525066711,7, 2, -5, -1, -5, -7, 12, 31
1503525066734,-1, 2, 32, 44, 0, 11, 0, -4
1503525066749,4, 2, 1, -6, 1, 0, 0, 0
1503525066771,6, -7, -8, -6, -2, -2, 9, -1
1503525066793,-2, -4, -5, -6, 21, 20, 8, 6
1503525066810,-2, 2, -1, -5, -14, -19, -11, 5
1503525066832,-11, -4, 10, 2, 0, 1, 3, -28
1503525066854,3, 14, 5, 6, -1, -12, 2, 8
1503525066869,-3, -8, -6, -4, 0, -1, -11, -2
1503525066891,-3, -3, -4, -4, -14, -17, 0, 9
1503525066913,1, 2, -2, 13, 4, 13, -4, -5
1503525066929,-4, -4, -2, -30, 1, 1, 9, -14
1503525066951,-1, -7, -10, -11, -9, -11, -10, -7
1503525066974,-9, -3, -2, -11, -10, -10, -12, -13
1503525066989,2, -3, -14, -2, 3, 2, 2, 4
1503525067011,0, -5, -6, -3, 0, 0, 2, -2
1503525067035,2, -1, 2, 3, -5, -6, -11, 0
1503525067049,-1, -2, 7, 27, 1, -10, -6, -7
1503525067072,-3, -4, -1, -5, 1, 4, -3, 3
1503525067094,-6, -4, -6, -17, -7, -8, 10, -3
1503525067116,6, 5, 0, 0, -2, -9, 3, 3
1503525067131,5, 1, 1, -3, 4, 7, 3, 4
1503525067153,-3, -2, -7, -13, -3, -3, 11, 1
1503525067177,-1, -3, 6, 1, -1, 4, -3, -7
1503525067192,-2, -1, 8, 10, 6, 11, -2, 0
1503525067213,0, 4, 1, 10, 25, 81, 0, 11
1503525067229,2, -4, -4, -11, -9, -26, -1, 7
1503525067252,-1, -2, -5, -4, -1, -9, -9, 2
1503525067280,10, 8, 18, 29, 0, 0, 0, -7
1503525067289,-4, -6, -8, 0, 0, -3, 1, -1
1503525067315,-2, 3, 0, -5, -8, -10, -4, -8
1503525067333,3, 3, -4, -10, -3, -1, 7, 23
1503525067349,13, 7, 37, 46, 9, 5, 1, 0
1503525067372,-2, -8, -13, -21, -5, -6, 7, 4
1503525067394,-4, -3, -15, -20, -15, -57, -18, -9
1503525067411,-4, 0, -3, -4, 7, -6, -3, -5
1503525067431,0, -2, -4, -6, -10, -5, 2, -4
1503525067453,-25, -13, -10, -10, 4, 17, -5, -16
1503525067476,5, 6, 6, 10, -2, 9, -11, -19
1503525067491,-5, -1, -12, -13, 7, 13, -1, -6
1503525067513,6, 4, 5, 1, 2, 1, -2, 10
1503525067537,-9, -3, 7, 5, -9, -14, 13, 1
1503525067551,6, -1, -2, 0, 6, 6, 12, 8
1503525067574,3, 2, 1, 0, 9, -5, -30, -8
1503525067596,-2, -11, -6, -5, -5, 4, 24, 7
1503525067612,0, -4, -6, -13, -8, -12, -2, 2
1503525067633,-6, -2, -12, -18, -14, -29, -15, -8
1503525067656,-2, 1, 1, 3, -5, -5, 2, 27
1503525067672,0, 2, 2, 3, 0, -2, 0, -2
1503525067693,1, 3, 0, 4, 12, 4, -4, -13
1503525067716,-6, -11, -6, -22, -6, 9, 2, -2
1503525067731,-6, -11, -3, -6, 10, 23, 10, 6
1503525067753,1, 6, -4, 8, -7, -32, -2, -23
1503525067776,9, 2, -2, 5, -4, 1, -12, -1
1503525067791,5, 5, 0, 1, 0, -1, 2, 10
1503525067815,-3, 2, 5, 6, -2, 16, 4, -14
1503525067838,0, -4, -3, -3, 2, 0, -10, -1
1503525067843,-7, 0, 1, 4, -3, -17, 0, -4
1503525067851,-1, 5, 1, 4, 17, 53, 1, 8
1503525067873,3, 11, 32, 3, -3, -14, -3, 5
1503525067881,-1, -1, -6, -8, 11, 15, -3, -20
1503525067903,-7, -5, 7, 12, -6, -2, -10, -3
1503525067925,-3, -4, 1, -4, -5, 14, 12, 8
1503525067941,-1, 0, -1, 1, 7, 26, 4, -2
1503525067963,5, -9, -4, -7, -7, -21, -28, -5
1503525067985,-2, -1, 0, -2, 7, 9, -8, -2
1503525068001,-6, -5, -1, -3, 4, 5, 10, 7
1503525068024,-2, 2, 5, 11, -4, -10, 11, 2
1503525068045,3, 1, 8, -5, -6, -12, 22, 7
1503525068061,-3, 4, -2, -4, -6, -2, -11, -4
1503525068083,-2, -4, -7, -2, 3, 3, 29, -1
1503525068111,4, 19, 5, 1, 2, -4, -1, 1
1503525068121,-3, -7, 3, -5, -4, -4, -11, -1
1503525068143,-4, -2, -7, 1, 4, 21, -4, 10
1503525068165,7, 0, -6, 0, 10, 0, -3, 20
1503525068181,-2, 8, -16, -15, -2, -1, 1, -10
1503525068203,-9, -7, -1, -4, 4, 31, -12, -6
1503525068225,-4, -3, -6, -4, -10, -24, -4, -15
1503525068243,-9, -1, 1, -2, -7, -27, -3, -2
1503525068263,3, -2, -1, 3, 0, 0, -13, -13
1503525068285,4, -4, 4, 11, 1, -2, 3, 6
1503525068301,0, 1, 0, -11, -6, -13, 0, -3
1503525068323,-5, -4, -3, -2, -4, 12, -3, -2
1503525068345,-4, -16, -7, -6, -11, -22, 2, -3
1503525068353,-4, -2, -2, -4, 3, 0, 4, -3
1503525068378,-9, 13, 12, 19, 3, 0, 0, -11
1503525068399,-1, -8, -2, -9, -4, 14, 2, 1
1503525068414,1, -2, -9, -10, 12, 17, -4, -1
1503525068437,-4, -7, 1, 3, 2, -6, -2, 5
1503525068458,-1, 2, 3, 3, 5, 41, 2, -6
1503525068476,1, -5, -6, -24, -10, -25, -6, -3
1503525068496,6, 10, -4, -7, -5, -21, 13, 9
1503525068518,-2, 2, 6, 11, -3, -20, -5, -1
1503525068545,8, 2, 1, 3, -6, 2, -6, 2
1503525068556,-4, -12, 2, 19, -1, 0, -1, -2
1503525068580,-5, -4, -3, -3, -4, 3, -26, -11
1503525068593,-2, -3, -3, -1, 12, 9, 4, -6
1503525068616,-4, -3, -2, -5, -9, -3, -11, -3
1503525068638,-4, 0, 0, -2, 3, 4, 33, 9
1503525068653,5, -1, -3, -11, -5, -13, -3, 0
1503525068677,0, 0, 2, 5, 1, 2, 15, -13
1503525068698,-2, -1, 1, -3, 3, -9, -12, 42
1503525068714,-8, 0, 3, 3, 8, 8, -21, -33
1503525068745,2, 0, -2, -2, -2, -9, -5, 6
1503525068758,3, 0, -1, 1, 4, 12, 12, 7
1503525068773,-2, -3, -3, -7, -1, -10, 21, -24
1503525068796,4, 12, 1, 1, 1, -5, -10, 11
1503525068819,-7, -3, 0, -3, -12, -20, -9, -15
1503525068833,1, -3, 0, -1, -15, 10, 13, 1
1503525068856,6, -2, -2, -1, 12, 9, -9, 9
1503525068878,7, -2, 0, -6, -7, 8, 10, 7
1503525068893,-2, -3, 0, 5, 7, -3, -4, -14
1503525068908,0, 0, -4, -5, 9, 33, 14, 19
1503525068923,-3, 15, 1, -3, -7, -19, 6, 37
1503525068945,-1, -7, -3, -1, 2, -2, 18, -19
1503525068968,4, -1, 2, 6, 3, 13, -7, -11
1503525068978,-5, -9, 0, -3, -2, -5, -1, -10
1503525068984,6, 0, -1, 2, 3, 44, 11, 20
1503525069005,6, -6, -1, -7, -5, -28, -4, 14
1503525069028,-2, -3, -3, -4, -6, -1, -4, -25
1503525069047,-1, -1, 0, 0, 4, 12, 27, 9
1503525069059,5, 17, 3, -1, -4, -25, -7, -10
1503525069074,-8, -7, -4, -7, -19, -16, 11, -21
1503525069096,-8, -4, 5, 8, 6, 21, 5, 9
1503525069118,3, -2, -1, 0, -7, -7, -12, 10
1503525069134,3, -3, -2, 1, 15, 10, -7, 5
1503525069156,0, -7, -6, -7, -12, -6, 0, 0
1503525069179,-7, 2, 8, -1, -4, -12, 1, -35
1503525069193,2, 2, -5, -2, -11, -9, 3, -7
1503525069216,5, -2, -1, 1, 5, 12, 13, 9
1503525069238,6, -4, 2, 14, 4, -2, -2, 8
1503525069253,-5, -2, -6, -7, -9, 5, -5, 4
1503525069276,-2, 4, 7, -3, -1, 20, -7, 13
1503525069298,-4, -3, -6, -6, -4, -19, -2, -15
1503525069321,7, 3, 14, 26, 1, 0, 7, 53
1503525069327,-12, -1, -3, -9, -5, 9, -9, -16
1503525069350,5, 11, 3, 5, 20, 73, 9, 35
1503525069365,3, -4, -9, 9, -3, -5, -9, -4
1503525069388,-7, -10, 8, 21, -2, -24, 4, -14
1503525069410,5, -2, -4, -9, -10, -18, -3, 14
1503525069419,0, -4, 0, 2, 0, -4, -12, -3
1503525069441,-1, 2, -2, -6, 1, 8, 14, -23
1503525069456,-5, 15, 0, -1, -8, 2, 12, -12
1503525069481,12, 2, 4, 6, -5, -22, -35, -3
1503525069501,1, -3, -15, -13, 5, 10, 22, -7
1503525069516,-4, 7, 3, -3, 20, 28, -4, 11
1503525069538,13, 15, -2, -1, 2, -8, -9, 5
1503525069561,1, -8, -1, -6, 11, 32, 4, 22
1503525069576,-13, -6, -2, -2, -6, -22, -22, 16
1503525069598,-1, -4, 0, -1, 0, 4, -5, -19
1503525069621,-4, -14, -3, -3, -4, -10, 1, -3
1503525069635,-7, -5, 2, 25, -3, -3, 4, -18
1503525069658,1, -4, -6, -9, -7, -11, -10, 4
1503525069673,4, -3, -8, -13, 2, 0, -6, -6
1503525069690,0, 1, 4, -3, 3, 2, -1, 6
1503525069711,-3, -2, 4, 7, 6, 15, 7, 1
1503525069734,-4, -8, -21, -7, -4, -4, -12, -10
1503525069757,0, -1, 0, -7, -1, -1, 0, -10
1503525069778,-7, -1, 1, 10, -5, -7, -2, 3
1503525069801,-2, -11, 5, 11, 8, 16, 0, -17
1503525069816,-1, -8, 8, 20, -2, -7, -30, -1
1503525069838,1, 3, -6, -6, -4, -8, 7, 6
1503525069861,-2, 2, -2, -6, 8, 3, -4, 12
1503525069876,0, 3, 0, -13, 6, 10, 8, -18
1503525069898,-5, 2, -1, 2, -10, -13, 6, -13
1503525069921,3, 15, 11, -24, 2, -2, 21, 1
1503525069936,-1, -2, -3, 6, 21, 50, -3, 19
1503525069958,3, 0, 0, 5, -5, -14, 10, -2
1503525069984,-5, 4, 5, 0, -8, -19, -9, 10
1503525069996,3, 4, 9, 1, -9, -4, -3, -3
1503525070018,5, -2, -7, 0, 3, 2, 12, -3
1503525070041,-1, -1, 2, 12, -11, -26, -20, 0
1503525070056,-3, -3, 1, 4, -1, 1, -2, -10
1503525070078,-1, 2, 0, 7, -3, -9, 1, 3
1503525070101,-2, -3, -8, -14, -15, -21, -6, -1
1503525070118,0, 0, -2, -3, 19, 38, 18, 7
1503525070159,-1, -2, -9, -13, 4, 7, -1, -29
1503525070171,2, 2, -2, -9, 0, 0, 2, 1
1503525070192,-5, -5, -3, -4, 2, 4, -21, 13
1503525070224,-7, -4, -6, -23, -5, -2, 13, -3
1503525070239,4, 2, -2, -7, -4, -11, 3, 2
1503525070255,1, -3, -3, -10, 0, 6, 5, 4
1503525070274,1, 1, 5, 4, -4, -12, -2, 2
1503525070292,-2, -5, -7, 5, 2, -2, 4, -8
1503525070312,7, 1, 3, 16, 2, 11, 9, 1
1503525070334,0, 1, 5, 1, -2, 1, -9, 3
1503525070352,-2, 2, 5, 17, 0, 7, -16, -16
1503525070372,-6, -2, -14, -33, 2, 2, 4, -2
1503525070395,-4, -2, -3, -7, 6, 8, 0, -13
1503525070409,-2, 13, 2, -1, 5, -4, 7, -1
1503525070431,2, -7, 6, 9, -5, -10, -5, 2
1503525070461,-1, -3, -1, -2, 2, 8, -2, -9
1503525070471,4, -1, -9, -5, 5, 8, 12, 9
1503525070492,3, 1, 8, 7, 1, -21, -1, -2
1503525070498,6, -4, 2, 28, -5, -8, -4, 1
1503525070521,-6, -5, -8, -21, 3, 12, -13, -10
1503525070543,-3, -13, -3, -5, 3, 6, -2, 1
1503525070559,0, -4, -13, -8, -4, -7, 7, -8
1503525070581,3, 6, 2, -8, 0, 1, -3, -11
1503525070603,-1, -6, 4, 11, 6, 3, 2, 4
1503525070636,-6, -8, 8, 12, -2, -21, -4, 4
1503525070649,-6, 4, 7, 1, 2, 2, -2, -8
1503525070671,12, -2, -1, 12, 3, 3, -1, -1
1503525070694,-15, 5, 2, 5, 0, 4, -2, 4
1503525070709,8, 2, 2, 1, 3, 41, 2, 4
1503525070731,-6, -3, 0, -1, -5, -7, -2, -15
1503525070755,3, 4, 10, 18, 2, -8, 3, 11
1503525070769,5, 15, 26, 47, 6, 0, 2, 5
1503525070791,-2, -4, -14, -9, -5, -4, -5, -7
1503525070814,2, -7, -10, -15, 1, -5, 0, 4
1503525070830,1, 2, -1, -12, -4, -4, -1, 0
1503525070854,0, 5, 0, 2, 1, -2, -1, 10
1503525070874,-8, -10, -5, -8, -3, -4, 2, 18
1503525070889,-1, -1, -6, -9, -3, 2, 4, -1
1503525070911,5, 5, 13, 22, 0, -4, 3, -3
1503525070934,-16, -11, -13, -22, 1, -3, -4, -13
1503525070941,2, -3, 5, 10, 0, 0, 2, -6
1503525070964,-4, 16, 1, -10, -7, -8, -13, -7
1503525070978,0, -5, 1, -9, 2, 2, 8, -2
1503525071001,-10, -7, -3, -9, 0, -9, -5, -6
1503525071023,0, -11, -7, -16, -3, 5, -2, 0
1503525071038,3, 11, 33, 24, 1, 5, 16, 5
1503525071061,-12, -9, -8, -3, -6, -15, -9, -19
1503525071083,-3, 0, 2, -2, -6, -9, -10, 0
1503525071099,1, 0, -2, -8, 0, 0, -2, 2
1503525071122,6, -3, 4, -6, -1, 1, 9, 1
1503525071143,13, -1, 1, 3, 1, 6, 2, 6
1503525071158,6, 0, 1, 9, 1, 3, -4, 12
1503525071181,-5, -3, -7, 0, -2, -1, -10, -4
1503525071203,-6, 11, -9, -2, 0, -5, -1, -6
1503525071227,-3, 1, 17, -7, 0, 4, 3, 2
1503525071241,-7, -7, -10, -2, 1, 0, -3, 0
1503525071258,2, 4, 7, 2, -1, -9, 1, -3
1503525071271,5, -2, 1, 9, 0, 2, 1, 7
1503525071295,-5, -4, 1, 5, 3, 2, -5, -6
1503525071316,-1, 4, 20, -6, -1, -2, 0, 3
1503525071331,-6, 6, -2, -4, 0, 1, -6, 6
1503525071356,-3, -13, -6, -5, 1, 4, 2, 8
1503525071375,-2, -7, -11, -11, -3, 2, -4, -6
1503525071391,6, 8, 5, -3, -1, -3, -8, -4
1503525071414,-9, -6, -5, -2, -9, -16, 5, -5
1503525071436,-4, 0, 0, 5, 5, -6, -2, 0
1503525071452,4, -7, -6, 1, 0, 8, 2, 2
1503525071474,1, 0, 7, 1, 1, -1, -4, -2
1503525071497,-8, -5, -10, -1, 1, 1, 7, -2
1503525071511,-1, 0, -13, -9, -2, -3, -5, 13
1503525071534,-2, 14, -3, -8, 5, 7, 1, -5
1503525071569,2, -4, 0, -11, -3, 0, -1, -3
1503525071586,-2, 2, 9, 5, 3, 2, 2, 13
1503525071601,-2, 2, -6, 1, -1, 14, -2, -13
1503525071625,3, 0, 14, 21, -1, -8, -1, 3
1503525071648,-5, 3, -6, -11, 0, -1, -5, -11
1503525071661,2, 0, 6, -2, -3, -4, -14, -2
1503525071684,-4, -5, -6, 0, -4, -3, 3, 19
1503525071706,-8, -7, -2, -3, 18, 33, 5, -13
1503525071721,3, 2, -5, -4, -6, -8, 1, -2
1503525071743,1, 0, -3, -4, 0, -7, 0, 4
1503525071766,1, 1, -2, -3, -8, -4, 1, -1
1503525071774,-4, -17, -8, -2, -3, 2, -3, -5
1503525071796,-5, -4, -2, -2, -6, -6, 1, 13
1503525071811,-3, 1, 1, 3, -3, -4, -4, -3
1503525071834,0, -10, 2, 3, -1, -1, 1, 4
1503525071841,0, 5, -12, -6, -5, -4, -15, -5
1503525071863,4, 0, 18, -1, -7, -5, 0, 3
1503525071886,4, 2, 2, 3, -8, -12, 5, 2
1503525071902,-4, -6, -9, -6, -1, 1, 3, -5
1503525071923,-2, -9, 2, 2, 0, 5, 2, 1
1503525071946,3, -3, -6, -1, -1, -1, 0, -2
1503525071961,6, 1, -1, 0, -4, -8, -8, -7
1503525071983,-6, 3, -1, -3, -11, 32, 5, 4
1503525072006,-2, 16, 1, -3, -10, -20, -11, -1
1503525072028,5, -9, 7, -8, 10, 3, -3, 5
1503525072043,-12, -4, -5, -4, 1, -6, 2, 16
1503525072066,-6, -5, 0, -3, -12, -36, 0, -17
1503525072081,-3, 3, -2, 0, 0, -27, -7, -10
1503525072104,4, -6, -8, -1, -1, 6, 5, 6
1503525072127,4, -1, -6, 0, 4, 11, -1, 16
1503525072147,-4, -3, -4, 6, 15, 74, 14, -7
1503525072163,-9, -7, 4, 0, -3, -14, -11, -9
1503525072186,2, 0, 2, -1, 6, -5, 1, -2
1503525072207,0, -1, 3, 2, 3, -6, -4, -7
1503525072223,-4, -2, 1, 1, -1, -2, 4, -3
1503525072246,2, 1, 13, -1, -3, -10, 8, 6
1503525072268,-3, -3, -5, 1, 1, 7, -8, -15
1503525072283,-4, -3, 4, 4, 2, -2, 5, 3
1503525072306,4, 18, 6, 2, 0, 4, 5, 17
1503525072329,4, -5, -6, -3, -7, -13, 0, -2
1503525072343,-1, -1, -6, -2, -7, -7, -7, -3
1503525072366,-3, -3, -4, -3, -5, -2, -1, 0
1503525072387,1, 3, 0, -2, -3, -16, -10, -7
1503525072403,-1, -8, -5, -5, 3, 4, -3, 24
1503525072426,2, -1, 1, 4, 6, 5, -5, -2
1503525072449,-1, 2, 0, 0, 6, 4, -10, -18
1503525072465,-3, -3, 2, 0, -1, -3, 0, -14
1503525072486,-9, 3, -6, -7, -1, 3, 5, 1
1503525072507,-6, -2, -20, -8, -1, -1, -6, -17
1503525072516,-7, -4, 2, 3, -4, -2, -1, -8
1503525072538,-3, -2, -4, -5, -8, -15, -5, -4
1503525072554,3, 3, 4, 3, 3, 5, -9, 1
1503525072576,-4, 2, 4, 0, -8, -10, -23, -10
1503525072598,-3, 9, -1, -2, -4, -1, -4, 5
1503525072613,-15, -12, -12, -4, -5, -5, -13, -2
1503525072630,0, 2, 3, 3, -1, 3, 3, -10
1503525072643,0, -5, -1, 4, 1, 16, 11, 8
1503525072666,-6, -2, 1, 1, 2, 7, 3, -11
1503525072687,0, 1, 4, 3, -3, -1, 19, -4
1503525072704,-4, -17, -5, -4, -2, 3, -7, -16
1503525072725,1, 1, 2, 3, -3, -18, 3, 21
1503525072747,-1, -1, -4, -1, 2, 7, -2, 14
1503525072764,-5, 4, 5, 1, -2, 1, 3, -7
1503525072786,-2, 1, -2, -5, -8, 0, -5, -18
1503525072807,1, 2, 2, -3, 0, 1, 31, 0
1503525072823,-1, 0, -5, -3, 10, 8, -6, 9
1503525072846,0, 6, -1, 1, -3, -6, -6, -2
1503525072867,4, 6, -4, -11, -3, -9, -9, 3
1503525072883,-4, -2, -9, -3, -1, 3, -7, -8
1503525072907,-5, -3, 2, -2, -2, -13, -10, -5
1503525072927,4, 2, 1, -6, 9, 31, -3, 17
1503525072943,4, -5, 4, 9, 8, 8, -3, -3
1503525072966,-10, -1, 2, 5, -10, -13, 1, -2
1503525072987,0, -1, -2, -1, -3, -14, 2, 6
1503525073003,-4, -9, -9, -10, -7, -3, -11, -11
1503525073026,3, 4, 15, 6, -2, -7, -5, -3
1503525073048,-5, -4, -3, 4, -4, -18, -1, 0
1503525073077,1, -3, -12, -1, -2, -8, -7, -1
1503525073086,-3, -3, -2, -1, -4, 10, 3, -2
1503525073108,8, 1, 10, -2, -3, -6, 3, 5
1503525073134,-2, 1, -6, -4, 3, -19, 0, 6
1503525073146,-3, -14, 5, 13, 1, 6, -1, -7
1503525073168,1, -1, -4, -10, -1, -2, 4, 5
1503525073190,-4, 0, -5, -7, -2, -15, -28, -15
1503525073206,-1, -1, -3, 0, -1, 1, 3, -4
1503525073228,-2, 4, 1, -4, 4, 13, 6, 6
1503525073250,-2, 15, -1, -1, -2, 0, 5, -5
1503525073266,-12, -14, -1, 1, 0, 6, -4, -9
1503525073288,4, 2, -7, -3, 12, 0, 3, 1
1503525073310,1, -4, -7, -6, -4, 2, -3, -1
1503525073325,-3, 5, 0, -7, -3, -27, -3, -1
1503525073342,-8, 1, 0, 1, -7, -12, 4, -1
1503525073356,5, 0, -1, -6, 2, -5, 1, 3
1503525073378,0, -1, -2, -4, -5, -14, -1, 1
1503525073402,-3, -2, 2, 9, 14, 21, -4, -7
1503525073416,-7, -9, -3, -3, -2, 28, 17, 0
1503525073438,0, -1, 0, 3, 12, 30, 6, 1
1503525073460,0, 10, -68, -12, -10, -13, -5, 3
1503525073476,7, -3, -4, -8, -3, -5, -1, -3
1503525073507,-17, -28, 6, 1, 13, 14, 17, 4
1503525073521,6, 7, 3, -9, -12, -19, 4, 7
1503525073538,-7, 3, 14, 5, 2, 30, -9, 3
1503525073558,-2, -1, 10, -1, -5, -15, 11, 10
1503525073580,-10, -8, -3, -12, -6, -5, -6, 8
1503525073588,-8, 4, -6, 0, -1, 5, -2, -2
1503525073611,1, 4, 3, -5, -7, -21, -8, 3
1503525073625,-3, 0, -4, -6, -2, -8, 8, -17
1503525073648,3, 0, -3, -7, -3, 1, 0, 2
1503525073670,3, 0, -2, 0, 1, 5, 4, -1
1503525073685,-1, 0, 1, 0, -2, -2, 5, -17
1503525073708,0, -15, -4, -5, -3, -3, 35, 5
1503525073716,-6, 2, -4, 0, -3, 5, 2, 2
1503525073738,2, -1, 0, 4, 10, 8, 7, -1
1503525073760,-2, -8, 0, 0, -4, -13, -2, -6
1503525073777,-5, 2, 1, -4, -10, -18, -3, -2
1503525073798,0, 1, -1, 1, -6, 8, 6, -9
1503525073820,-3, -14, -8, -6, -2, -18, 6, 4
1503525073836,-4, -2, -3, -1, -3, -5, -25, 37
1503525073858,2, -4, 3, 4, 4, 3, 2, -9
1503525073880,1, -3, -6, -20, -4, 5, 11, -6
1503525073896,0, 3, -5, -5, 4, -3, 5, -3
1503525073918,-1, 0, 0, 4, -3, 0, -6, 17
1503525073941,1, -4, 1, 3, -1, -5, -3, -6
1503525073956,-4, 1, 4, 10, -1, -3, 3, -17
1503525073981,-3, 2, -4, -8, -7, -10, 1, -7
1503525074003,6, 0, -3, -3, -2, -21, 0, 22
1503525074023,5, 2, -3, -4, 3, -2, 3, -6
1503525074039,1, 3, -5, -6, -4, 8, -1, 4
1503525074060,-3, -8, 2, 5, -7, -19, -3, -5
1503525074083,-5, -6, -4, -1, 3, 1, -5, -15
1503525074098,-11, 1, 0, -3, -1, 3, 4, -5
1503525074120,-5, -1, 0, -1, 2, 0, -4, -17
1503525074143,4, 5, 4, 3, -1, -3, -6, 0
1503525074158,-2, -3, -6, -1, 4, 27, -2, 11
1503525074182,3, 2, 3, 5, 8, 39, 12, 9
1503525074204,-1, -3, 8, 28, -3, -19, -5, -16
1503525074218,0, 4, 4, 6, -1, -3, -1, -7
1503525074242,5, 8, -3, -6, 20, 22, 3, 11
1503525074263,-1, -4, 1, -7, -5, -6, -3, -1
1503525074279,-2, -6, 10, 17, 1, 5, 5, 5
1503525074300,0, 3, 26, 1, -7, -5, 0, 10
1503525074323,-4, -4, -13, -18, 0, -3, 1, -8
1503525074338,2, -3, -2, -9, 2, -15, -14, -5
1503525074354,9, 0, -1, 8, 9, 16, -3, -8
1503525074368,2, -4, 2, 15, -1, -4, -1, -3
1503525074390,-24, -4, -6, -8, -3, -8, -3, 4
1503525074413,-6, 2, -2, -2, 1, 6, -8, -40
1503525074428,-4, -2, 0, -12, -4, -13, -15, -12
1503525074450,18, 2, -4, 8, 7, 37, 12, -6
1503525074477,-7, -6, -9, -19, -3, -7, 8, 52
1503525074488,7, 16, 10, -1, 20, 29, -6, 5
1503525074511,2, 0, 3, 19, -11, -35, -12, -18
1503525074532,8, 0, 0, -1, 2, -16, 14, 18
1503525074549,7, 2, 22, 27, -6, -20, 0, -7
1503525074570,3, 12, -2, 20, -1, -3, 6, -2
1503525074592,-2, -8, -7, -19, -8, 1, 1, -39
1503525074609,-2, -6, -8, -11, -1, -6, -4, 14
1503525074630,-9, 1, -19, -14, 5, 17, 1, 4
1503525074652,-9, -14, -1, -14, -9, -24, -8, -10
1503525074668,-6, -2, -2, -3, -10, -20, -9, -9
1503525074690,4, -3, 3, -4, -1, 5, -4, 4
1503525074713,3, 10, 16, 33, -6, -23, -3, 11
1503525074728,6, -1, -17, -9, -6, -18, -3, 2
1503525074744,3, 3, -7, -16, -11, -8, 1, 18
1503525074758,-3, -2, 5, 16, 5, 2, 16, -17
1503525074781,0, -6, 3, -7, -3, 17, -16, -10
1503525074799,0, 4, 12, 24, 14, 24, 17, 3
1503525074810,-8, -6, 7, 21, -3, -6, 9, 20
1503525074818,-6, -3, -3, -6, -1, -3, -5, -14
1503525074841,-13, -4, 4, 10, -5, -11, 1, -14
1503525074863,-5, -6, 8, 16, 5, 23, -12, -3
1503525074878,-1, -2, -6, -3, 0, -6, -4, 1
1503525074900,1, -14, -7, 4, 2, 3, 8, 13
1503525074923,2, 2, 6, -1, -2, 12, -8, -10
1503525074946,-1, 2, 6, 8, 5, 3, 1, 5
1503525074954,-7, -6, -9, -8, -1, -7, -2, -10
1503525074977,4, 14, 19, 16, 1, 8, 3, -5
1503525074991,-4, -11, -7, -13, -4, 8, 4, 3
1503525075014,-7, -4, -10, -1, -2, 10, -9, -13
1503525075036,-7, -3, -5, -3, -4, -10, -11, -14
1503525075051,8, 12, 19, 17, 4, -6, -3, -17
1503525075076,0, 0, -10, -1, -2, -2, -4, -2
1503525075096,0, -1, -7, -13, -7, -13, -6, -45
1503525075111,-3, -5, 1, 5, 2, 2, -3, 33
1503525075134,2, -8, -11, -7, 8, 24, 9, 19
1503525075156,-10, -1, 3, 2, -4, 21, 7, 11
1503525075171,2, -4, -8, -2, -12, -14, 2, 5
1503525075194,2, 4, -5, 0, 13, 10, 2, -2
1503525075216,-1, 8, 4, -8, -3, -11, -4, -13
1503525075231,1, -4, -6, -6, -1, -3, 6, 15
1503525075253,-1, 0, -5, 4, -3, -4, 0, -24
1503525075277,-2, -3, 30, 6, 1, -4, -10, -8
1503525075291,2, 6, -12, -3, -3, 1, 0, 34
1503525075316,3, 9, 6, 1, 18, 30, 13, -24
1503525075336,-1, -1, 3, 0, 3, 1, 2, 2
1503525075358,-1, -4, -1, 3, -5, -3, 1, 9
1503525075373,15, 12, 13, -4, 0, 1, 0, 6
1503525075380,-2, 2, -12, -8, 0, 3, 5, -7
1503525075403,0, 7, 1, -2, -1, 0, 1, -7
1503525075425,7, 6, 0, -2, 0, 3, 3, -5
1503525075440,-3, 0, -3, -2, -9, 11, -1, 6
1503525075463,1, 0, -1, 48, 14, -12, 2, 1
1503525075486,2, 5, 6, -6, 0, 3, -2, -5
1503525075500,-4, -1, -1, -6, -3, -2, 6, 3
1503525075523,5, -1, -8, -21, -3, -1, -12, 5
1503525075547,-2, -5, -3, -3, 4, 38, 0, -9
1503525075560,-5, 5, -16, -15, -12, -25, -2, -13
1503525075584,2, 5, 4, 8, 3, -6, -2, 11
1503525075605,-4, 14, 9, -4, -1, -2, -11, 9
1503525075620,-6, -7, -3, -10, -2, -14, 0, -15
1503525075644,-4, 0, 2, 4, -4, -7, -3, 5
1503525075665,2, -10, -7, -9, 2, 3, 0, -11
1503525075681,-1, -14, -2, 10, -3, -6, 3, 4
1503525075703,2, -5, -2, -4, -3, -9, 3, 0
1503525075721,-4, 1, -4, -9, -4, -18, -23, -5
1503525075740,-3, 1, -2, -4, 25, 22, 6, -3
1503525075756,-1, -2, 1, -1, -9, -13, 0, 10
1503525075779,4, -3, 0, -1, -2, -20, -1, 3
1503525075793,3, 5, -7, -10, -3, -3, -2, -1
1503525075816,1, 0, -1, -2, 0, -7, -7, -3
1503525075832,-2, -1, -2, -7, -11, -10, 10, 2
1503525075854,-5, -4, 3, 7, -3, 9, 2, 2
1503525075879,-1, -8, 3, 0, -1, 1, -3, 0
1503525075898,-1, -6, -7, -6, -3, -8, -6, -15
1503525075913,4, 0, -15, -5, 3, 6, -12, -3
1503525075928,2, 4, 2, -7, -7, -7, 15, 2
1503525075951,-8, 4, 4, 1, -4, -4, 5, 10
1503525075965,-9, -1, 7, 6, 0, -2, -9, -1
1503525075988,-5, -10, -8, -6, -5, -4, -3, -24
1503525076003,-2, -3, 3, 11, 2, -2, 10, 0
1503525076026,2, -3, -6, -5, 5, 8, 8, 11
1503525076049,4, 4, -1, -2, -3, -22, -5, 16
1503525076064,-5, 2, 0, 3, -1, -3, -5, -13
1503525076086,1, 11, 1, -4, -4, -9, -17, 4
1503525076094,4, -2, 0, -7, -8, -16, -30, -8
1503525076116,0, 1, -1, -4, -3, 0, 10, -12
1503525076138,-4, -6, -3, 1, -5, -7, -4, -2
1503525076154,-6, 2, -16, 0, -5, 2, -19, -4
1503525076176,-2, -1, -3, -3, -5, -11, 2, -4
1503525076198,2, -4, 19, 25, 4, 3, 3, 3
1503525076216,-2, 2, 1, -9, -2, -6, -7, 5
1503525076236,2, 14, -1, -4, 1, -18, -3, 5
1503525076258,-5, -8, 6, 2, -6, -9, 11, -4
1503525076274,-12, 1, 3, 5, -2, -5, -6, 6
1503525076288,-5, -6, -2, 6, 0, 5, -6, -7
1503525076304,2, -8, 0, -2, 2, 2, -4, 8
1503525076326,-5, -2, -11, -6, -5, -23, 4, 5
1503525076351,-4, -6, 4, 2, 1, -5, 9, -13
1503525076363,-4, -2, -5, -7, -1, 2, 1, 0
1503525076390,9, -1, -21, 2, 3, 6, -8, 3
1503525076408,-1, 2, -4, -1, 0, 5, -3, 13
1503525076423,8, 12, 11, 2, 6, 13, 44, 17
1503525076446,4, 11, 9, 6, 2, -4, -15, 1
1503525076468,-1, -2, 1, -1, -5, -3, -4, 2
1503525076484,-12, -7, 2, -1, -5, 1, 0, -2
1503525076505,-6, -5, 0, 1, 1, -11, -12, -13
1503525076528,1, 2, -2, -3, -6, 14, -19, 7
1503525076543,-7, 8, 7, 0, 3, -2, 4, -13
1503525076565,-4, -2, 0, -3, 0, -10, -14, 6
1503525076588,4, -1, 3, 5, 5, 9, 6, -8
1503525076603,-4, -20, -9, -5, 0, 5, 16, 7
1503525076619,-18, -12, -5, -2, -11, -27, -5, -25
1503525076633,6, 3, -1, 0, -3, 0, -1, 0
1503525076656,-4, -2, -6, -2, 1, -15, -35, 7
1503525076679,0, -2, -4, 0, 5, 19, 25, 2
1503525076693,-5, -9, -1, 1, 8, 40, 5, 11
1503525076718,7, 3, -2, -2, -4, -18, -5, 10
1503525076739,1, 1, -1, -6, -11, -26, 5, 15
1503525076753,-4, 1, -4, -3, -6, -3, 1, 2
1503525076776,2, -6, 3, 3, -1, -20, -14, 6
1503525076798,1, -1, -3, -2, 3, -3, -9, -17
1503525076821,-1, 3, -7, -14, 1, 5, 0, -15
1503525076836,4, 2, -2, -3, 2, 5, 29, -11
1503525076859,-4, 6, 4, 3, -5, -34, -28, -5
1503525076880,-6, 0, -1, -2, -3, -2, 8, 7
1503525076896,-11, -3, -5, -5, -5, 4, 0, 5
1503525076918,3, 4, 2, 4, 4, 0, 3, -2
1503525076940,8, 0, 5, 4, -4, -4, 4, -11
1503525076956,-5, 0, -6, -5, 3, 2, -17, 0
1503525076979,6, -2, 2, 5, 11, 20, -10, 20
1503525076986,-2, 4, 10, 18, -4, 7, -16, -1
1503525077008,-1, -2, -12, -18, -4, -11, -3, -4
1503525077030,-1, 3, 0, 4, 3, -11, -15, 1
1503525077038,-2, -7, -8, -10, -2, 7, 30, -2
1503525077061,-2, -2, 5, 14, 5, 9, 6, -10
1503525077077,-7, -2, 2, -4, -4, -15, -13, -3
1503525077098,-12, -5, -1, 7, -5, -6, -9, 3
1503525077121,9, 2, -2, -4, -2, -11, 1, 0
1503525077129,0, 6, 0, -1, -7, -14, -1, -2
1503525077153,5, -1, -2, -10, 3, 19, 3, -7
1503525077165,3, 5, 0, 0, 3, 3, 14, -4
1503525077193,0, 0, 1, 3, 7, -3, 6, 5
1503525077196,-3, -5, -1, 3, -5, -23, -2, -4
1503525077221,2, 23, 7, -5, 0, 5, -3, -2
1503525077240,7, -9, -7, -3, 1, -9, -1, -3
1503525077257,-5, -3, -1, -8, -12, -16, -11, -16
1503525077278,2, -5, -6, 0, 1, 7, 14, 4
1503525077300,7, 0, -3, -11, -2, 4, -3, -35
1503525077308,2, 10, 0, -1, -2, -7, -10, 15
1503525077330,-8, -7, 1, 7, 1, -5, -10, -1
1503525077361,10, -7, 1, -2, -8, -19, -8, -8
1503525077376,-3, -1, -6, -14, -3, -5, -1, -10
1503525077398,-3, -2, 3, 5, 4, 9, 2, -19
1503525077421,1, -3, -1, -3, 2, -16, -6, 9
1503525077436,-3, -1, -1, 6, 1, 23, -12, 24
1503525077459,-3, 2, 0, 2, 0, -7, 9, -9
1503525077480,5, -1, -4, -2, 3, 9, -4, -6
1503525077497,2, -1, -2, 2, -3, -5, 2, -7
1503525077521,1, -5, 3, 7, 9, 23, 24, 8
1503525077540,-13, -4, -4, -10, -7, 15, -10, -12
1503525077556,-1, 1, 4, 3, -2, -17, -28, 4
1503525077578,-9, 0, 1, 2, 0, -3, -2, 4
1503525077600,-7, -1, -7, -12, -8, -15, -2, -8
1503525077624,-4, -2, -2, -8, 2, 0, -15, -8
1503525077638,14, 5, 2, 2, 3, -9, -3, -14
1503525077660,-11, -1, 3, 2, -5, -19, -4, -4
1503525077668,-3, -9, -5, -5, -8, -7, 24, -1
1503525077691,1, 6, -4, -16, -4, 4, -9, 7
1503525077705,5, -1, 3, 7, -5, 2, -5, -4
1503525077722,15, -6, -10, -7, -3, -19, 13, 26
1503525077743,-5, -2, 5, 11, 2, 6, 15, 1
1503525077759,-9, 4, 0, -7, 0, 3, 14, -11
1503525077781,-16, -7, -3, -4, 0, 0, -21, -6
1503525077804,6, 5, 4, 9, 4, -8, 4, -7
1503525077818,1, 0, 5, 20, -2, 11, 0, 8
1503525077840,3, 0, -4, 1, 4, 13, 16, -6
1503525077864,-8, 4, 4, 0, 0, -18, -6, -6
1503525077878,4, -5, -4, -14, -8, -31, -14, -4
1503525077900,1, 16, -4, 3, -1, 14, -1, -5
1503525077923,3, -3, -2, -3, 1, 5, 0, 7
1503525077938,-1, -4, -4, 0, -3, -12, -16, -2
1503525077960,4, 2, 6, 13, 3, 5, -3, 8
1503525077983,3, 3, -4, -21, -2, -5, -1, 3
1503525077999,-8, -9, -31, -10, 1, 9, 3, 0
1503525078020,3, 0, 7, 9, 9, 9, 4, -2
1503525078043,-3, 1, 1, 0, 8, -11, -12, -13
1503525078051,-2, -3, 2, -9, -8, -11, -10, -10
1503525078073,1, -7, 1, 17, 0, -1, -4, -2
1503525078090,-6, -2, -9, -28, -9, -33, -7, 6
1503525078110,-2, 2, -2, -9, 2, 9, -1, -26
1503525078133,-2, 1, 9, 7, 10, 35, -3, -27
1503525078148,4, 4, 11, -15, -7, 8, 5, -13
1503525078170,-1, 3, -30, -18, 3, 8, 5, 26
1503525078192,-1, -16, -9, 7, -9, -23, 1, 19
1503525078208,6, 7, 2, -1, 11, 12, -4, 20
1503525078230,1, -1, 1, -8, 8, -4, -3, -10
1503525078252,-3, -3, -1, -7, -9, -12, 0, -61
1503525078268,6, -5, -2, -1, 5, 13, -21, 36
1503525078291,-1, 2, -6, -7, -16, -3, 10, 14
1503525078312,0, -2, 3, 2, -3, 11, 8, 4
1503525078328,-4, 1, 3, 7, -6, -29, -2, -7
1503525078350,-4, -4, -4, -8, 2, -1, -5, -6
1503525078372,1, 9, 1, 4, 2, -5, 4, 6
1503525078388,-3, -14, -7, -4, -1, -3, -7, -10
1503525078410,-4, -2, 2, 4, -4, 6, -5, -1
1503525078434,2, 2, 2, 3, 2, 19, -5, -3
1503525078450,0, 3, 0, -3, 5, -8, 2, 11
1503525078470,-5, -10, 12, 27, 3, -7, 3, -11
1503525078494,-8, -2, -2, -11, 0, -3, -7, -13
1503525078508,-7, -8, -9, -5, -1, -2, 3, -3
1503525078530,4, 6, -1, -3, -1, -6, -2, -3
1503525078552,7, -1, 1, 5, -3, -9, -6, -7
1503525078562,0, -4, -9, -13, 5, 18, -2, 3
1503525078583,2, 0, -4, -10, -5, -15, 10, 8
1503525078598,-11, -5, -4, -7, -6, -5, 1, -5
1503525078613,8, -1, -2, -10, -6, -17, -6, 0
1503525078628,5, 3, -7, -4, -2, -1, -5, 1
1503525078650,1, 5, 3, 7, 2, 4, -4, 8
1503525078672,8, -1, -2, 3, -6, 37, 13, 12
1503525078696,-1, -4, -6, -10, 4, 10, 1, 2
1503525078710,8, 11, 3, -11, -9, -7, -1, 8
1503525078727,-9, -8, -11, -10, 3, 1, -2, 0
1503525078741,-8, 1, -5, -4, -5, -2, 2, -8
1503525078770,4, 1, 2, -2, 5, 0, -9, -17
1503525078785,-1, -2, -4, -6, -1, -8, -3, 6
1503525078802,2, 4, 1, 0, 2, 1, -8, -6
1503525078815,6, 14, -4, -14, 0, -1, 4, -3
1503525078831,-3, -4, 15, 40, 1, -7, -7, -4
1503525078853,-6, -1, -11, -13, -7, -2, 2, 11
1503525078875,0, -6, 0, -7, -16, -6, 6, -3
1503525078890,2, -4, 0, 1, -4, -13, -4, 0
1503525078913,5, -20, -1, 8, 3, -4, 4, -1
1503525078936,-2, 4, -8, -12, 5, 6, 9, -13
1503525078950,9, 4, 0, -1, -1, -10, 6, 4
1503525078966,-6, 1, 0, 2, 6, 12, -12, -10
1503525078981,2, 4, 24, 28, 0, -2, 6, 6
1503525079004,2, -5, -7, -7, 2, 4, -2, -9
1503525079025,-2, 1, -8, -9, -2, -4, -5, -8
1503525079041,1, 2, 2, 4, 4, 4, -15, -15
1503525079055,-2, -6, -5, -5, 4, 5, -2, -6
1503525079071,2, 1, -2, -6, 3, -1, 10, -11
1503525079096,1, 7, 1, 5, 1, 5, 1, -2
1503525079115,-6, 1, 5, 4, 6, 3, -7, -16
1503525079130,2, -1, -1, 2, 15, 43, 1, -4
1503525079153,-2, -5, 2, 3, -7, -7, 1, 4
1503525079175,-1, -4, -6, -7, 4, 11, 2, 22
1503525079190,-4, -10, -9, -4, -8, -9, -14, -24
1503525079212,-8, -1, 7, 11, -3, -7, -4, -2
1503525079236,3, 6, -1, -6, -1, -8, -5, 2
1503525079250,7, -6, -5, -9, -5, -7, 11, 18
1503525079272,-1, 0, 1, 4, 19, 21, 0, -2
1503525079297,0, -15, -4, -5, -5, -8, -9, 5
1503525079310,-3, -3, -2, -4, -8, -21, 3, -6
1503525079332,-2, 18, 6, 4, -4, -5, 5, 3
1503525079354,0, -3, 0, -4, -4, -4, -8, 5
1503525079370,-8, 0, -8, 15, 2, 1, 2, -8
1503525079392,-3, 4, 3, -5, 0, -1, -3, -4
1503525079415,1, -1, -6, -2, -1, 24, 6, 12
1503525079431,-6, 2, 7, -2, -6, -14, -4, -4
1503525079452,5, -2, 10, 9, -2, -3, -10, -4
1503525079475,3, 0, -3, -7, -6, -13, -5, -1
1503525079490,-2, -1, 0, -5, -1, -3, 1, -3
1503525079512,-2, -3, -2, 1, 2, 9, -1, -6
1503525079535,1, -3, -1, -2, -1, -5, 2, 0
1503525079551,-4, -15, -8, -12, -2, -6, -9, 0
1503525079572,-1, 2, 2, -1, -2, -1, -1, 4
1503525079594,0, 0, -5, -11, -17, -12, -4, -2
1503525079617,-1, 1, -1, 0, 2, -13, -4, -2
1503525079634,-2, 0, 0, 0, -4, -1, 9, -1
1503525079655,1, 3, 16, 2, 5, 6, -15, 2
1503525079678,-4, 1, -3, 6, 4, 7, -1, -6
1503525079692,2, -1, -3, -3, -6, -7, 0, -6
1503525079714,-2, -3, 1, 2, 6, 5, 2, 10
1503525079737,0, 8, -5, -4, 0, 2, -1, -3
1503525079752,1, -7, -11, -7, 1, -1, 17, 16
1503525079774,-2, -5, -3, 0, 2, -3, 6, 10
1503525079783,0, -3, 0, -2, -4, 0, -8, -13
