1503525230890,1, 0, 2, -1, 0, -1, -2, -3
1503525230924,1, 0, -1, -2, -2, -13, -1, -1
1503525230938,0, -5, -4, -1, 3, 4, 2, 1
1503525230954,0, -1, -3, -3, 0, 0, -3, -1
1503525230966,-1, -1, -2, -3, -4, -14, -1, -1
1503525230989,0, 0, -1, -1, 2, 3, -2, -1
1503525231010,-2, 1, 0, 1, -3, -1, 0, 0
1503525231026,1, -2, -2, 0, 7, 13, 2, 0
1503525231048,0, 1, 0, -1, -2, -3, -1, 0
1503525231073,-1, -2, 0, -1, 2, 5, 1, -3
1503525231093,-1, 1, 0, -2, 4, 6, -1, -1
1503525231109,-1, -2, -3, -2, -4, -4, 1, 1
1503525231130,1, -2, -3, -3, -5, -2, -2, 0
1503525231146,-1, -2, 1, 1, -2, 7, -2, -1
1503525231161,1, -4, -2, -1, 2, 2, -3, 0
1503525231176,-2, -2, -1, -3, -2, 1, -2, -2
1503525231198,-1, -3, 0, -3, -4, 15, 0, -1
1503525231222,-1, -1, -1, -2, -3, -4, -1, -1
1503525231235,0, -1, -1, 2, 1, 7, 1, 0
1503525231262,-1, -2, -1, -1, 0, -6, 0, -2
1503525231280,0, 2, -3, -1, 0, 13, 0, -3
1503525231298,-1, 0, -1, 0, 1, -10, -2, 1
1503525231318,1, -1, 0, -1, 1, 3, -2, 0
1503525231342,-1, -1, 2, -2, 1, -3, 0, -2
1503525231358,1, -3, -1, -3, 0, 0, -4, -1
1503525231378,-2, 1, -1, -1, -6, -10, 0, -2
1503525231400,-1, 0, 0, 1, -1, 3, 2, -2
1503525231416,0, 0, -1, 0, 1, -4, -3, 0
1503525231438,0, 0, -2, -1, -2, 3, 2, -1
1503525231446,-1, 0, -2, 0, -2, 5, 2, -1
1503525231470,-2, 1, -2, -3, 0, -5, 0, 1
1503525231499,-1, 1, -3, 0, 3, 0, -3, -1
1503525231521,0, -2, -2, -1, -2, 0, -2, -1
1503525231537,-1, 0, -1, 0, 0, 1, -1, -1
1503525231558,-1, -2, -1, -1, -3, -2, 1, 1
1503525231580,-2, 0, 1, -2, 1, -4, -1, -3
1503525231596,1, -3, 0, -1, -3, -8, -3, -1
1503525231618,-1, 3, -2, -1, -4, -4, -1, 1
1503525231641,0, -1, 1, 1, 0, 3, 0, -2
1503525231656,-2, 0, -1, 1, 2, 4, -1, 1
1503525231678,1, -2, 0, 0, 4, -1, -1, -1
1503525231700,-2, -1, -1, -3, 3, 14, -1, 0
1503525231726,1, -1, -1, -1, -1, 0, 1, 0
1503525231738,-2, 0, 1, 0, -1, -2, 0, -2
1503525231760,0, 0, -1, 0, 3, -4, 1, 1
1503525231782,1, -1, -1, -1, 2, 7, -1, 1
1503525231798,-2, -1, -1, 0, -5, -9, -2, -3
1503525231820,0, 0, 0, -1, -2, 9, 2, -2
1503525231842,-1, -2, -1, -2, 2, -1, 0, -2
1503525231860,-2, -2, 0, -2, -1, 8, 1, -3
1503525231880,-1, -1, -2, -3, -4, -11, 1, 0
1503525231902,0, 0, -2, 0, -3, -4, -3, 0
1503525231918,-2, -1, 0, -1, -2, 0, -1, 1
1503525231940,0, 1, 1, -1, 0, -1, 0, -2
1503525231962,-1, -1, -1, 1, 0, 4, 1, -1
1503525231970,0, -3, -1, -3, -2, -6, -1, -1
1503525231994,0, 2, -1, 1, -1, -3, 0, 1
1503525232009,1, 0, -1, -1, 1, 0, -2, 2
1503525232030,-2, -1, 0, -2, -1, -3, 1, -1
1503525232053,-3, 1, -1, -2, -5, -4, -2, -1
1503525232073,1, -2, 0, 0, -3, -5, -2, -1
1503525232090,-1, 0, -2, 0, 6, 2, 2, -1
1503525232113,0, 0, -1, -1, -1, 1, -3, -1
1503525232130,-2, 0, 0, -2, -1, -14, 0, -1
1503525232150,0, -3, -1, -1, 6, 15, 1, -1
1503525232173,0, 0, 0, -2, -5, -5, -3, -1
1503525232189,1, 1, 0, 2, 5, 2, 1, -1
1503525232211,-3, 0, -2, -1, -4, -1, -4, 0
1503525232233,1, -2, 0, 0, 8, 2, -1, -2
1503525232249,0, -1, -3, -1, -1, -2, -2, -2
1503525232271,-2, -1, 0, -1, -4, -11, 1, -2
1503525232294,0, -1, -1, 0, 1, 3, 0, 1
1503525232309,0, 0, 0, -1, -3, 4, -1, -2
1503525232331,-1, -2, 2, 3, 0, 4, 1, 2
1503525232353,-1, -1, -1, -3, -4, -10, -2, -3
1503525232369,-3, -2, -2, -3, -3, 0, -1, -1
1503525232391,-2, -1, -2, -1, -4, -1, 1, -2
1503525232413,-1, 1, 0, -1, 0, -13, -1, -2
1503525232431,0, -1, -4, -2, -2, -1, -2, 0
1503525232451,-1, 0, -3, -1, 4, 4, 0, 2
1503525232474,-2, -1, -2, -2, -4, 2, -1, 0
1503525232489,1, -5, 0, 7, -3, -2, -1, 1
1503525232511,-1, -1, -1, -2, 1, 8, 1, 0
1503525232534,0, 1, 1, -1, -2, -1, 1, -2
1503525232548,-3, -2, 1, -2, -5, -1, 2, -3
1503525232572,-1, -1, -1, 0, 1, -5, -2, -1
1503525232593,0, 0, -2, -3, -4, -4, -1, 1
1503525232615,0, -1, 0, -1, 3, 5, -1, -1
1503525232632,0, -1, -2, -2, -6, -5, -2, 0
1503525232653,-1, -1, -2, -3, -3, 3, 1, -2
1503525232675,-1, -1, -1, -1, -1, -6, -1, 0
1503525232691,-2, -2, -2, -1, 0, 5, 3, -2
1503525232708,0, -1, 0, -2, 2, -5, -1, 1
1503525232720,-1, -2, -3, 0, 0, 0, 1, 0
1503525232743,1, -1, 0, -1, 3, -1, -1, -2
1503525232766,-1, -2, 1, 3, -2, 9, -2, 0
1503525232780,-2, 1, -2, -2, 1, -4, 0, 0
1503525232803,0, 2, -3, -3, -1, -2, -1, -1
1503525232824,-1, -3, 1, -2, -2, -1, 3, 0
1503525232842,-2, 5, 0, 1, 0, -7, -4, 1
1503525232856,0, -2, 0, -3, -1, -5, 0, -2
1503525232871,-3, 1, 0, -1, 2, 11, 0, 1
1503525232893,-1, -3, -1, -3, -2, -1, 0, -1
1503525232915,0, -1, -2, -2, -1, 2, 0, 0
1503525232934,-2, -2, -2, -3, -2, -2, -1, 0
1503525232953,-1, -1, -2, -1, 3, 7, -1, 0
1503525232976,0, -1, -2, 1, -2, -7, 0, -1
1503525232991,0, 1, -3, -2, -1, 1, 0, -1
1503525233014,-3, -2, 1, 0, -1, -3, 0, 0
1503525233036,1, 0, -1, 0, -1, -5, -3, -2
1503525233051,0, 1, 0, 0, -1, -3, -5, -4
1503525233067,-1, 5, 0, -3, -1, -1, -2, 1
1503525233082,1, -4, -4, 1, -2, -2, -4, -1
1503525233103,0, -3, 1, -2, -2, -4, 12, -2
1503525233125,-2, -3, 0, -1, -2, -11, -16, -1
1503525233141,-3, 4, 5, 14, 3, 12, 10, 0
1503525233163,0, -4, -4, -14, 0, -6, -4, -2
1503525233185,0, 0, 9, 0, 0, 1, 6, -1
1503525233203,2, -22, -24, 24, 1, -5, -20, -2
1503525233223,-9, 5, 10, -8, 8, -1, -2, 3
1503525233246,1, -3, -6, -12, -5, -4, 6, 0
1503525233260,0, -1, -1, -2, -3, 17, 7, -2
1503525233283,-2, 3, -3, -8, -8, -10, -9, -2
1503525233307,1, 3, 2, -8, -5, -2, 4, -1
1503525233320,2, -5, 2, 2, -1, -1, -3, -1
1503525233343,0, 6, 8, 17, 5, -5, 3, -1
1503525233365,0, -1, 0, -2, -5, 0, -5, -1
1503525233380,-4, -1, -4, -3, -2, -8, -4, -5
1503525233404,-2, 1, -3, -11, -2, -8, -4, -2
1503525233425,-1, -1, -7, -13, 7, 3, 12, -1
1503525233443,1, 3, -2, -5, -4, -6, 3, 1
1503525233471,0, -3, -4, 0, -1, 3, -6, -2
1503525233485,0, -2, 2, 1, -2, -2, -7, 1
1503525233500,5, 4, 4, 8, 5, -8, 0, 2
1503525233517,-3, -2, -6, -6, 3, 3, 0, -3
1503525233531,1, -7, 0, 1, -4, 7, 8, 4
1503525233553,0, 2, -4, -1, 0, -4, -9, 4
1503525233575,0, 3, 3, 5, 0, -7, -4, 5
1503525233598,-3, -2, -3, -5, -1, -2, 5, 1
1503525233613,-1, 0, -2, -5, -1, 1, 6, 1
1503525233635,-3, -3, -2, 3, -3, -11, -4, -1
1503525233644,-1, -1, 1, -1, -1, -5, 7, 1
1503525233658,-2, -1, -1, -4, 2, 4, -2, 2
1503525233675,1, -3, -5, -5, -3, 3, 7, 2
1503525233695,0, 4, -1, -3, 6, 15, -3, -1
1503525233718,-3, -4, 0, -3, 0, 0, -4, -2
1503525233733,-3, -2, -1, 0, -2, 2, -5, -2
1503525233755,1, 0, -1, 0, 1, 6, 0, 0
1503525233779,-1, -1, -2, -1, -3, -5, -8, 0
1503525233793,0, 2, -1, -2, 0, -6, 1, 2
1503525233815,1, 8, -1, -1, 0, -4, -9, 1
1503525233823,-3, -4, -1, 1, -4, -13, -2, -3
1503525233845,0, -1, -3, -2, 0, 0, -2, -2
1503525233867,1, -1, -1, 0, 7, -1, 0, 1
1503525233884,1, -3, -4, -8, -3, -3, -4, 1
1503525233907,-2, 9, -1, -4, -2, 3, -1, 0
1503525233927,-2, -7, -3, -4, -3, -3, 1, -2
1503525233943,-1, 1, -2, -2, 0, 4, 5, 1
1503525233964,0, -1, 2, 5, -1, -6, 4, 0
1503525233987,1, -2, -2, -4, 4, 19, -2, -1
1503525234003,0, -1, 1, 1, 1, -3, -4, -2
1503525234024,-1, -3, -2, -2, -2, -5, -12, -1
1503525234049,-1, 0, -2, -3, -1, 0, 2, 0
1503525234062,-1, 0, 0, -1, -3, -6, -2, 0
1503525234085,-1, -2, 3, 5, -1, -3, -2, -2
1503525234115,-1, -1, -1, -2, -3, 4, -4, 0
1503525234123,-2, 2, 3, 11, -7, -20, -2, -2
1503525234145,0, 16, -1, -3, 0, 2, 0, -1
1503525234167,-3, -6, -3, -6, -4, 10, -1, -1
1503525234183,1, -3, -1, -1, 7, 1, -3, -1
1503525234204,0, 2, 2, 3, -3, -1, -3, -2
1503525234213,-1, 0, 1, 3, 0, -5, -1, 0
1503525234235,2, 1, 1, -1, 4, 16, -1, -1
1503525234258,-1, 1, 4, 8, 0, -5, -8, 1
1503525234273,-1, -3, -4, -4, -3, -5, 2, -2
1503525234295,0, -3, -2, -3, 0, 2, 1, 1
1503525234318,-2, 0, -3, -3, -1, -5, -1, -2
1503525234333,-3, -4, -3, -4, -2, 0, 4, -5
1503525234355,-3, 3, -4, -5, 1, 4, 16, 0
1503525234378,1, -9, -6, -9, -6, -5, -11, -2
1503525234393,-3, -3, -11, -20, 15, 17, -7, 0
1503525234415,0, -7, -9, -15, -10, -7, 18, 3
1503525234438,2, 19, 12, 22, 6, 20, 1, 3
1503525234453,-2, 1, 2, -5, -24, -50, -1, 2
1503525234477,-5, 4, 14, 37, -11, -46, -16, -9
1503525234498,12, 26, 36, 70, 10, 0, -15, 10
1503525234521,-1, -10, -12, -24, 11, 23, -8, -1
1503525234535,-6, -4, -18, -31, -1, 25, -5, -13
1503525234558,1, -6, -1, 2, -7, -9, -1, -1
1503525234580,0, -7, -12, -38, -9, -41, -1, -8
1503525234595,-1, -6, -5, -3, 19, -6, 4, -10
1503525234618,3, -12, -5, -11, -18, -19, 0, 12
1503525234640,-2, 0, 0, 1, -11, 39, 10, 14
1503525234655,-1, -4, 2, 9, 24, 3, 1, -4
1503525234680,-5, -4, -9, -7, 2, 6, -10, -12
1503525234700,4, 4, -14, 4, 23, 45, 17, 2
1503525234716,4, 6, 11, 6, -18, 21, -2, -6
1503525234737,-4, -14, -1, 7, -2, -31, -34, -10
1503525234760,-10, -9, -14, -15, -17, 22, -4, -5
1503525234776,3, 5, -3, -3, 27, -16, 7, 13
1503525234797,9, 7, 31, 6, 7, 107, 41, 23
1503525234820,-14, -8, -7, 1, 5, -25, -19, 4
1503525234835,9, 6, 5, 24, 86, 65, -14, -29
1503525234853,5, 12, 30, 12, 17, 68, -5, -31
1503525234873,20, 5, 9, 3, 24, -34, -2, 113
1503525234889,-14, -55, -46, 6, 43, -51, -20, -4
1503525234911,39, 46, -82, -50, 12, 15, 39, -107
1503525234933,1, -81, -51, -11, -18, 22, 10, 63
1503525234950,17, -28, 53, 127, 8, 36, 26, -114
1503525234971,-108, 94, -47, -82, -35, -40, -6, 70
1503525234993,13, -122, 81, -6, -23, -27, -61, -53
1503525235009,-117, -36, -34, -69, -11, -10, -54, -4
1503525235031,111, 61, -21, -8, -9, -45, 60, 34
1503525235053,14, -5, 76, 41, 82, 72, -30, -23
1503525235069,48, 38, 64, 75, -19, -6, 1, -8
1503525235091,-12, -21, 63, -20, -19, 7, 36, 29
1503525235098,-35, -30, -13, 1, -3, -20, -22, -11
1503525235120,-2, -20, 2, -28, -27, -6, -12, -7
1503525235135,44, -31, -37, -16, -24, -19, -4, 15
1503525235158,-25, -46, -8, -3, 4, 6, -7, -10
1503525235183,-27, 15, 17, 11, 6, 1, 10, -5
1503525235195,-11, -18, 10, -8, -4, -3, -1, 1
1503525235218,-8, -4, 8, -10, 0, -1, -1, -8
1503525235240,-17, -17, 6, 1, -1, -1, -7, 5
1503525235255,-5, -13, -11, 8, 4, 7, -5, 0
1503525235278,0, -2, 11, 11, 1, -1, 2, -3
1503525235301,-5, 11, 14, 0, 0, -1, -8, -9
1503525235317,0, -6, -1, 2, -5, -13, -2, -3
1503525235338,2, 0, -4, -3, -3, -5, 9, 3
1503525235360,-3, 3, 21, -3, 2, 3, -23, -33
1503525235375,-1, 5, -7, -3, 5, -19, 8, -2
1503525235392,4, 0, -1, -3, 26, 5, -8, 5
1503525235413,-3, 2, -4, 1, -11, -8, 9, -4
1503525235428,-2, 29, 3, 14, -8, -2, 14, 13
1503525235452,-3, -16, -6, -15, -9, -13, -17, -15
1503525235473,-9, -3, 5, 3, 5, -4, -12, -23
1503525235489,54, 2, 20, 3, -11, -26, -12, -3
1503525235511,-2, 6, 5, 7, 16, 16, 9, 18
1503525235533,-14, -8, 5, -7, -8, 4, -1, -6
1503525235555,0, 37, 0, -2, -10, 0, 3, 33
1503525235571,-13, -14, 2, -7, -4, -3, -13, 3
1503525235594,1, 30, 0, 7, -11, -9, -3, -20
1503525235608,-11, -21, -14, -5, -6, -8, -4, 1
1503525235631,-8, -7, -3, -3, -11, -17, 0, -19
1503525235659,6, -5, 2, -4, -7, 9, 10, 3
1503525235668,-8, -17, -6, -2, 4, 5, 4, 23
1503525235691,-2, -6, -1, -3, -6, -6, 6, 43
1503525235713,-2, -12, -7, -2, 2, -11, -1, -14
1503525235729,0, -2, -16, -11, 6, 24, 8, -17
1503525235759,-21, -12, -14, -9, -8, -11, -12, -35
1503525235773,25, 7, 10, 6, 0, -11, -11, 6
1503525235789,-4, 0, 2, 3, 5, 1, -1, -4
1503525235811,-5, -4, 4, 1, 0, 4, 3, -2
1503525235833,-3, 2, 11, -1, -7, -3, -10, -9
1503525235849,-3, -2, -7, -1, 18, -1, -1, -7
1503525235871,3, 0, -1, 0, -11, -4, -10, -9
1503525235895,2, 2, -1, 2, 4, -4, 19, 12
1503525235908,-4, -2, 1, -5, -29, 13, 0, -7
1503525235931,-2, -2, 3, 3, -10, -9, -6, 6
1503525235955,-5, -3, -3, -4, -4, -19, -6, 6
1503525235968,5, 1, -1, -6, -21, -27, -10, -4
1503525235983,2, 4, 0, -6, -19, -28, -16, -12
1503525235998,-3, -1, -1, -1, -15, -4, -5, -5
1503525236023,0, -2, -1, -2, -2, -16, -6, -8
1503525236042,0, -2, 1, -2, -3, 8, 40, 4
1503525236059,-3, 0, 0, -1, 1, -15, -20, -6
1503525236080,-9, -4, -2, 3, 9, -3, -8, -7
1503525236091,1, 0, -1, -1, -2, -6, -15, -3
1503525236110,1, 0, -2, 1, 5, 24, 8, 5
1503525236133,-2, -2, -1, -3, -11, -19, 2, 15
1503525236148,-4, 0, 3, 2, 3, -3, -10, -11
1503525236171,4, 3, 4, 8, 8, 0, 4, -1
1503525236178,4, 1, -2, -2, -6, -12, -5, 0
1503525236200,-1, 0, -1, -2, 2, 16, -3, 7
1503525236224,-3, -3, -3, -4, -9, -23, -2, 0
1503525236237,0, 0, 2, 2, 13, 29, 5, 3
1503525236260,-1, -4, -3, -2, -4, -7, -6, -4
1503525236283,0, 1, 1, -2, -10, 0, 1, 5
1503525236298,2, 1, 2, 0, 5, -9, -4, 15
1503525236320,-3, 1, 1, 0, 1, 16, 0, -19
1503525236343,-2, -2, -5, -5, -9, -26, 1, -2
1503525236366,1, -1, -2, -2, 0, -9, -2, -4
1503525236380,4, 0, 1, 1, -4, -2, 2, 3
1503525236403,-1, 0, 1, 0, -1, -3, 1, 0
1503525236425,2, 0, 2, 4, 5, 19, 12, 8
1503525236433,-1, 1, 2, -1, 0, -11, 1, -6
1503525236456,1, -2, -3, -1, 3, -13, -6, -1
1503525236471,0, 0, 0, 2, 11, 15, -1, 0
1503525236494,3, 7, -2, -1, 6, 1, 3, 3
1503525236515,-3, -9, -1, 2, 14, 23, 0, 0
1503525236531,-2, 0, -1, -2, -3, -10, -2, 5
1503525236554,2, 0, 0, -3, -8, 6, -1, -8
1503525236576,4, 3, 0, 6, 20, 40, 3, 6
1503525236599,-2, 0, 3, 1, 12, 0, -6, -26
1503525236613,2, 8, 3, -1, -11, -36, 4, 25
1503525236621,0, -4, 0, 2, 16, 2, 5, 10
1503525236642,1, -1, 1, -2, -8, -19, -6, -20
1503525236665,3, -3, -3, 0, -2, -5, 0, 16
1503525236680,-2, -1, -1, -2, 0, -8, -8, -16
1503525236703,0, -2, -2, -1, -8, 8, -2, 0
1503525236727,1, 11, 3, 0, 0, -12, -3, 8
1503525236740,-5, -5, 0, 1, -9, 5, 7, -1
1503525236764,8, 1, 1, 3, 1, 5, 0, 27
1503525236785,7, -4, -14, -4, 8, 6, 3, -16
1503525236800,-5, -3, -4, -3, -2, -4, -4, -12
1503525236823,-12, -21, 4, 5, 1, -3, -1, -4
1503525236845,-5, -1, 1, -1, 0, 1, -7, -30
1503525236861,-4, -1, -3, -4, -4, 8, -1, -5
1503525236882,4, 1, 0, -3, 0, 1, 0, 2
1503525236905,-3, 1, -2, 1, 4, 8, 0, -9
1503525236920,1, 1, 3, -2, -1, -6, -2, 8
1503525236943,0, 2, 3, -5, -7, -13, 5, 24
1503525236965,-7, -5, -4, -3, -1, 10, -2, -38
1503525236980,6, 8, 3, 4, 23, 20, 5, -18
1503525237003,4, 0, -3, -3, -9, -19, -12, -2
1503525237025,-3, -3, 2, -2, -7, -8, -1, -9
1503525237040,3, 5, 0, -3, -13, -9, 11, 83
1503525237063,2, -7, -3, 2, 3, -7, 5, 14
1503525237085,-6, -8, -4, 0, 6, 61, -18, -28
1503525237100,-5, -10, -2, -1, -5, -7, 10, 4
1503525237122,1, -1, -1, -2, -5, -8, 0, -8
1503525237131,-1, -4, -4, -5, -9, -24, -2, 8
1503525237153,-2, -1, -1, -4, -12, -6, -5, -6
1503525237176,-3, -3, 1, 2, 8, 29, 8, 18
1503525237191,4, -2, -4, -6, -8, -6, 5, 31
1503525237213,-5, -6, -3, -4, -7, -13, -5, -6
1503525237237,-2, 6, 4, -1, -1, -5, 0, -17
1503525237251,10, 0, -1, 1, -3, 20, 4, 30
1503525237273,-7, 1, 1, 3, 9, 7, 4, 3
1503525237297,2, 0, 0, 2, 0, 7, -2, 1
1503525237317,-1, -1, 0, 0, 8, 9, -5, -16
1503525237334,-3, -8, -5, -1, -5, -9, -9, -11
1503525237355,1, -2, 0, 2, 3, -6, 4, 2
1503525237378,4, 0, -4, -5, -11, -14, 3, 41
1503525237393,-1, 3, 0, -4, -5, 0, -9, -18
1503525237415,1, 1, -2, -5, -24, -45, -3, -4
1503525237438,-2, -7, 3, 2, 1, -7, -1, -11
1503525237453,-3, 0, 1, -2, 2, 0, -2, -24
1503525237476,-3, -1, -2, -1, 4, 5, 2, -9
1503525237499,1, -6, -1, 2, 3, 38, 0, 5
1503525237513,0, 3, -1, -2, -5, -7, 1, 16
1503525237543,-1, -1, 5, 0, -7, -23, 0, 10
1503525237566,0, -2, 0, -2, -4, -7, 0, 1
1503525237588,-2, -2, -4, -2, 1, -6, -1, -23
1503525237603,-6, 1, 3, 3, 2, 3, 1, 1
1503525237625,5, -2, 0, 1, 2, 1, -2, -9
1503525237648,2, -1, -5, -3, 1, 3, 3, 2
1503525237662,0, 1, -1, 2, 2, 13, -2, -4
1503525237685,3, -1, -3, -7, -5, -8, 3, -14
1503525237709,-2, -2, -3, -3, -9, 13, -8, -11
1503525237722,-5, 0, 1, 2, 11, 44, 2, 19
1503525237745,-3, -3, 1, 2, -5, -33, -8, 16
1503525237768,-3, -3, 0, 0, -5, -11, 0, 42
1503525237782,2, -1, -2, 1, 7, -4, -3, -9
1503525237805,-1, 1, -2, -6, -21, -27, -17, -34
1503525237827,-5, 0, -1, -2, 1, -13, 32, -41
1503525237843,-2, -1, -2, -5, 1, 0, -3, -47
1503525237865,7, -2, -3, -3, -1, 8, -12, 66
1503525237888,-3, -3, -1, -3, 5, 7, -3, -7
1503525237903,-4, -2, -3, -1, 0, 6, 4, 5
1503525237925,4, 1, 2, 6, 28, 41, 7, 46
1503525237948,-1, 4, 3, -2, -14, -12, 8, -28
1503525237962,-3, -1, -2, 0, -3, -8, -6, -13
1503525237985,1, 1, 2, 8, 35, 50, 4, 13
1503525238008,-5, -3, -4, -3, -10, -15, -5, 7
1503525238023,3, 0, -2, -4, -7, -12, -3, -4
1503525238045,-1, -4, -3, -3, -15, -19, 4, 12
1503525238074,1, -1, 2, 1, -7, -22, 14, -24
1503525238083,4, -1, -3, -3, -4, 6, -7, 32
1503525238106,-2, -1, 2, 1, -6, -5, -12, -21
1503525238127,-11, -4, 1, 3, 14, 18, 0, 2
1503525238143,2, 2, -2, -2, -1, -4, -3, -7
1503525238165,1, -1, -4, -7, -14, -27, -10, -6
1503525238187,-2, -1, -3, -2, -8, -10, 1, -9
1503525238203,4, 1, -2, -2, -12, -20, 3, -10
1503525238218,-7, -3, 2, 5, -2, 28, 2, 1
1503525238241,4, 2, 0, -4, -4, -9, -9, 10
1503525238255,0, -2, 1, -2, -8, -12, -3, 4
1503525238279,1, -4, 0, 2, 11, 2, 1, 11
1503525238300,-4, 12, -1, -6, -10, -19, -1, -11
1503525238315,3, -5, -2, -4, -4, -21, 2, 38
1503525238338,-4, -3, -2, -3, -3, 3, 1, 7
1503525238361,6, 18, 7, 2, -2, -1, -4, 0
1503525238377,-8, 0, -9, -18, 2, 11, 4, -24
1503525238397,1, -6, 1, -1, 11, 77, -10, -20
1503525238420,-6, -14, -3, 1, -3, -10, 7, 4
1503525238436,2, 1, 3, 22, -6, -21, -8, -1
1503525238457,-6, -17, -3, -14, -5, -19, -3, 3
1503525238481,-1, 4, 4, -1, -3, -17, 15, -30
1503525238495,0, -7, 2, 8, -4, 0, -8, 21
1503525238518,0, -5, -5, -2, 0, 5, 5, -16
1503525238526,-1, 0, -5, -12, 8, 12, -2, -57
1503525238548,3, -1, -2, -5, -5, 12, 10, 45
1503525238569,-5, -3, -5, -13, -4, -14, -14, -35
1503525238592,-1, 1, 11, 21, 1, 10, 6, 21
1503525238615,1, 2, -1, 1, 6, 0, -13, -20
1503525238630,0, 1, -4, -5, 29, 28, -5, 0
1503525238646,0, -1, 1, 0, 7, 11, 6, 23
1503525238667,-2, -5, 4, 5, -11, -18, -1, -5
1503525238689,-2, 7, 1, -2, -7, -11, -5, -29
1503525238712,-3, -7, -5, -10, -11, 0, 2, 5
1503525238727,-1, -2, -1, 4, -9, 5, 2, 2
1503525238749,2, 4, 1, 9, 22, 21, 7, 23
1503525238757,-3, -5, -8, -12, -16, -20, -2, -6
1503525238780,-3, -6, 0, 12, 11, 14, -9, -32
1503525238795,2, 16, 3, 0, 14, 18, -3, -19
1503525238818,-1, -6, 6, 8, 25, 44, -1, -24
1503525238844,-2, -1, -5, -4, -9, -20, -2, 0
1503525238848,-2, -2, -2, -4, -4, -13, -3, 3
1503525238869,2, -2, 5, 15, -2, 1, -4, 0
1503525238885,0, 1, 1, 3, -2, 8, -2, -15
1503525238910,-4, -3, 2, -2, -4, 1, 1, -15
1503525238917,-2, 0, 1, 1, -5, -2, -6, 8
1503525238938,1, -2, 0, 2, 9, 10, 9, 20
1503525238960,-1, 0, -3, -3, -4, -15, 0, -5
1503525238978,-2, 2, 2, 8, -1, 3, 0, 9
1503525238997,-1, 0, -2, -4, 8, 7, -4, -26
1503525239020,1, -1, 2, -1, -1, 7, -7, -2
1503525239035,-2, -2, -1, -1, -1, -1, -2, 5
1503525239057,0, 0, 3, 5, 2, 4, 6, 12
1503525239081,-1, -2, 0, 2, 7, -3, -10, 16
1503525239095,-5, -1, -4, -3, -8, -4, -5, -28
1503525239118,1, 0, 0, -2, 0, 8, 8, -4
1503525239140,1, -2, 0, 3, -4, -19, -2, 7
1503525239162,-2, -1, -5, -3, -2, 2, -4, -3
1503525239179,-8, 0, -4, -7, -4, -5, -8, -29
1503525239200,2, -1, -5, -3, 1, 10, 3, 20
1503525239223,-2, -2, 0, -4, -2, 1, 7, 8
1503525239237,3, -2, 0, 1, -6, -3, -1, 8
1503525239260,-2, 1, 5, 16, 10, 13, -2, -10
1503525239283,-1, -2, -2, -4, -3, -6, -7, -6
1503525239297,0, 0, -1, -4, -7, 7, -14, -6
1503525239320,-1, 0, -2, -4, 0, -4, 4, -11
1503525239372,-4, 1, 2, 4, 0, 3, 4, -21
1503525239381,-1, -1, -2, -3, 1, -5, -4, 3
1503525239403,-2, -2, 0, -3, -3, -7, 3, 10
1503525239421,0, 0, -2, -2, -15, -5, 8, 19
1503525239440,3, 0, -3, -3, -8, -18, 9, 1
1503525239464,-1, 1, 1, 2, 1, -2, 8, 3
1503525239470,-4, -1, -1, -4, -3, -2, -2, -3
1503525239492,-4, -1, 2, 3, -10, 28, -2, -22
1503525239508,-2, 0, -1, -5, -13, -27, -5, -10
1503525239529,-1, -2, -2, 2, 6, -2, -6, -22
1503525239552,0, 0, -1, 0, 4, -2, 0, -10
1503525239567,-2, 2, -3, -1, -1, -4, -1, -5
1503525239583,2, -4, 1, -2, -2, -11, -3, 13
1503525239597,0, 1, -1, -4, 2, 12, 2, -4
1503525239620,6, 17, -9, 35, 9, 15, 3, -12
1503525239642,-1, -6, -1, 1, -2, -3, -1, 7
1503525239652,-5, 1, 7, 5, 7, 12, 2, -8
1503525239672,-6, -7, 5, -3, 4, 10, 2, -1
1503525239688,-2, -10, -9, -2, 4, 3, 3, -10
1503525239709,-2, 2, 0, -1, 11, 23, -3, -26
1503525239732,-2, -4, -2, -2, -6, -6, 0, -2
1503525239748,-1, 0, 1, 7, 12, 22, 5, 6
1503525239770,1, 2, -3, -4, -7, -16, -8, 1
1503525239792,-4, 3, -5, -4, -5, -10, -2, -4
1503525239807,-3, -2, -1, -2, -6, -7, -1, -15
1503525239829,-4, 5, -1, -2, -3, -19, 1, -33
1503525239852,-4, 1, 1, 4, 15, 13, 1, 6
1503525239875,5, 2, -1, -2, -9, -10, -1, 25
1503525239883,1, 1, 0, 3, 13, 4, -3, 0
1503525239898,1, -4, -1, 1, -8, -2, 5, -3
1503525239920,-3, -4, 0, -3, 0, 1, 0, -5
1503525239943,3, 1, -1, -1, 4, 9, 5, 15
1503525239958,-2, 0, 2, 0, -4, 2, 7, -3
1503525239983,-9, -3, 2, 14, -4, -11, 0, -9
1503525240002,-3, -5, -6, -15, 3, 6, 0, -1
1503525240010,3, -1, 2, 0, -1, -6, 1, 19
1503525240039,7, 0, 0, -1, -4, -5, 3, 31
1503525240049,0, 14, 4, 4, 0, -6, -2, -13
1503525240069,4, -9, -4, -6, -2, -5, 15, 73
1503525240093,-5, -1, 7, 18, 4, 6, -7, -41
1503525240117,-2, 0, -1, -7, -4, -6, -3, -9
1503525240123,0, -4, -1, -10, 5, 1, 0, -17
1503525240145,1, 0, 2, -1, 8, 4, -1, -6
1503525240161,1, -2, 1, 0, 12, 3, 1, 13
1503525240184,-3, -3, -1, -1, -7, -4, 2, -11
1503525240205,-3, -1, -4, -4, -4, -10, 4, 2
1503525240220,-5, -3, 0, -2, -12, -8, -5, -14
1503525240242,1, 1, -2, 2, 11, 15, -3, 3
1503525240265,3, 0, 1, -2, -9, -18, 0, -5
1503525240280,1, -1, -1, -2, -4, 1, 5, -1
1503525240302,-4, -2, -1, -1, 2, 20, 0, -5
1503525240325,1, 1, -3, -3, -11, -26, -7, 9
1503525240340,-8, -3, -2, 0, 1, -6, 9, 7
1503525240363,3, 2, 22, 3, 2, 7, 1, 2
1503525240386,-2, -5, -7, 2, -2, -9, -9, -9
1503525240400,2, 1, -3, -3, -7, -6, 9, 28
1503525240422,-5, 0, 1, -1, 1, 5, 4, -1
1503525240445,1, -2, -3, -1, 3, 13, 1, 0
1503525240461,-1, -1, -7, -7, -4, -7, -2, -3
1503525240483,6, -2, -2, -2, 10, 3, -1, -7
1503525240505,-4, -2, 1, 6, -5, -3, -5, -20
1503525240521,-2, -2, -2, -3, -1, -7, -1, -3
1503525240535,-6, -3, -5, -5, -5, 8, 0, -3
1503525240559,-1, 2, -3, -1, -7, -11, 4, -12
1503525240573,1, -1, 3, 3, 8, 27, 1, 10
1503525240596,3, -2, 7, 11, -3, -27, -2, 13
1503525240610,-3, -5, -1, -6, -6, -5, -3, -1
1503525240633,-1, 7, 3, -3, -7, 3, -2, -7
1503525240656,5, -3, -4, 0, 4, 12, 5, 20
1503525240678,-4, -2, -1, -4, -2, -19, -4, -4
1503525240693,-2, -1, 2, 2, 4, 4, -1, -11
1503525240715,3, 0, 3, 2, 6, 28, 4, 24
1503525240723,-3, -1, -2, -4, -12, -17, -2, -1
1503525240745,3, 2, 9, 14, 9, 8, 6, 1
1503525240760,-3, -2, 1, 3, 1, -3, 4, -25
1503525240782,2, -1, -7, -6, -2, -7, 0, 38
1503525240805,0, 1, -3, -6, -11, -10, -17, -2
1503525240822,-1, -2, -1, 0, -1, 2, -4, -3
1503525240842,1, -1, 0, 3, 8, 37, 17, 15
1503525240865,2, 0, -5, -12, 3, 5, -6, -9
1503525240880,-3, -1, 1, 3, 6, 19, 5, -4
1503525240902,-1, -1, -2, 3, 11, 13, -14, -7
1503525240918,-2, 1, -1, -5, -7, 4, 3, 14
1503525240933,-3, -4, -1, 4, -3, -19, 7, 34
1503525240957,2, 0, -1, -4, 13, 17, -2, -9
1503525240963,0, -1, -3, -1, -5, 0, 3, 2
1503525240985,-7, 0, 8, 11, 5, 2, 4, -29
1503525241000,1, 0, 1, -2, -4, -7, -18, -8
1503525241023,-2, 0, -1, 2, 0, -5, -7, -17
1503525241045,0, 1, -2, 0, 0, 24, 17, 12
1503525241068,6, 0, -3, 1, 1, 7, 0, 24
1503525241083,4, -1, -3, -5, -7, -8, -7, -1
1503525241105,-6, 1, 0, -5, -4, -20, -5, 4
1503525241128,0, 0, -2, 0, 21, 23, -1, -4
1503525241143,3, 0, 1, -1, -6, -29, 3, -3
1503525241166,-4, -3, 0, -1, -9, -8, -11, -24
1503525241188,2, -1, -3, -2, 0, -1, 4, 21
1503525241202,3, 0, -3, -6, -12, -26, 30, 12
1503525241228,-2, -3, 3, 3, -2, -5, -4, -9
1503525241248,-5, -4, 1, 3, -2, -3, -12, -23
1503525241264,0, 1, -2, -4, 10, 41, -6, -10
1503525241285,0, 0, 0, 3, 17, 59, -8, 15
1503525241307,0, -1, -3, -7, -15, -22, 4, 29
1503525241323,-2, 0, -1, 0, 1, 0, -1, -8
1503525241345,-2, 1, -3, -2, -3, -4, -7, -9
1503525241368,-1, 0, 3, 5, 0, -25, -3, -12
1503525241376,8, 1, -1, 0, 13, -8, 17, 65
1503525241398,3, 0, 0, -3, 2, 19, -6, -17
1503525241413,-4, -3, -2, -3, -3, 2, -18, -27
1503525241435,-1, 2, 0, -1, 0, -2, 2, -30
1503525241459,-5, -7, 13, 0, -2, 6, 1, 3
1503525241473,-1, -10, -5, -4, -3, -19, -4, -36
1503525241495,-4, -1, -12, -3, -1, 24, 9, 81
1503525241518,-1, -1, -1, -1, -1, -16, 1, -22
1503525241533,2, 7, 6, 0, -8, -10, -7, -49
1503525241555,-4, 0, -1, -1, -4, -5, -8, -31
1503525241578,2, 1, 2, 8, 24, 33, 0, 43
1503525241594,0, 1, -5, 0, 4, 12, 6, -15
1503525241615,0, 0, -8, -14, -10, -27, -3, -15
1503525241638,2, -2, -5, -13, -13, -4, 3, -18
1503525241653,-5, -2, -1, 2, -17, -21, -3, -6
1503525241675,-5, 1, 0, -2, -3, 4, -1, -4
1503525241698,-3, -3, 2, 21, 4, -2, -20, 6
1503525241713,-4, -5, -3, -6, 4, 7, 12, -30
1503525241736,-1, 0, -2, 1, 1, -2, 2, 18
1503525241758,6, 4, 8, 18, 4, -11, -3, 21
1503525241773,-7, -5, -10, -25, 2, 3, 4, -55
1503525241797,4, 0, -7, -18, 5, 4, -4, 35
1503525241818,-1, -1, -2, -2, -8, -1, 0, -32
1503525241833,-1, -2, -5, -10, -7, 12, 3, -40
1503525241855,-2, 3, 11, 26, 3, -17, -1, 29
1503525241879,4, 8, 13, 30, 3, 3, -5, 40
1503525241893,1, -2, -1, 3, 1, -1, -4, -4
1503525241908,-7, 6, -9, -24, 3, 1, -18, -17
1503525241922,2, -3, -2, -3, 6, 15, 8, 27
1503525241945,1, 1, 4, 6, -2, -9, 11, 3
1503525241968,-3, -11, -2, 3, 8, 32, 1, -17
1503525241990,-1, -3, 5, 11, 5, 5, 1, 1
1503525242006,0, 15, -4, 2, -4, -18, -12, -29
1503525242030,-6, -8, -4, -6, -10, -11, -1, -33
1503525242050,1, 0, 2, -5, -9, -11, -5, -16
1503525242065,1, -4, -2, -4, 3, 3, 6, 5
1503525242087,-1, -1, 0, -1, -6, -16, -1, 44
1503525242110,2, -4, -3, -4, -4, 7, 1, -19
1503525242125,-4, 0, -1, 1, 6, -5, 4, -7
1503525242147,0, -2, 1, 3, 0, 18, -2, -7
1503525242170,-2, -1, -5, -8, -6, -11, 2, 3
1503525242185,2, -1, -1, -3, -1, -4, -4, 2
1503525242201,-3, 0, -3, -2, 1, -3, 2, 0
1503525242215,0, 0, 0, 0, -3, -9, -5, 4
1503525242240,0, 1, -2, -3, -8, -17, -4, 2
1503525242260,0, -2, -3, -3, -2, -2, 1, -9
1503525242275,-2, -1, -3, -1, -2, 1, -7, -1
1503525242299,0, 0, 1, -2, -1, -20, -1, -2
1503525242320,-4, -1, 0, 5, 1, -1, 2, 1
1503525242336,0, -1, 2, -2, 1, 5, -1, 0
1503525242358,-1, 1, -1, -4, 1, 0, 0, 4
1503525242380,1, 0, 3, 5, 0, 4, -1, -1
1503525242395,-4, -3, -4, -5, -2, 5, 2, -4
1503525242425,0, 1, -1, -2, -2, -6, -10, 1
1503525242441,1, 1, 2, -1, -3, -8, 1, 1
1503525242455,1, -1, -2, -2, 1, 4, 2, 6
1503525242478,0, 1, -4, -3, -1, -2, -5, -6
1503525242500,-1, -4, -10, -17, -2, 3, 2, 2
1503525242515,1, 1, 6, 16, 11, 5, -6, 3
1503525242538,-2, 0, -3, -2, 5, 3, 2, -5
1503525242560,-6, -3, 0, -3, 1, 0, 2, -9
1503525242576,-2, -2, -3, -1, -1, 11, 3, 13
1503525242598,-2, -2, -1, -9, -10, -12, -3, -7
1503525242620,2, -1, -2, -2, -1, 2, 4, 0
1503525242636,-1, -2, -3, -4, -5, 3, 0, 2
1503525242658,3, 1, 5, 8, 15, 10, 18, 2
1503525242680,3, 1, 4, 3, -3, -4, -4, -5
1503525242695,2, 1, -3, 3, 0, -7, 0, 6
1503525242718,-2, 2, 3, 7, -1, 0, -5, -9
1503525242740,-1, -4, -3, -1, 1, 12, -3, -1
1503525242755,-2, -1, 0, -3, -6, -5, -3, -3
1503525242778,-1, 0, -1, -1, -3, -7, 2, -7
1503525242802,-2, -3, -7, -10, -4, -2, -6, 5
1503525242815,-4, -3, -6, -9, 3, 7, -1, -23
1503525242838,-4, 0, 3, 2, -10, -25, -4, -7
1503525242860,0, 0, -1, 1, -2, 5, 4, 10
1503525242882,4, -1, 1, 1, -1, -6, -9, -2
1503525242898,-4, -1, -1, 3, 1, 20, 4, 38
1503525242920,1, 1, -3, -2, 7, -8, 2, -11
1503525242942,-1, -1, -2, -1, -1, 1, -4, -10
1503525242958,-1, -1, 5, 5, 4, 3, -2, 3
1503525242980,6, 0, -1, -2, -6, -9, 4, 34
1503525243004,-4, -1, -2, -5, -7, -3, 10, -18
1503525243018,-1, -1, 0, 0, 6, 11, -1, -3
1503525243041,-2, -1, -2, 1, 1, -5, -8, -5
1503525243062,4, 2, -3, 2, 31, 27, -2, -1
1503525243082,-2, -2, -2, -6, -12, -11, -4, -10
1503525243100,-2, -3, -4, -12, -7, -8, -22, -5
1503525243122,-4, -1, -1, -2, -7, 1, 5, -1
1503525243139,0, -3, 1, -1, -18, -5, 4, -5
1503525243160,-2, -2, -1, 1, -11, -18, 1, 1
1503525243182,4, 1, 1, 2, 0, -5, -3, -4
1503525243198,-1, 1, 1, 4, 2, 1, -3, -7
1503525243220,-4, -1, -2, 4, 4, 4, 5, -3
1503525243242,3, -3, 0, 1, -1, 1, -4, 2
1503525243250,1, 0, -2, -2, 1, 3, -2, -6
1503525243273,4, -3, 1, 3, 11, 7, 3, -2
1503525243287,-9, -7, -7, -4, -2, -3, 4, -6
1503525243310,5, -2, -2, -4, 0, 5, 7, 1
1503525243331,-7, -4, -3, -7, -5, -10, -8, 16
1503525243341,5, 1, 0, 0, 4, 15, -3, 1
1503525243362,-3, -2, -7, -3, -12, -1, -1, -1
1503525243378,-1, -2, -2, -4, -5, -20, -6, -3
1503525243400,2, 0, -2, -3, 0, 2, -3, -12
1503525243422,-1, -3, -4, -2, -2, -18, -1, 8
1503525243440,7, 3, 1, -1, -3, -13, -8, 5
1503525243460,3, 3, 7, 6, 13, 14, 6, 6
1503525243483,-5, -6, -4, -6, -4, 2, 2, -4
1503525243498,-1, 1, -3, -2, -2, 1, -5, 0
1503525243520,1, -1, -1, -1, 4, 5, 9, 0
1503525243528,0, 0, 0, -1, -1, 7, 3, 1
1503525243550,-2, -1, -1, -3, -3, 2, 2, -4
1503525243577,-4, 0, 0, 1, 1, -6, -1, 8
1503525243587,4, 1, 3, -1, -4, -2, -1, 1
1503525243610,1, 0, -3, -5, 0, 9, -1, -4
1503525243632,2, 0, -1, 0, -2, -4, 0, 0
1503525243647,-2, -2, 0, 3, -1, -4, 0, -5
1503525243670,1, 0, -3, 0, -5, -2, -4, -9
1503525243712,-1, -3, -2, -3, -4, -8, -1, -4
1503525243730,5, 3, 2, -1, -3, -6, -3, 4
1503525243752,-1, 1, 0, 1, 2, 8, 4, 5
1503525243767,1, -4, 1, 1, -1, 0, 2, 0
1503525243790,2, 1, -2, 2, 3, -16, 10, 15
1503525243812,-5, -3, -4, -3, -4, 0, -4, 5
1503525243834,-4, -4, -5, -6, -3, -3, -3, 2
1503525243850,0, 0, -1, -1, 2, 8, 6, 19
1503525243873,-2, -3, 2, 2, 11, 23, 0, -22
1503525243881,0, -1, -2, -2, -6, -8, 4, 6
1503525243903,1, -1, -6, -6, -3, 3, 0, -5
1503525243925,0, -1, 0, 0, -1, -11, 4, 2
1503525243943,-1, 0, -1, 0, 8, 15, -6, -23
1503525243962,-3, -1, 1, 2, 7, 2, -10, -5
1503525243986,-4, -1, 1, 3, -7, -18, -8, 0
1503525244000,1, 1, 1, 3, 16, 7, 6, 6
1503525244022,0, -17, -3, -5, -9, -2, 8, 26
1503525244045,-4, -2, -1, -2, -7, -7, -1, -15
1503525244060,-2, -1, -3, 0, -1, 2, -1, 0
1503525244083,0, 4, -2, 1, 10, 13, 6, -2
1503525244105,0, 4, 1, -2, -4, -7, -2, 7
1503525244120,-3, 0, -2, -6, -10, -3, 0, -16
1503525244144,4, 17, 1, -1, -4, 4, -4, -4
1503525244165,-2, -6, 2, 3, 6, 4, -1, 1
1503525244180,1, 0, -1, 6, 1, 2, 2, 4
1503525244202,-3, -3, -3, -5, -1, 1, -5, -5
1503525244225,-2, 2, 4, 0, -1, -4, -4, 22
1503525244240,-6, -6, -2, 0, 2, 35, 7, 35
1503525244262,11, 1, -1, -1, 2, -3, -4, 4
1503525244285,-1, -3, 0, -3, -12, -31, 2, -20
1503525244300,-1, 15, 1, 2, -2, -3, -6, -5
1503525244323,-4, -10, -6, -8, -7, -12, -2, -10
1503525244347,-3, -3, -2, -10, -5, 11, -1, -12
1503525244360,-2, -3, -1, 0, -2, -20, 9, -16
1503525244382,2, 1, 6, 12, 12, 11, 5, 12
1503525244405,-4, -4, 0, 1, 0, 6, -1, -10
1503525244420,2, -1, -6, -8, 16, 9, 28, 9
1503525244442,-5, 9, 0, -1, -10, -16, -7, -19
1503525244465,1, -5, -1, 0, 0, -22, -16, -1
1503525244481,-3, 0, -4, -8, 4, 14, 3, -11
1503525244494,-2, -2, -2, -2, -4, -14, 13, -5
1503525244510,-2, -1, 1, 7, 19, 18, 5, -7
1503525244532,-2, 0, -1, 3, -1, -1, -12, -21
1503525244554,2, 4, 1, 2, 4, 25, -8, 9
1503525244578,-1, 0, 0, 1, -4, -13, -1, -11
1503525244592,-1, 1, 0, 0, -7, -22, -18, 0
1503525244616,2, 0, 1, 0, 6, 12, 1, 15
1503525244630,3, 2, 2, 18, 3, 14, 7, -5
1503525244653,-4, -3, -3, -8, -3, -10, -7, -1
1503525244674,-8, -2, -1, -2, 9, 23, 2, -22
1503525244690,1, -4, -3, -4, -4, -7, 0, 0
1503525244712,-2, -4, 0, -7, -1, 1, 9, 8
1503525244734,-1, 1, 1, 10, 0, 11, -7, 0
1503525244757,0, -2, -2, -7, -7, -7, 2, -6
1503525244772,1, -1, 0, 1, -18, -45, -6, -18
1503525244794,1, -1, 0, -2, 4, 7, 9, 37
1503525244817,3, 0, 0, 2, -6, -3, 15, 19
1503525244832,-1, -1, -4, -8, 10, -5, 13, 14
1503525244855,1, -1, -2, -3, -2, 7, -7, -4
1503525244876,-2, 0, -1, -2, 5, 19, -8, -1
1503525244892,-4, -1, 3, 6, 7, 32, -5, -9
1503525244907,1, 3, -6, -10, 0, 7, -13, -23
1503525244922,3, 2, 0, -2, 1, -12, 10, -12
1503525244945,0, -1, -2, 1, 0, -22, -5, -13
1503525244967,-1, 0, 2, 5, 10, 16, 4, 4
1503525244985,-2, 0, -1, 1, -5, -2, -1, -56
1503525245004,-19, 5, 4, -2, -6, -13, -24, -19
1503525245027,15, 24, 37, 10, 22, 12, 1, -4
1503525245042,-3, -6, -25, -29, -5, 20, -8, 32
1503525245065,3, -2, -2, 13, 28, 53, -2, 13
1503525245089,9, -1, -1, 5, -5, -29, 10, 5
1503525245102,-4, 9, -2, -4, -9, 4, 9, 40
1503525245126,1, -3, -6, 6, -11, -10, -1, -22
1503525245147,1, -7, -3, -4, -7, -3, -1, 8
1503525245162,-4, -4, -2, -5, -11, -19, -4, -12
1503525245190,-12, -7, -3, -3, 5, 16, 8, 2
1503525245193,1, -2, -11, 17, 2, 11, 4, 10
1503525245214,4, 3, 0, -3, 13, 1, 5, 34
1503525245236,1, -1, -3, -8, -3, 3, -10, 5
1503525245253,-5, -6, -8, -1, -10, 1, 1, -4
1503525245274,-11, 2, -3, -2, 0, -4, 4, -4
1503525245301,21, 26, -6, -3, 6, 8, 1, 1
1503525245305,2, -5, 30, 4, -4, 24, 3, 22
1503525245329,4, -10, -8, 11, 6, -12, 3, -24
1503525245342,9, 21, -26, -14, -8, -9, 0, 9
1503525245359,33, -10, -7, 16, 0, -3, -8, -26
1503525245380,6, 8, 34, -10, 1, -13, -3, 28
1503525245396,42, 76, 14, 33, 0, -3, -2, 18
1503525245420,-23, -33, -16, 6, 9, 22, -3, 4
1503525245440,-31, -19, -16, 0, -10, -16, 1, 45
1503525245456,-16, 1, -2, -19, -4, -7, -9, -69
1503525245479,9, 35, 10, 4, 1, 0, 4, -24
1503525245500,19, -16, 6, 16, 36, 64, 13, 22
1503525245515,-13, -31, 4, -18, -8, -13, 1, -1
1503525245538,2, -6, 9, 20, -2, 0, 1, 8
1503525245561,-13, 10, -11, -19, -5, -9, 1, 1
1503525245575,20, -36, -19, -14, -3, -16, -24, -10
1503525245598,-17, 37, 8, -15, -21, -30, -1, -4
1503525245622,15, -19, -21, -7, 4, 11, -1, -14
1503525245635,-4, -1, -3, -14, -6, 7, 7, 10
1503525245658,-8, -14, -2, -10, -8, -6, -20, 4
1503525245680,-25, 12, 4, -4, 1, -3, 11, 2
1503525245695,-2, -10, 5, -5, -5, -2, -7, -9
1503525245718,3, -1, 2, 11, 15, 6, 4, -1
1503525245727,6, -3, -5, -6, 12, -2, -1, 4
1503525245747,2, 2, 3, 10, 28, 24, -4, -6
1503525245770,1, -3, -3, -1, -11, -3, -4, -1
1503525245786,-3, -16, -5, -2, -7, -18, -12, -8
1503525245807,1, 12, 2, 3, 2, 14, 13, 11
1503525245830,-2, 0, -2, 13, -4, -10, 0, 3
1503525245844,5, 2, -6, -10, -10, -15, -4, -2
1503525245867,0, 7, -2, -3, 11, 4, 11, -6
1503525245876,1, 5, 0, -14, -7, -12, -8, -7
1503525245898,-2, -3, 5, 1, 1, 0, -3, 2
1503525245920,-12, -1, 4, 0, -3, 1, 2, -1
1503525245935,-2, -1, -15, 3, -7, -7, -2, -13
1503525245958,-4, -4, -1, -7, -3, -1, -3, -3
1503525245981,2, 20, -4, 3, 5, 37, 0, 2
1503525245996,-6, -8, 2, 7, 27, 30, 1, -3
1503525246018,-2, -13, 2, -3, -14, -24, -1, 8
1503525246040,-8, 1, 6, 10, -4, -9, -7, -4
1503525246058,-20, 10, 3, -5, -3, -5, -3, 4
1503525246078,-1, -4, -7, -3, -12, -30, -1, 3
1503525246101,9, 4, -20, -2, -5, -5, -1, -2
1503525246115,3, 6, 4, -6, 2, 2, 4, 1
1503525246138,-2, -3, -4, -8, 4, 18, 4, -1
1503525246145,0, -6, 3, 20, 0, 0, 0, -3
1503525246168,-6, -12, -12, -4, -4, -9, -3, -5
1503525246190,-7, -2, -6, -6, -1, 1, 0, -7
1503525246205,-4, 11, 14, 0, -1, -1, -3, 2
1503525246228,3, -11, -7, -3, -3, -3, -1, -3
1503525246249,-2, 0, -5, -4, 2, -1, 0, 3
1503525246281,11, -32, -4, -3, -1, 1, -3, -1
1503525246296,-11, 0, 0, -1, -4, -4, -3, -23
1503525246318,-6, -7, 0, -3, -4, -15, -1, 7
1503525246340,5, 5, 14, 1, 1, 2, -1, 18
1503525246355,-18, -7, -6, -1, 3, 0, -3, 3
1503525246378,7, -3, -6, -7, -6, -3, 0, -3
1503525246385,2, -11, 3, 0, 1, -3, 2, -8
1503525246407,-1, -2, 4, 6, 24, 49, 6, -10
1503525246430,1, -2, -7, -4, -16, -28, 0, 3
1503525246444,-5, -10, -3, -3, -7, -10, -2, 8
1503525246462,-5, 2, 4, 3, -2, -4, 3, 2
1503525246476,0, 12, -1, 0, -1, 3, -2, -2
1503525246499,2, 8, 2, 1, 5, 18, 3, -7
1503525246520,-1, 8, 3, -2, -3, -7, -6, -6
1503525246536,16, -2, 0, 0, 3, 2, -2, 7
1503525246566,-1, -4, -2, 3, 4, 15, 1, -15
1503525246587,1, 4, -5, 0, 2, -3, 1, -1
1503525246610,5, 6, 12, 6, 0, -11, -2, -6
1503525246632,-10, -10, -2, 0, 1, 0, 0, -7
1503525246640,-5, 7, 5, 1, 1, 3, 1, 4
1503525246663,-5, -6, -3, -2, -4, -16, -7, -5
1503525246678,-2, 0, 1, 3, -5, -7, -2, 0
1503525246701,-3, -9, -5, -3, 0, 2, -2, -1
1503525246722,-2, 12, 5, 2, -2, -2, -1, 1
1503525246739,-4, 0, -6, -5, 2, 4, -4, -2
1503525246763,-5, -5, 2, 0, 1, 1, -1, -3
1503525246782,0, -5, 2, 1, -2, -1, -3, -1
1503525246790,2, 0, 1, -2, -5, -3, -2, 0
1503525246812,-2, -2, 3, -3, -11, -20, -6, 3
1503525246828,5, 2, 0, -3, 4, 13, 3, 1
1503525246849,3, -4, 4, -5, 5, 1, -2, -2
1503525246873,1, -1, -2, 0, -6, -13, 6, 6
1503525246887,-1, -13, -9, -11, -17, -31, -9, -13
1503525246910,-3, -3, 0, 4, -3, -4, -5, 4
1503525246932,1, 1, 0, 2, 21, 55, 2, 0
1503525246947,-5, 0, -2, -1, -6, 2, 1, 1
1503525246970,1, -3, 3, 4, 2, -4, 0, -2
1503525246992,4, 4, -2, -2, -4, -5, 4, 0
1503525247008,-2, -7, -1, -1, 0, -11, -4, 0
1503525247033,1, 1, -2, -2, -7, 6, -8, -2
1503525247052,-1, 10, 6, 12, 8, -4, -1, -2
1503525247068,2, 2, -2, -3, -2, -21, 0, -1
1503525247090,-2, -2, 1, 7, -5, -7, -5, -3
1503525247112,-3, -6, -4, -9, -15, -12, 1, -7
1503525247127,2, 3, -1, 0, 10, 21, 13, 5
1503525247149,-2, -5, -2, -3, -3, 4, -2, 0
1503525247172,10, 0, 8, 6, 6, 3, -5, 0
1503525247187,-3, -4, -5, -3, -4, 1, 4, -3
1503525247210,-2, -1, -3, -6, -4, -19, -3, -1
1503525247234,-6, -8, -11, -19, -7, 0, 3, -6
1503525247247,-3, 15, -5, -8, -3, -4, -7, 2
1503525247270,-2, -4, -2, 3, 6, -3, -1, -3
1503525247292,5, -1, 4, 9, 26, 55, 7, 4
1503525247307,-4, -1, 7, 9, -9, 3, -10, -1
1503525247330,-2, -1, -1, -3, -8, -29, -5, -4
1503525247352,-2, -10, -5, -4, -9, -16, -4, -1
1503525247369,0, 4, 3, -1, -5, 1, 7, -1
1503525247389,-5, 0, -7, -5, 16, 24, 0, -8
1503525247398,-1, -1, -3, -6, -14, -21, 7, -4
1503525247420,3, -1, 1, 2, 2, 21, 14, 10
1503525247443,-2, -6, -2, -1, -3, -16, -11, -5
1503525247458,-2, -6, 2, 6, 4, 8, 5, -1
1503525247480,0, -4, -2, -1, 15, 33, -14, -6
1503525247504,-1, -2, 1, 0, -7, -11, -4, -2
1503525247518,-3, 0, -2, -4, -7, -19, 1, -2
1503525247548,7, 6, 2, 2, 13, 46, 14, 5
1503525247572,-3, 1, -1, 0, -6, -35, -4, 4
1503525247585,1, 1, 2, 0, 6, -15, -10, 1
1503525247604,2, 1, -4, -4, -8, -25, 1, 3
1503525247623,-7, -4, 0, -1, 3, -4, -4, 4
1503525247645,6, -4, 0, 0, 6, -26, -15, 1
1503525247660,-7, 0, -3, -2, -9, -3, 21, -3
1503525247683,-2, -7, -2, 0, -2, -5, 3, 11
1503525247706,-6, -5, -2, -6, -14, -13, -7, -11
1503525247720,-2, 1, -5, -8, -10, -14, -7, -5
1503525247743,-2, 3, 2, 0, 0, 17, 6, -1
1503525247764,1, 0, -1, -7, -30, -18, 2, 20
1503525247774,3, -1, -3, -2, 0, 1, -7, -11
1503525247794,5, 1, 3, -11, -1, 0, -14, 2
1503525247812,4, 0, 0, 4, 0, -2, -3, 8
1503525247832,-5, -2, 0, -6, 1, 42, -14, -7
1503525247855,-1, -5, -6, -3, -14, -32, 1, -1
1503525247872,-1, -1, 4, 27, 6, 8, 6, -3
1503525247892,-4, -4, -4, -5, 2, -2, 8, 5
1503525247915,-3, 4, 1, -3, -3, -16, -27, 1
1503525247930,3, -1, 4, -6, -1, -11, 10, 4
1503525247952,0, -1, -4, 4, 27, 61, 12, -3
1503525247982,1, 2, -5, -7, -10, -19, -3, -11
1503525247989,-5, -4, -1, -3, -12, -14, -17, -7
1503525248013,-2, -2, -2, -3, 2, 0, 5, -11
1503525248034,-1, -1, -2, -8, -13, -30, 5, 3
1503525248049,-3, 0, -2, -2, -5, -28, -8, -3
1503525248064,0, -4, -3, -3, 1, 4, -4, 3
1503525248095,10, 1, -7, 21, -1, -11, 1, 2
1503525248110,3, -2, -5, -11, 0, 4, 0, 6
1503525248132,5, 1, 0, 0, 10, 32, 13, 10
1503525248155,-7, 8, 10, 6, -4, -5, -5, -19
1503525248172,-7, -12, -12, -22, -4, -6, -7, -3
1503525248185,2, -3, -3, -1, -4, 8, 1, 5
1503525248200,3, 1, 4, 6, 1, -18, 17, 19
1503525248223,6, 7, 6, 6, -5, -8, 3, 0
1503525248245,2, -10, -4, -13, 4, 18, 7, -3
1503525248260,5, 3, 3, 1, -1, 16, -5, 6
1503525248284,-1, 11, -15, 2, 2, -5, -2, 35
1503525248307,1, 8, 4, -7, -2, -1, -11, -30
1503525248320,-2, -4, 3, 9, 34, 43, 13, -2
1503525248342,0, 4, -2, 17, -3, -15, -3, 12
1503525248350,-6, -1, -6, -8, -1, 10, 3, -15
1503525248377,-3, -9, -6, -4, -3, 4, -13, -4
1503525248394,-11, -1, 2, 3, -7, -3, 2, 2
1503525248410,7, 0, -1, -3, -2, 23, 9, 13
1503525248432,0, 0, 3, 2, 2, 11, 0, -6
1503525248455,1, 0, -3, -5, -4, -6, -30, -3
1503525248476,-11, -12, 24, -2, -6, -8, 4, -4
1503525248485,-7, 2, 1, -1, -6, -16, -12, -7
1503525248509,-1, 7, 1, -3, -10, -8, -1, -1
1503525248522,0, -7, -1, -1, -2, -2, 11, 33
1503525248545,-2, -4, 3, 2, 7, 22, 4, 0
1503525248567,-6, -7, 2, -2, -4, -26, -6, -7
1503525248583,-2, 4, 0, 1, 10, 4, -1, -12
1503525248605,-2, -11, 0, 0, 6, 12, -3, -21
1503525248627,-7, -5, -2, -4, -4, 13, -3, -16
1503525248644,4, 3, -1, 0, -6, -9, -23, -6
1503525248664,2, 5, 5, 3, 2, 16, 8, 8
1503525248687,1, 16, 2, -2, -1, 4, -6, -1
1503525248703,1, -9, -3, 3, -4, -4, 6, -11
1503525248724,-3, -1, -2, -1, 0, 2, -5, -15
1503525248748,-1, -3, -1, 1, 10, 20, 19, 3
1503525248762,-3, -1, -2, -2, -5, 0, 0, 9
1503525248785,-2, -4, -1, -3, -2, -6, -1, 37
1503525248807,-2, -1, -2, -1, 3, -2, -3, -3
1503525248823,0, -1, 0, -1, -2, -5, 6, -6
1503525248846,0, -5, 1, 2, 22, 27, 1, -9
1503525248868,1, 6, 3, -1, -8, -7, 0, 13
1503525248886,1, -4, -5, -5, -7, -5, -4, -3
1503525248905,-3, 0, -1, -1, 0, -5, -2, 11
1503525248927,1, 5, -4, -4, -8, -11, -20, 0
1503525248947,-3, -5, 1, 2, -2, -2, 5, -8
1503525248964,-5, -12, 0, 0, -2, -2, 7, -7
1503525248988,-2, -7, -3, 0, -4, -6, -16, -7
1503525249003,1, 3, -3, -4, -3, -3, 13, -8
1503525249025,-1, 1, -2, -1, -11, -34, -14, -17
1503525249047,1, 5, 2, 0, 2, 12, 14, -5
1503525249062,1, 2, 0, -3, -11, -7, 1, 3
1503525249086,0, 1, -1, -2, 5, 4, -1, -3
1503525249107,-8, -5, -3, -2, -3, -6, -24, -29
1503525249122,0, -4, 0, 0, 1, -12, -13, -17
1503525249136,4, -4, -2, 0, 1, -7, 7, 14
1503525249152,2, 21, 5, 1, 3, 4, 8, 0
1503525249174,-4, -7, -1, 1, 1, -2, -1, -4
1503525249196,-3, -8, -3, -2, -3, -2, -9, -20
1503525249205,4, -2, 0, 7, 12, 21, 2, 16
1503525249227,2, 0, -1, -3, -7, -19, -3, 17
1503525249242,-4, -11, 0, -1, -6, -1, -4, 8
1503525249257,4, -3, -6, -1, 5, 3, 3, 0
1503525249272,-8, -6, -5, -4, -7, 0, -4, 9
1503525249295,-5, 2, 0, -4, -3, -6, 0, -6
1503525249317,3, -3, -6, -6, -2, -17, -3, -14
1503525249325,2, 3, -3, -1, 7, 10, 2, -5
1503525249348,-2, -1, 0, -1, -4, 6, 5, -9
1503525249362,-8, -6, -1, -5, -5, 2, -9, 0
1503525249385,0, 2, -1, 2, 5, 17, 7, -5
1503525249407,-2, -5, 1, 0, -3, -32, -5, -2
1503525249430,5, 2, -4, -4, -3, 10, 6, 9
1503525249445,1, 1, -2, -1, 2, -4, 16, -8
1503525249467,1, 1, 1, 3, 2, 10, -7, -4
1503525249490,-6, -1, -2, 2, 9, 45, 0, 0
1503525249504,5, -2, -3, -3, -8, -25, 0, 26
1503525249527,-7, 1, -3, 0, 15, 0, -2, -6
1503525249550,1, -2, 1, 2, -10, -15, 1, -10
1503525249564,5, -2, -4, -2, -11, 6, 4, -5
1503525249579,1, 0, 6, 10, 7, 7, 5, -3
1503525249597,-5, 6, 4, 8, 17, -5, 0, -5
1503525249617,-4, -1, -5, -12, -4, -11, 1, -4
1503525249639,2, 1, -1, -3, -6, 34, -14, 3
1503525249655,0, 2, -1, -1, -4, 22, 2, -6
1503525249676,2, 13, -3, -6, 4, 4, -2, -9
1503525249686,13, -3, -6, -8, -8, 9, 23, 91
1503525249707,-13, -13, -3, 1, -3, -18, -21, -77
1503525249730,-4, -6, -1, 2, 9, -20, -3, 2
1503525249744,-7, 0, -2, -4, -18, -13, -4, -17
1503525249767,-5, 6, 0, -5, -9, 14, -5, -5
1503525249790,-5, -4, -1, -7, -3, -12, -6, -14
1503525249804,4, -10, 0, 6, 15, 34, 4, -10
1503525249828,1, -2, -2, -1, -7, 9, -1, 9
1503525249851,-3, -17, -4, -2, -6, -28, 0, 10
1503525249864,-1, 1, 2, 3, -1, 33, 3, 1
1503525249887,1, 4, -4, -3, -9, -22, -15, -13
1503525249909,-3, 4, -1, 1, 6, 16, 5, 12
1503525249925,-3, 13, 1, 6, 20, 14, -4, -8
1503525249947,3, -2, 0, 1, -2, -26, 0, 21
1503525249969,-8, -10, -3, -4, -9, -2, 0, -6
1503525249989,-3, -3, -2, -2, 1, -8, 6, 12
1503525250007,7, 5, 0, 6, 39, 91, 5, 12
1503525250016,6, 13, 1, -5, -7, -9, 0, 7
1503525250036,-3, -3, 1, 3, 4, 21, -2, 7
1503525250059,-1, 8, -2, -3, -14, -25, 0, 13
1503525250074,0, -3, -2, -3, 14, 6, -4, -26
1503525250104,4, 14, 2, -2, -8, -6, -5, -4
1503525250122,-7, -12, -1, -2, -3, -15, 8, 12
1503525250134,0, -11, 0, 4, 5, -4, -4, -14
1503525250156,-3, -5, -1, 3, 2, 1, -4, 0
1503525250179,6, 0, -1, 0, 9, 41, 1, 8
1503525250195,-1, -2, 2, 1, 8, 3, -1, 8
1503525250217,-9, -3, -3, -3, -5, -23, -8, 12
1503525250239,-21, -12, -1, -4, 0, -4, -8, 6
1503525250255,2, 0, -2, 2, 9, 61, 18, -3
1503525250276,1, 7, -2, -5, -15, -34, -6, 1
1503525250302,3, 14, 2, 2, 4, 11, 0, -10
1503525250315,-2, -9, -2, -3, -16, -39, -3, 33
1503525250336,3, 1, -2, 6, 15, 2, 3, 6
1503525250361,2, -1, 0, 3, 16, 45, -6, -7
1503525250381,5, -1, 0, 0, 12, 21, 15, 28
1503525250398,-1, -8, -6, -5, -12, -15, -2, -10
1503525250419,4, 5, 1, -1, -5, -24, -4, 15
1503525250442,-1, -6, -4, -6, -13, -28, -11, -36
1503525250457,2, -1, -1, -1, -2, -20, -6, -5
1503525250479,-9, -1, 1, -2, -1, 9, -2, -12
1503525250501,-3, -4, -4, -2, -6, 2, 1, 1
1503525250517,-2, -6, -3, -4, 0, -14, -2, -18
1503525250538,-2, -8, -1, -1, 9, 8, 5, 2
1503525250547,-3, 0, 1, -5, 2, -23, -8, -7
1503525250570,-2, -4, -11, -26, -5, 2, -2, -9
1503525250594,-6, -2, -2, -16, -6, -9, -1, -35
1503525250607,4, 3, -2, -3, 8, 18, 7, 16
1503525250630,1, 23, 11, 38, -4, -17, -12, 1
1503525250652,-3, -9, -3, 8, -17, -28, -2, 4
1503525250667,-1, -7, -5, -12, -9, -15, -5, -1
1503525250690,1, -2, -4, -6, -4, 4, 1, 23
1503525250712,-3, -1, 1, 1, 4, 3, -1, 5
1503525250729,2, 7, 0, -3, -2, 5, 1, -1
1503525250749,0, -7, 2, 5, 2, 6, 3, -6
1503525250772,2, -4, -1, -2, -8, -14, -2, -7
1503525250787,3, 0, 1, 8, -1, 1, -3, -24
1503525250810,-1, -1, -3, -4, 4, 12, -11, 29
1503525250833,-3, -18, -1, 9, 3, -4, 6, -15
1503525250847,-4, -2, -3, -7, -2, -6, -1, 30
1503525250870,-4, -2, -4, -6, -3, 7, 1, -91
1503525250892,-1, 2, 1, -1, 2, 2, 1, 26
1503525250901,0, 0, 3, 3, -3, -6, -3, 37
1503525250922,-2, -3, -4, -8, -8, -15, 6, -31
1503525250945,0, -2, -2, -3, 0, 10, -3, -25
1503525250962,-4, 0, -2, 1, -3, -3, 1, -17
1503525250983,0, -6, -2, -2, 7, 12, 3, 12
1503525251005,-1, -4, -2, -3, -2, -8, 0, 11
1503525251020,-3, 0, 5, 3, -2, -11, -2, 2
1503525251042,1, -4, -4, -5, -7, 6, 0, 25
1503525251050,0, 0, 3, 11, 3, -4, -5, 3
1503525251075,0, -2, -1, 2, 16, 22, -3, 1
1503525251087,1, -1, -2, -2, -5, -9, 1, 19
1503525251109,1, 1, -1, -4, -10, -14, 1, 20
1503525251132,-3, -4, -3, -3, -9, -17, 1, 12
1503525251147,-3, 0, -3, -5, -5, -4, -8, -18
1503525251170,-1, 0, 0, -4, -2, 3, -1, -22
1503525251196,-2, 2, -1, -1, -2, 4, -2, 1
1503525251214,-1, 2, 0, 3, 17, 21, 5, 2
1503525251231,-2, -3, -2, -1, -4, -7, -4, -1
1503525251252,-2, -3, -3, 1, -1, -1, -3, 2
1503525251274,2, 8, -2, -4, -5, -14, 1, 4
1503525251282,2, -10, -10, -4, -5, 2, 0, 4
1503525251305,-3, -2, -2, -2, -6, -6, 9, 13
1503525251320,-3, 1, -4, -1, 5, 10, -1, -5
1503525251335,-2, -2, 0, 0, 0, 13, -1, 4
1503525251349,0, 1, 1, 2, 8, 6, -3, 1
1503525251372,-1, 2, 0, 0, 3, 8, -7, -5
1503525251396,2, -3, -3, -1, -3, -10, -1, -3
1503525251411,-1, -6, -4, -2, -7, -11, 3, 1
1503525251432,4, 6, -2, -4, -7, -5, -2, 1
1503525251454,1, 0, -2, -1, -2, 5, 2, -5
1503525251469,-1, 3, 1, 3, 8, 29, 1, -1
1503525251492,3, 0, -3, -3, -6, -13, 8, 6
1503525251514,1, 7, 0, -3, 1, -2, 0, 1
1503525251532,-2, 12, 5, 2, -1, -6, -14, -13
1503525251552,2, 0, -5, -4, -4, -7, -6, 2
1503525251575,-13, -18, 3, -1, 0, -3, -8, 1
1503525251589,-1, 1, -15, -4, -2, -3, 6, 2
1503525251612,0, -2, 3, 2, -1, -3, 3, -3
1503525251634,3, 4, 9, 0, 2, 1, 1, 6
1503525251649,-5, -3, -1, 0, 0, 1, -2, -12
1503525251672,13, 13, 12, 3, 2, -1, 8, 25
1503525251694,-2, 0, -7, -5, -3, 1, 0, -15
1503525251710,-2, -1, 4, 0, -2, -16, -7, 0
1503525251733,-3, -5, -6, -3, -6, -6, -1, -1
1503525251754,-1, -6, -3, -3, -5, -1, 0, 1
1503525251771,-6, 0, 3, 7, 2, 3, 8, -7
1503525251792,6, 3, 1, 1, 3, 39, 8, -3
1503525251814,-10, -5, -4, -6, -3, -12, -5, -6
1503525251831,9, 0, -8, -8, -1, 2, 1, 19
1503525251852,-2, -1, 4, 0, -10, -38, -4, -7
1503525251874,-6, -1, 1, 2, 2, 1, -8, -3
1503525251889,-3, -3, 5, 3, -3, -4, -1, -3
1503525251912,0, -4, -7, -6, 0, 0, -3, 17
1503525251935,-5, -3, 0, 0, -3, 18, 6, -17
1503525251949,7, 4, 2, 2, 3, 1, 0, 6
1503525251972,0, -1, 1, -2, -9, -46, -8, 9
1503525251994,-5, -3, 0, 1, 8, 14, -7, -35
1503525252010,0, -1, -3, -1, -3, -5, -6, -9
1503525252033,-2, 0, -1, 0, 2, 11, 2, -8
1503525252054,1, -1, 0, -3, -5, -3, -5, -4
1503525252062,-5, 0, -1, 0, 0, -8, -9, -8
1503525252085,-3, -3, -3, -4, -11, -12, 4, -1
1503525252102,-6, 6, -4, -5, -3, 6, 2, -16
1503525252122,5, -7, -1, 2, 3, 10, 6, 18
1503525252145,-3, -3, 2, 1, 0, 1, 0, -3
1503525252160,-2, 0, 1, -1, -6, -4, -15, -16
1503525252182,10, 5, 4, 1, -1, -16, 8, 9
1503525252206,-2, -4, -4, -1, 2, 18, 6, 8
1503525252227,-4, -2, -2, -6, -14, -26, -3, -8
1503525252243,-8, -4, 0, 1, 16, 2, -5, -6
1503525252265,-3, -2, -1, -1, -1, 2, -2, -6
1503525252287,2, 0, 1, 1, -3, 6, -9, -4
1503525252303,2, 0, -3, 1, 7, -16, -1, -2
1503525252325,-5, -3, -3, -2, -6, 34, -16, -10
1503525252347,2, -2, -1, -1, -3, -2, 0, 18
1503525252362,-3, 0, 2, 8, 30, 39, 23, 6
1503525252385,-2, 4, -1, -4, -11, -8, -7, -18
1503525252408,4, -2, 0, -4, -11, -20, 4, -2
1503525252422,-1, 0, -1, -1, -2, 0, -3, -1
1503525252445,-1, 8, -4, -5, -12, -27, -7, -12
1503525252470,-1, -5, -1, -1, 3, -23, 0, -5
1503525252475,0, 2, -1, 1, 6, 10, -6, 17
1503525252497,-4, -16, 1, 1, 2, 0, 3, 3
1503525252512,0, -3, -9, -20, -5, -6, -4, -19
1503525252538,-4, 4, 7, 8, -1, -3, -2, -26
1503525252557,1, 0, -4, 2, 3, 8, 8, 4
1503525252572,5, 11, 39, 7, -2, -4, 3, 7
1503525252594,-2, -11, -11, 1, 3, -1, -11, 5
1503525252617,-2, 0, -8, -3, -2, -5, 3, 2
1503525252632,2, 2, -2, -1, -5, -4, 12, 37
1503525252661,-11, -2, 5, 2, 8, 60, 4, 7
1503525252663,-2, -3, -1, -3, -5, -20, 8, 7
1503525252685,0, -2, 0, 1, -2, 11, 5, -4
1503525252707,-6, -5, -4, -2, -2, 4, -6, -38
1503525252715,1, -2, 1, 2, -3, -9, -12, 0
1503525252738,1, -3, 1, -2, -2, 4, 5, 38
1503525252746,0, 0, 1, 4, 23, 65, 9, 34
1503525252767,-1, -2, 2, 1, -3, 15, 1, 4
1503525252782,-2, -3, -1, -4, -11, -19, 1, -1
1503525252808,6, 5, 0, 0, -1, 10, -4, -17
1503525252827,2, -6, -2, -3, -2, -18, -9, 10
1503525252842,-2, -1, -2, -2, -3, -16, -10, 15
1503525252865,-2, -3, -4, 0, 5, -8, 12, 21
1503525252887,1, 2, 0, 1, 6, 13, -1, 2
1503525252895,-6, -10, 1, 0, -4, -11, -10, -17
1503525252903,3, -4, 0, -1, -8, -12, 1, 42
1503525252925,-5, -7, -3, -3, -7, -7, -1, 3
1503525252933,-1, -6, -2, -2, -3, -22, -11, -17
1503525252954,4, 3, 0, -1, 3, -2, 0, 0
1503525252977,-8, 2, 0, -2, -9, -1, -13, -44
1503525252992,1, 1, 0, 1, 6, 1, 1, 7
1503525253015,6, 3, -1, -5, -10, 1, 2, 13
1503525253037,3, 3, 1, 1, -3, 11, 5, 17
1503525253052,0, 0, 2, -4, -4, -4, 5, -19
1503525253075,-1, 3, -2, 4, 1, 3, 5, 3
1503525253097,-4, -5, -3, -1, 0, 1, -8, 3
1503525253112,5, 0, 1, 0, 1, 4, 5, 14
1503525253134,7, 6, 1, 4, 4, 25, -2, 9
1503525253157,-10, -5, -3, -4, -4, 3, -7, -45
1503525253179,-2, -6, 0, -1, -1, -7, 16, 19
1503525253194,1, 1, 2, -3, -10, -11, 4, 17
1503525253217,1, -1, -1, -2, -7, -2, -8, 17
1503525253240,0, 1, 2, 4, 22, 21, 3, 2
1503525253254,2, 1, 2, 2, 8, 14, -9, -1
1503525253277,-1, -3, 1, -1, 3, -33, 6, -8
1503525253299,0, -1, -5, -3, 2, 0, 1, 0
1503525253314,-3, 1, 2, -2, -14, -24, -27, -44
1503525253337,-3, 3, -2, -2, -4, 1, -4, 0
1503525253359,-6, 1, -2, -2, -5, -20, -2, 6
1503525253377,2, 9, 3, 0, -7, -2, -10, -1
1503525253397,-4, -7, -4, -4, -5, -3, -17, -8
1503525253419,2, -3, -2, 0, -1, -10, 19, 25
1503525253434,3, 0, 4, 9, 10, 20, 8, 4
1503525253450,-3, -11, -3, -3, -8, -14, -10, -11
1503525253465,-2, 1, 6, 1, 12, 49, 0, -1
1503525253487,-2, 4, -5, -8, -21, -11, -5, -5
1503525253511,-6, -7, -10, -25, -9, -7, 5, 5
1503525253525,-2, -1, 0, 4, 1, -21, -2, 0
1503525253539,0, 4, -8, -6, -8, -20, 2, 2
1503525253554,2, -7, 4, 0, 13, 24, 1, 6
1503525253578,7, 4, 1, 2, -2, -5, -4, -9
1503525253600,1, -12, -2, -6, 6, -7, -4, -7
1503525253615,-3, -1, 1, -2, 2, 30, 8, -3
1503525253637,-5, -1, -1, -4, -10, -20, 1, -7
1503525253659,-2, 1, 0, 2, 4, -4, -2, -5
1503525253674,2, 0, 1, 2, 0, 3, 7, 4
1503525253697,-2, 3, 0, 1, 2, 7, -1, -3
1503525253726,-1, 1, 1, 4, 24, 30, 0, -1
1503525253734,0, 0, -2, 0, -5, -5, -4, -6
1503525253757,-4, -1, 0, -1, -5, -2, -8, -3
1503525253779,1, 0, 0, -3, -5, 12, -10, -9
1503525253795,6, 1, 0, 2, 4, -13, 15, 2
1503525253817,-1, 0, -1, -2, -7, -17, -4, 2
1503525253839,-3, -1, -2, -2, -8, 4, -10, -4
1503525253856,2, -1, -3, -4, -4, -23, -2, 7
1503525253880,0, -2, 0, 1, -1, 8, 7, -4
1503525253899,-5, -3, -2, 2, 7, 5, 1, -3
1503525253914,-2, -4, -2, -2, -6, -11, 12, 0
1503525253946,0, 4, 0, -1, 5, 0, -10, -6
1503525253959,-2, -2, -3, -1, -5, -8, 1, 29
1503525253974,-3, -3, -1, -2, -10, -14, -10, -17
1503525253997,-2, -3, -1, -4, -3, -8, 21, 6
1503525254019,-4, -2, -2, -4, -7, -6, -3, 2
1503525254034,-1, 0, -1, 1, 4, 21, -12, -10
1503525254057,2, 1, 1, 4, 25, 13, 22, -3
1503525254081,2, -1, 1, 0, -9, 7, -14, -5
1503525254101,5, 1, -1, -1, -3, -21, -1, -15
1503525254117,-5, -3, -4, -1, -4, -6, -7, 1
1503525254139,-1, -2, 1, -1, 1, 1, -7, 5
1503525254161,-2, -1, 1, 3, 5, 15, -5, -3
1503525254177,0, 0, -1, -5, -16, -23, -7, 15
1503525254199,-4, -4, -1, -3, -3, 5, -1, -7
1503525254222,-2, 0, -1, -5, -3, 1, -1, 7
1503525254237,-1, -2, -1, 0, 0, -4, 3, -3
1503525254259,8, 0, -1, 1, 2, 6, 0, -4
1503525254282,-1, -1, -3, -5, -1, -10, -4, -12
1503525254297,-1, -1, 1, 3, 10, 26, 1, 0
1503525254319,-5, -2, -3, -6, -6, -20, -3, 9
1503525254341,0, 0, -1, 1, -3, -14, -2, -3
1503525254358,-6, 0, 0, 0, -3, -7, -7, -25
1503525254379,-3, -2, -3, 0, 0, 10, 1, -35
1503525254401,-2, 1, -2, 0, -5, -45, -9, -7
1503525254417,-5, -4, 3, 6, 4, 4, 6, 6
1503525254439,-5, -3, -3, -4, -10, -8, -20, -3
1503525254461,5, 1, -1, 0, 3, 14, 8, 11
1503525254477,-2, -2, 1, 0, 8, 17, 7, 13
1503525254499,-1, 2, 1, 3, 19, 61, 0, -15
1503525254522,-1, 0, 0, -2, -8, -21, -5, 23
1503525254537,2, 0, 1, 1, -1, -7, 9, -2
1503525254559,-1, 1, 3, 6, -4, -2, 0, -4
1503525254581,3, 0, -1, -3, -1, -17, 5, 0
1503525254597,0, -4, -1, 0, 0, 14, -2, 19
1503525254619,-1, -1, 0, 4, -1, -10, -1, -2
1503525254641,-3, -2, -5, -15, 0, 16, 0, 2
1503525254657,3, 1, -5, -3, -2, -3, 0, 0
1503525254680,-1, 0, 2, 5, -1, -3, 1, 6
1503525254701,4, -3, -3, -5, -8, 7, 2, 2
1503525254721,-3, 2, 4, 2, -4, -22, -4, -7
1503525254739,0, -2, -8, -6, 4, 11, 7, -1
1503525254761,1, 1, 2, 3, 2, -9, -4, -5
1503525254777,1, 1, -3, 2, 3, -2, -1, -4
1503525254799,-4, -2, 3, 2, -2, -6, -3, 0
1503525254823,0, 3, 5, 20, 10, 21, 3, -1
1503525254844,-6, -6, -9, -16, -7, 10, -4, -3
1503525254859,-5, -3, -2, -6, 4, -1, -3, -7
1503525254881,2, 1, 0, -3, -5, -3, -3, 19
1503525254897,0, 1, 1, -4, -14, -42, -4, -8
1503525254921,-1, -1, 1, -2, -5, -8, -3, 16
1503525254941,-1, 0, -3, -7, -9, -3, -4, -10
1503525254957,-3, -5, -3, -1, -1, 6, 6, -4
1503525254980,-1, 0, 3, 4, 0, -18, 1, -2
1503525255001,4, 1, -1, 2, 2, 14, 1, 0
1503525255024,-1, 1, 7, 20, 6, 5, 6, -9
1503525255039,-1, -2, -5, -10, -3, -23, -7, -7
1503525255061,-3, -1, -3, -6, -4, -3, -13, -10
1503525255084,-2, -2, -1, -1, 3, -2, 3, -9
1503525255099,2, 0, -2, -5, -3, 2, -1, 1
1503525255122,-3, -1, -3, -5, -1, 24, 4, -6
1503525255144,3, -2, 1, -1, 8, 4, -2, 5
1503525255159,0, -1, 0, -1, -3, 3, 4, 1
1503525255181,2, 1, -1, -1, 12, 16, 5, 7
1503525255204,-3, 0, -1, 2, -3, 6, 0, 0
1503525255212,-1, -3, -3, 0, -3, -1, 2, 2
1503525255234,-3, -1, -2, -5, 11, -8, 4, 28
1503525255250,-1, -3, -3, -2, 6, 19, -3, -14
1503525255272,1, 1, -2, -2, 0, 2, 0, 0
1503525255294,-1, 0, -1, -1, -5, -5, -2, -7
1503525255309,-5, -1, -4, -2, -6, -6, -2, -13
1503525255332,1, -3, -1, -3, -3, -1, 3, -3
1503525255356,0, 1, 4, 6, -5, -8, 4, 3
1503525255369,-1, 3, 7, 0, 2, -21, -10, 1
1503525255392,1, -3, -5, 1, -6, -6, -3, -2
1503525255400,-2, 1, 4, 6, -8, -12, -3, -29
1503525255424,2, -4, -2, -6, -1, 4, -7, 2
1503525255443,-4, -2, -1, 0, 1, -11, -6, 8
1503525255459,-2, -2, 3, 2, -10, -20, 1, -1
1503525255481,-4, 0, -5, -5, 4, 7, 4, 3
1503525255503,0, 1, 2, 4, 4, 5, 6, 15
1503525255519,-2, 1, -1, 0, -4, -9, -4, -4
1503525255541,1, -2, 0, 2, 15, 2, -1, 1
1503525255563,-4, -1, -2, -3, -5, -4, -9, -2
1503525255579,-1, 0, 3, 5, 8, 14, 2, 0
1503525255601,-7, -9, -5, -6, -3, 18, 7, -3
1503525255625,3, 3, 2, -1, 2, -1, 3, 3
1503525255639,3, 0, -9, -13, -5, -2, -1, 5
1503525255661,3, -2, 0, -1, 4, 4, -6, -2
1503525255683,-1, -1, -2, 3, 12, 23, 3, -3
1503525255700,0, 2, 0, 2, -9, -13, 1, -1
1503525255721,1, -3, -6, -7, -2, -1, 3, 3
1503525255744,3, 1, 5, 4, -4, -4, 4, 1
1503525255761,-7, -2, -1, -2, -4, 1, -1, -6
1503525255781,0, 1, 1, -1, -6, -11, 2, 2
1503525255811,0, -1, 4, 2, 1, 2, -11, -8
1503525255819,1, 2, 8, 1, -1, 0, -1, 5
1503525255842,-1, 1, -2, -1, -5, -4, -3, 2
1503525255865,-4, -2, -2, 1, -11, -6, -3, 1
1503525255887,4, 1, -3, 0, 3, -7, -3, -3
1503525255909,6, 0, -2, -4, 0, -3, -3, -3
1503525255927,-6, -2, -7, -4, 2, 0, 3, 6
1503525255947,0, 0, 0, 2, 4, 7, 5, 2
1503525255962,-4, -2, 2, 2, 18, 30, 31, -3
1503525255985,0, 1, 0, -2, -3, -7, -6, -1
1503525256007,0, 0, 8, 16, -5, -6, -5, 1
1503525256022,-7, -1, -6, -5, -4, -4, -7, -1
1503525256045,-2, -1, -2, 1, -3, -8, -10, -15
1503525256078,-13, -25, 1, 0, 0, 6, 13, -10
1503525256097,0, 3, -1, -2, -5, -6, -6, 0
1503525256112,1, 1, -2, 1, -1, 1, -3, -1
1503525256137,-2, 3, 1, -1, -1, -4, 0, -2
1503525256157,3, 2, -3, -3, -1, -1, -3, -2
1503525256172,1, 11, -4, 0, -2, -1, -1, 2
1503525256196,0, -6, -4, -3, 0, -2, -1, -6
1503525256217,-1, 0, 3, 2, -1, -4, 1, -4
1503525256232,0, 4, 3, -5, 0, 2, -5, 2
1503525256254,3, -2, -4, -1, 2, -1, 0, 3
1503525256277,-2, 5, 3, 4, 1, -2, -9, -32
1503525256292,-3, -4, 0, 1, 2, 19, 10, 12
1503525256314,1, -4, -1, -4, -11, -28, -9, -9
1503525256337,2, 1, -2, 0, -3, 12, 7, 21
1503525256352,-3, -2, -4, 0, 3, 1, -3, -1
1503525256374,-2, 11, -7, -5, 3, 0, 1, -7
1503525256397,4, -5, 2, 2, 1, -4, 0, 9
1503525256412,-8, -4, 4, 2, 12, 6, -6, -19
1503525256434,1, 3, 2, -3, -3, -15, -8, -2
1503525256457,0, -5, 8, 8, -2, 0, -1, 3
1503525256473,-6, -20, -8, -7, -4, -2, -2, 2
1503525256494,12, 0, 0, 12, 0, 0, 2, 1
1503525256516,3, 2, 0, 1, -2, 5, 13, 66
1503525256534,-2, 4, -1, -7, 2, 7, -7, -15
1503525256554,-4, -13, -6, -7, 2, 0, 0, -14
1503525256577,1, 1, 11, 9, 1, -6, -2, -5
1503525256592,-5, -2, -2, -4, -1, 0, 0, -10
1503525256614,-3, 3, 1, -4, -4, 0, -2, -27
1503525256637,-3, -6, 3, 2, 0, -1, -6, -2
1503525256648,0, 4, 3, 8, 25, 51, 3, -4
1503525256667,-4, 1, 2, -2, -8, -14, -5, 4
1503525256682,-2, 2, -1, -2, -8, -5, -3, -5
1503525256706,1, 0, 1, -1, -3, -9, -4, 1
1503525256727,6, 3, 1, 1, -6, 9, 0, 2
1503525256756,-4, -2, -2, -3, -10, 1, -5, -9
1503525256769,-1, 3, -3, -7, -13, -27, 7, 7
1503525256787,4, 4, -10, -17, 7, 4, -4, -4
1503525256810,4, 8, -1, -2, 4, -3, 2, 3
1503525256825,-2, -5, -6, -3, -2, -12, -3, -9
1503525256847,-8, -4, 1, 0, -13, -48, -5, -1
1503525256871,0, -3, 0, 4, 6, -4, -2, -2
1503525256885,0, -4, 3, 3, -2, 2, 3, 6
1503525256907,-1, -2, -4, -5, 3, 14, 10, 11
1503525256929,11, -3, 5, 5, 6, 10, 6, 27
1503525256945,-3, -2, -5, 1, -3, -11, -6, -14
1503525256968,-4, 2, -6, 1, 5, 4, -1, -14
1503525256989,-1, -2, -8, 12, -2, -2, -4, -1
1503525257005,1, -5, -5, -6, -1, 7, -5, -3
1503525257028,-3, 2, 10, 4, 0, 4, -13, -11
1503525257049,-6, 2, 2, -4, 3, 7, 2, -1
1503525257065,1, -2, 4, -3, -2, 2, -5, -2
1503525257087,1, -1, 2, -1, 3, -4, 1, 0
1503525257110,-1, 0, 0, -1, 4, 50, 19, 0
1503525257125,0, 0, 0, -2, -9, -26, 2, 4
1503525257147,6, -2, 1, 0, 1, -2, 4, 10
1503525257171,-1, -2, -3, -5, -13, -22, -14, 0
1503525257185,-1, 0, -1, 2, 2, -10, 1, 4
1503525257207,-3, -2, -1, -1, -6, -1, -5, -5
1503525257229,-2, -1, -2, -1, 2, -2, 9, -10
1503525257245,0, 0, 1, -2, -2, -1, -6, -5
1503525257277,-1, -1, 3, 2, 6, -9, 18, 5
1503525257289,2, 2, -2, -1, 5, 11, 5, 15
1503525257305,-1, -2, -2, 1, -3, -1, -6, 6
1503525257327,-2, 0, 7, 0, -1, 6, -5, -8
1503525257349,-2, -2, -5, -4, -1, -6, -2, 7
1503525257357,0, 7, -3, -3, -3, -17, 1, -16
1503525257380,-14, -14, -3, -1, 2, 8, 10, 43
1503525257394,3, 3, -1, -2, -4, 22, -1, -12
1503525257417,4, 2, 2, 0, -5, -16, -19, -8
1503525257440,-4, 23, 1, -8, 2, -1, 1, -6
1503525257454,3, -15, -2, 0, 2, -3, -5, -5
1503525257478,2, -1, 4, 0, -4, -1, -4, 2
1503525257499,1, 0, 4, 10, 6, 4, -10, -1
1503525257514,-4, -3, -6, -4, -12, -15, 3, 1
1503525257547,4, 0, -2, -2, 6, 2, 6, 2
1503525257559,5, 4, -1, -3, -1, -1, 2, -2
1503525257574,-2, -2, -1, -1, 0, 4, 6, 4
1503525257596,-2, 1, 2, 0, -10, -23, 0, 0
1503525257605,0, 2, -7, -12, -5, -10, 0, 0
1503525257627,3, 18, 5, 8, 5, 2, 0, -4
1503525257649,-2, -2, 6, -12, -3, -18, -3, -2
1503525257665,3, 1, -4, -1, -4, -14, 9, -2
1503525257687,-2, -3, 1, 2, -1, -9, -4, -8
1503525257711,-4, 0, 1, 6, -6, -24, -9, -9
1503525257725,-1, -4, 0, -1, -4, -14, -12, -8
1503525257749,-1, -3, -5, -5, -4, 19, -1, 14
1503525257770,0, -3, -1, -4, 1, -3, 4, -11
1503525257792,0, 1, 1, 3, 17, 24, 1, -4
1503525257816,-2, -8, -5, -11, -7, 4, -6, 2
1503525257830,1, 2, 1, 7, 6, 15, -2, 5
1503525257852,2, -1, -2, 0, 0, 26, -13, -10
1503525257867,0, -2, -7, 2, -2, 13, 5, -1
1503525257890,-2, 3, 1, 4, -2, -2, 2, -5
1503525257912,-2, -2, 0, 0, 10, -3, 6, -1
1503525257927,2, 2, -1, -1, -8, -2, -3, -10
1503525257950,-1, -3, 4, 9, 26, -1, 11, 2
1503525257972,1, -1, -1, -7, -15, -23, -25, -2
1503525257980,3, 0, -1, 0, -3, 4, 11, 30
1503525258009,-2, -1, -3, -1, 3, 9, -12, 1
1503525258017,-2, -3, 0, -5, -8, -8, 16, -11
1503525258039,-2, -1, -1, 1, -1, 3, -10, -13
1503525258062,-3, -3, -2, 1, -7, -10, 9, 30
1503525258077,0, 2, 1, 4, 8, 32, -17, -42
1503525258099,6, 3, 2, -2, -6, -12, 5, -2
1503525258122,-8, -3, -1, 2, -3, 4, -19, -24
1503525258130,3, 0, -2, -3, 8, 20, -10, 33
1503525258152,0, 1, -4, -3, -10, -27, -5, -2
1503525258167,0, 1, 3, 2, 3, -11, 2, 9
1503525258189,2, -1, 0, -3, 0, -5, -2, 13
1503525258196,-6, -1, -4, -3, 2, 18, 11, 2
1503525258219,7, 0, 1, 3, 11, 3, -8, 4
1503525258244,9, -1, -3, -3, -6, -4, 26, 9
1503525258257,-2, -4, -4, -4, -20, -24, 5, -13
1503525258272,2, -1, 3, 7, -6, -18, -1, -1
1503525258287,-2, -2, -2, -2, 0, 10, -10, 16
1503525258302,6, 1, -1, -2, 5, 47, 13, 4
1503525258317,-10, -2, 1, -1, -6, -27, -26, 12
1503525258339,4, 3, 2, 4, 5, -10, -10, -29
1503525258362,2, -1, -1, 0, 0, 1, 0, 4
1503525258378,-8, -1, 1, -3, -5, -4, -14, 6
1503525258391,-1, -1, -3, -3, 5, 5, -1, 25
1503525258407,-9, -2, 3, 3, -9, -13, 12, -1
1503525258430,-1, 1, 4, 4, 1, -7, -5, -20
1503525258437,-3, 2, -1, -3, -10, -30, -11, -31
1503525258459,-7, -3, -3, -5, -3, -16, -18, -10
1503525258484,-1, 0, 0, 2, -3, -12, 0, 16
1503525258496,2, 3, 3, 10, 33, 81, 0, 15
1503525258520,0, -2, -2, -5, -15, -32, -8, 10
1503525258541,5, 1, -1, -3, 3, 27, -1, -7
1503525258550,-15, -5, -5, -5, -7, -9, 6, 70
1503525258571,-9, -4, -2, -2, -16, -45, -25, -82
1503525258587,-9, -5, -3, -4, -2, -7, -2, -27
1503525258610,2, -2, 0, -1, -1, 0, 0, 24
1503525258632,-17, -1, 0, 0, 2, 10, -4, 5
1503525258649,3, -5, 6, -6, 1, 34, 13, 37
1503525258662,-4, -3, -4, -1, -2, 12, 5, -3
1503525258677,-10, -2, -3, -1, -3, -9, -3, -7
1503525258699,-7, 2, 1, 3, 3, 10, 7, -7
1503525258722,0, 14, 1, 9, -2, 7, -3, -8
1503525258743,-7, -10, -8, -10, 2, 30, 11, -12
1503525258759,-2, 0, 1, -3, -5, -10, 1, 0
1503525258783,-6, -4, -2, -7, 10, 15, 2, 3
1503525258803,-2, 1, 4, 16, 2, -6, -2, -28
1503525258819,3, -1, 0, 1, -13, -27, -4, 52
1503525258841,-5, -2, -4, -8, -6, -18, 5, -77
1503525258863,2, -3, 0, -3, 0, -2, -2, 33
1503525258881,3, 2, 2, 1, 0, 7, 13, 14
1503525258901,1, 1, 4, -1, 0, 9, -9, -6
1503525258924,-1, 0, 0, 3, 5, 30, 7, 23
1503525258939,3, -2, -1, 2, 20, 22, 15, -8
1503525258962,-5, -3, -3, -3, -3, -14, -7, -7
1503525258987,1, -2, -1, -3, -4, -5, -9, -10
1503525258999,1, -1, 0, -2, -17, -19, 20, 22
1503525259022,-6, -4, -2, 2, -4, -22, -13, -8
1503525259043,-2, -2, -4, -5, -6, -13, -6, -4
1503525259068,-3, 0, -2, 2, 2, 1, -4, 1
1503525259089,3, 1, -1, -4, -3, 9, 9, -8
1503525259103,-1, 0, 3, 6, 15, 36, -21, -2
1503525259112,0, 0, -1, -2, -13, -12, 1, 110
1503525259134,-5, -1, -4, -3, -12, -4, 0, -66
1503525259153,-10, -3, 0, -1, -6, -8, -5, -16
1503525259164,3, 1, 2, 1, 0, 14, -4, -5
1503525259179,-7, -2, 2, 5, 14, 24, -10, -6
1503525259201,0, -1, -2, -4, -16, -17, 8, 7
1503525259224,0, -2, -1, -6, -13, -37, -3, 10
1503525259239,-1, 2, 0, 3, 19, 14, 11, 3
1503525259255,2, -2, 2, -3, -2, 5, -1, -4
1503525259269,0, -1, -1, 1, 17, 21, 3, -6
1503525259293,-1, 0, -1, 0, -1, -18, -5, 23
1503525259315,-2, 1, 1, 0, -5, -21, -4, 8
1503525259322,3, -1, -1, 0, -2, -6, 0, -9
1503525259343,-5, -2, -1, -3, -17, 1, -1, -19
1503525259359,4, 2, 1, 2, 3, -7, 2, 0
1503525259383,1, -2, 0, 3, 5, 4, -2, 5
1503525259403,-2, -1, -2, -6, -14, -14, -7, 5
1503525259419,-2, -2, -2, -2, -5, -1, -5, 39
1503525259441,1, -1, 0, 1, 3, -5, 6, -23
1503525259471,2, 1, 0, 2, 6, 0, 7, -4
1503525259479,3, 2, -1, -1, 0, 7, 3, -2
1503525259501,-1, -2, -3, -2, 0, 0, 1, 3
1503525259525,-1, 0, -1, 1, -2, -2, 0, -10
1503525259539,-2, -4, -3, -1, 6, 1, 5, 2
1503525259562,-12, -3, -6, -12, 7, 0, -3, -4
1503525259587,-2, 0, -11, 4, -1, -16, -4, 6
1503525259599,-1, 2, 10, 15, 0, -15, -6, -15
1503525259622,-2, -4, -6, -11, -2, 16, -8, -2
1503525259643,4, 0, 2, 0, 0, -10, 6, -3
1503525259659,6, 2, 10, 7, -3, -4, 1, 2
1503525259682,-6, -9, -17, -24, -6, 8, 0, -2
1503525259703,5, 2, 11, 14, -1, 4, -1, 0
1503525259712,-4, -3, -4, -7, 0, 1, -4, -3
1503525259734,-1, 1, -4, -6, 9, 1, -14, 2
1503525259757,-6, 5, 15, 8, -3, -5, 1, -8
1503525259771,1, 1, 2, -1, -7, -4, -3, -2
1503525259795,3, 1, -9, -6, -4, -3, 2, 2
1503525259816,1, 3, -1, 4, 41, 41, -13, -1
1503525259825,-14, -17, -7, -9, -7, -19, -3, -2
1503525259846,-10, -1, -9, -7, -1, -4, 0, -4
1503525259862,5, 1, 0, 2, 6, 4, 1, 4
1503525259883,1, 2, -5, -4, 1, 0, -5, 3
1503525259906,-4, 0, -1, 3, 1, -3, 2, 0
1503525259923,4, 1, -2, -2, -3, -8, -5, 0
1503525259943,0, 0, -1, 1, 1, -2, 3, -3
1503525259966,6, 2, -7, -15, 3, 5, 3, 1
1503525259981,-10, -6, 5, 10, 1, -1, -1, 3
1503525260003,-2, -5, -5, 2, 19, 16, 2, 16
1503525260028,-1, -3, -11, -12, -11, -53, -5, -4
1503525260034,3, 0, 4, 3, 10, 4, 1, 1
1503525260057,11, -3, -8, 3, 43, 58, 0, 4
1503525260072,-3, 2, 1, -1, -9, -6, -2, -2
1503525260095,-2, -5, -4, -9, -26, -10, 1, 2
1503525260117,-6, -3, 1, -1, -1, -5, 5, 17
1503525260132,3, 15, 7, 3, -1, -17, -5, -19
1503525260156,2, -3, -7, -9, -3, 12, -1, 2
1503525260162,1, -4, 5, -4, -18, -30, -3, -1
1503525260183,-3, -3, -2, -4, -5, -10, 5, 15
1503525260207,8, 1, -3, -4, -9, -7, 22, 36
1503525260224,-5, 10, 5, -2, 4, 3, -10, -11
1503525260243,1, -5, -1, 2, 14, 16, 0, -8
1503525260266,-2, 1, 5, 2, -9, 38, 2, -1
1503525260281,-5, -5, -11, -9, -10, -22, -10, -6
1503525260303,11, 1, -1, 1, 4, 0, -10, -12
1503525260327,1, 12, 7, 4, 8, 0, 4, -5
1503525260348,-4, -11, -1, 0, -6, -18, 0, -6
1503525260372,-7, -3, -3, -5, -2, -21, -7, 2
1503525260386,6, 1, -1, -2, -10, -18, -7, -15
1503525260402,2, 15, 2, 0, 3, 9, -4, -8
1503525260426,2, -2, 11, 19, -4, -1, -4, 0
1503525260446,-2, -5, -8, -13, 17, 54, 15, 25
1503525260463,-3, -5, 0, 0, 0, -12, 5, 8
1503525260483,-12, 1, 2, 15, 1, -11, -5, -9
1503525260506,-5, -4, -4, 4, -3, -3, 0, -2
1503525260521,8, -2, -4, -3, 22, 25, 3, -4
1503525260543,-3, -2, 1, -7, 2, 4, -3, -3
1503525260566,0, -2, 0, -2, -6, -6, -4, -10
1503525260582,-9, -13, 1, -1, -6, -10, -8, -20
1503525260603,-3, -2, -3, -5, -11, -14, -1, 11
1503525260627,0, -4, -2, 0, -7, 0, 0, 7
1503525260649,6, 4, -4, -9, -6, -3, -2, 7
1503525260664,10, 1, -3, 2, 6, 1, 26, 89
1503525260686,-4, 5, 3, 6, -5, -4, -11, -30
1503525260709,5, 2, 3, 6, 35, -2, 2, -19
1503525260723,-2, -1, -2, -8, -8, -3, -8, -13
1503525260746,-1, 0, 3, 4, 4, -3, 4, 2
1503525260755,-3, -4, 1, 1, -5, 5, 2, 10
1503525260776,-3, -1, -7, -11, 16, 2, 0, 3
1503525260784,2, -2, -4, -4, 21, 37, -4, -1
1503525260806,-6, -4, -7, -20, -17, -13, 0, -7
1503525260829,-3, 0, -21, -10, -4, 0, 3, -18
1503525260843,-2, -8, -22, -32, -10, -2, -8, -8
1503525260866,-11, -7, 0, -7, -7, -5, 39, 7
1503525260889,3, 18, 9, -2, 0, -1, -4, -11
1503525260904,-6, -12, -11, 2, 13, 5, 2, -6
1503525260932,0, 3, 4, 7, -17, -21, -14, 7
1503525260948,-3, 2, 2, 5, -3, 12, -2, -7
1503525260956,-1, 18, 7, 10, -6, 0, 5, -15
1503525260979,-1, 7, 13, 11, -3, -9, 15, 2
1503525260996,0, -4, 1, 9, 3, -11, -5, 2
1503525261016,-2, -18, -8, -7, -4, -9, -2, 22
1503525261039,2, -5, -3, -3, -2, -10, -10, -7
1503525261054,4, -1, -5, -8, 0, -4, 15, 13
1503525261076,-2, 0, 4, 12, -4, -1, -7, -16
1503525261099,-8, -18, -9, -13, -22, 13, -8, -33
1503525261114,2, 1, -1, -5, -5, -8, 9, -5
1503525261138,-5, -6, -8, -19, 1, -27, -21, -8
1503525261159,2, 0, -2, 1, 14, 23, 13, 25
1503525261174,4, 3, 2, 3, -1, -13, 3, 6
1503525261197,8, 4, -1, 2, 19, 15, 0, -4
1503525261219,2, 4, -1, -3, -8, -4, 12, 31
1503525261241,-5, 0, 6, 18, -6, -19, 11, -12
1503525261256,3, 19, 13, 22, 8, -1, -3, -9
1503525261279,-4, -9, -15, -26, -10, -10, -5, 6
1503525261294,0, -3, -5, -10, 14, 40, 6, -6
1503525261310,0, -3, 3, 4, 9, 41, -4, 9
1503525261333,-1, -4, -4, -1, -1, -12, 7, -1
1503525261347,-2, 0, 2, 3, -5, -7, -1, -1
1503525261369,-2, 1, -5, -9, 6, 10, -7, 3
1503525261377,-9, -4, 0, 2, 11, -3, -10, 4
1503525261400,0, -4, -5, -10, -6, 22, 4, -9
1503525261414,-6, -2, 4, 6, 7, 8, -11, -21
1503525261436,-6, -6, -2, -3, -1, -4, -20, -33
1503525261459,4, 0, -1, 0, 11, 29, 8, 2
1503525261475,6, -2, 0, -3, -14, -25, -3, 34
1503525261499,4, -3, -6, -14, -6, -25, 23, 25
1503525261520,4, -1, -1, -3, 7, 21, 12, 10
1503525261541,3, 14, 9, 15, 4, 42, 19, 13
1503525261558,-2, -4, -2, 0, -8, -34, -10, -16
1503525261579,-7, -5, -1, -6, -8, -14, -48, -33
1503525261602,-2, -3, -6, -5, -11, -30, -12, -9
1503525261616,-1, -1, 0, 3, -8, -15, -8, 6
1503525261640,0, 6, -1, -5, -2, 5, 8, 10
1503525261661,-7, -5, -1, 2, -6, 6, 9, 4
1503525261677,0, -2, -2, -4, -6, -25, 15, 18
1503525261701,1, -1, 0, 2, 9, 5, -7, -11
1503525261722,0, -5, -5, -4, 0, 12, 25, 46
1503525261737,-5, -4, 1, 1, -8, -8, -27, 4
1503525261759,-1, 1, 0, 2, 3, -27, -18, -3
1503525261781,-5, -2, 0, 2, 15, 51, 6, 4
1503525261796,11, -2, -2, -2, 3, 14, 34, -17
1503525261819,-10, -3, 0, -1, -12, -2, 3, -72
1503525261842,2, -3, -3, -5, -8, -17, 18, -8
1503525261856,1, 0, -1, -5, -7, -9, 2, 17
1503525261879,4, 2, 2, 5, 19, 20, 27, -30
1503525261902,-8, -1, 2, 0, 4, -15, -2, 55
1503525261917,11, 3, -2, -2, -2, 1, -17, 10
1503525261939,0, -1, -1, -2, 5, -12, -6, -26
1503525261961,-2, 0, -1, -3, -8, 0, -12, 13
1503525261977,-2, -2, -3, -5, -15, -32, -40, -8
1503525261999,2, -2, -3, 0, -2, 0, 2, 19
1503525262008,-3, -3, -3, -3, -1, 9, -9, 14
1503525262029,3, 0, 2, 1, -6, -11, 2, -33
1503525262052,1, 1, -2, -1, -4, 11, -5, -10
1503525262070,-6, -2, -2, -3, 1, 6, 3, -28
1503525262089,4, -2, 0, 4, 12, 21, 4, 8
1503525262113,1, -2, -4, -2, 1, -17, -4, 15
1503525262127,-8, 0, -1, 0, 2, 9, -4, -6
1503525262149,0, 3, -1, -4, -14, -19, -1, -23
1503525262174,3, 1, -4, -2, -1, 40, 4, 8
1503525262187,2, 1, 5, 7, -3, -21, -11, -1
1503525262209,-8, -5, -4, -4, -4, -25, -19, 13
1503525262232,0, 1, 3, 13, 2, -5, -17, 29
1503525262254,0, -12, -3, -4, -7, 1, 8, -10
1503525262273,12, 14, 22, 42, 5, -8, 10, -10
1503525262277,-3, -2, -5, -3, -3, -14, -18, 0
1503525262299,3, 3, 11, 14, 7, 2, -3, -15
1503525262322,0, 0, -10, -23, -3, -9, -7, 13
1503525262339,3, 1, 1, 5, -1, 7, -2, -10
1503525262359,1, 6, 6, 9, 0, -5, 5, -41
1503525262382,-4, -9, -2, -2, 2, 3, 3, 66
1503525262398,-2, 1, 1, 7, -7, -15, -7, 17
1503525262419,-1, -4, -5, -12, 0, 1, -10, 32
1503525262442,0, 3, -2, -7, 14, 23, 6, -44
1503525262450,0, 1, 2, 7, 3, -19, -3, -22
1503525262473,1, 12, -5, -6, 4, 10, 11, 15
1503525262479,1, -2, -1, -4, -5, 6, 5, -11
1503525262501,1, 2, -2, -8, -5, -10, 4, -14
1503525262524,-1, -3, -4, -7, -6, -20, -18, -19
1503525262544,-1, 2, -2, 1, 2, 5, 8, -23
1503525262561,-2, 2, 3, 1, -6, -1, 2, 3
1503525262584,1, 2, 0, 4, 12, 19, -4, 4
1503525262599,1, 2, -1, -1, 2, 6, 3, 6
1503525262621,0, -1, 0, -4, -2, 6, -20, 12
1503525262649,-1, -1, 0, -3, -2, -7, 6, 96
1503525262659,-4, -1, -3, -4, -12, -14, -16, -65
1503525262684,-1, -2, -2, -1, -4, -12, 10, 5
1503525262704,-3, 0, 1, 1, -3, 15, 3, -18
1503525262719,0, -2, -2, -2, -8, -15, 5, -11
1503525262742,0, -1, -5, -4, 3, 3, 2, -9
1503525262764,-1, 0, 0, 0, 0, -4, 5, -2
1503525262779,2, 1, 3, 2, 2, -3, -4, 0
1503525262801,1, 1, 2, 4, 9, 17, -12, -13
1503525262824,-1, -4, -3, -2, 2, 1, 21, 2
1503525262839,-2, -3, -4, -6, -4, -10, -1, 0
1503525262861,0, -2, -4, -8, -1, 8, 17, 1
1503525262884,0, 0, 0, 1, 2, 5, 40, 5
1503525262900,0, 1, -3, -3, -4, -12, -19, -2
1503525262922,-3, -1, 1, 4, -7, 12, -9, -1
1503525262945,0, -2, -1, -2, -1, -9, -5, -1
1503525262959,-1, -1, 1, 1, -4, -11, -10, -5
1503525262981,1, -1, 0, 5, 0, -7, 2, 13
1503525263004,0, -3, -3, -8, -19, -24, -5, 12
1503525263019,-5, -1, 1, -1, -2, -10, 8, -12
1503525263044,0, 0, -1, 0, 2, 4, -4, -2
1503525263064,-2, 0, 0, 0, 11, 21, -11, -2
1503525263080,-4, -1, 1, 2, 3, 2, -3, -5
1503525263101,-1, -1, -2, -2, 4, -2, -14, -6
1503525263124,4, 1, -1, 2, 5, 2, 8, 3
1503525263139,-1, 0, 1, -1, -2, 12, -2, -3
1503525263161,-3, -3, -1, 0, -7, -11, 5, -12
1503525263185,0, 1, -1, 0, -1, 1, 13, 1
1503525263199,-2, -1, -1, 2, 2, -4, -11, -10
1503525263221,-1, 1, 1, 2, 1, 0, -2, 6
1503525263246,3, 2, -2, -5, -1, -6, -9, 3
1503525263259,-2, -3, -1, -4, 0, -2, 2, 7
1503525263282,0, -2, -1, -1, 5, 9, 6, -10
1503525263304,0, 0, 2, 2, 0, -5, 2, 8
1503525263320,0, 1, -2, -1, -1, 0, -5, -5
1503525263341,3, 1, 1, -1, -1, -3, -6, -3
1503525263364,1, -3, -1, 1, 5, 7, 1, 5
1503525263385,-8, -1, -2, -5, -9, -1, -7, -4
1503525263394,1, -2, 4, 7, -2, -3, -7, -4
1503525263417,4, 24, -9, 2, 1, 0, 7, 15
1503525263432,-4, -12, -2, -6, -1, -3, -10, -6
1503525263455,0, -4, 2, 0, -1, 1, -3, 1
1503525263476,8, -2, 1, -3, 1, 0, -4, -1
1503525263492,-3, -16, 0, -3, 1, -1, -24, 2
1503525263514,-7, -12, -3, -4, 0, -8, 4, -8
1503525263536,-7, 4, -1, -1, -2, 10, -2, -1
1503525263546,1, 19, 5, -2, -3, -3, -4, 2
1503525263566,-2, 10, 0, 0, 3, 4, 18, 5
1503525263582,2, -5, -3, -3, -3, 1, 0, -4
1503525263604,-1, -15, -2, -3, -2, -4, 3, -3
1503525263626,-18, -17, -4, -2, 1, -1, -18, -9
1503525263641,-3, 5, -6, -2, 1, 6, 14, 11
1503525263664,7, 1, 4, -2, -2, -8, -18, -5
1503525263686,-1, 2, -5, -5, -3, -6, -15, 6
1503525263701,1, 2, -1, 1, -2, 1, -6, 1
1503525263717,9, 20, -4, -1, 0, 1, -2, -5
1503525263732,5, -4, -2, -1, -3, -3, 5, 8
1503525263755,-8, 2, -6, -3, -3, -5, -8, 19
1503525263776,-2, -7, -4, -2, 0, 6, 2, -5
1503525263792,3, -2, -1, -1, -2, -6, 2, 9
1503525263816,17, -6, -5, -3, -1, 0, -5, 10
1503525263836,-7, -6, 1, -1, 0, 6, 9, 8
1503525263852,-3, 2, -6, -1, 0, -6, -11, -17
1503525263874,0, 2, 0, 0, 9, 10, -1, -15
1503525263896,2, -3, 2, 2, 1, -2, 4, -7
1503525263912,-9, 4, -2, 0, -3, -4, 7, -1
1503525263934,-4, -3, -1, -5, -11, -19, -10, 4
1503525263956,-8, 5, -4, -3, -12, -27, -13, -11
1503525263972,-2, -5, 0, -3, -5, 7, -3, 12
1503525263994,0, -4, 0, 2, 10, 23, -1, 4
1503525264018,-4, -2, 1, -2, -2, -10, 11, -4
1503525264032,2, 0, 0, 0, 8, 30, 13, 1
1503525264054,-3, -9, 0, 0, -4, 3, 32, -5
1503525264061,0, -1, -2, -1, 0, -9, -5, 5
1503525264077,0, -3, -2, -4, -3, -9, 2, -10
1503525264092,1, -2, 2, 4, -3, -4, 4, -14
1503525264114,-2, -6, -2, -3, -3, 0, 12, 26
1503525264136,-3, 4, 1, 0, -7, -21, -16, -15
1503525264153,-1, 10, 0, -1, -2, 2, -4, -12
1503525264174,-4, -2, -2, 0, 4, 8, 15, 17
1503525264196,-11, -23, -7, -6, -9, -16, -21, -61
1503525264213,-3, -3, -2, -4, -1, 3, 20, -19
1503525264234,0, -1, -2, 0, 3, 12, 11, 17
1503525264257,0, 0, 2, -2, -5, -13, -2, 13
1503525264272,2, -10, -2, 2, 2, -2, -12, 6
1503525264294,5, 5, 2, 3, 0, -3, 35, 14
1503525264318,0, 0, 0, 3, 14, 9, 28, -12
1503525264339,1, -1, -3, 0, -4, -4, 16, 2
1503525264354,-1, -1, -2, -2, -4, -17, -26, -16
1503525264379,1, 4, 1, -1, -4, -11, -13, -5
1503525264399,-2, 0, 0, -2, -7, -5, -21, 6
1503525264414,-1, -5, -3, 1, -1, 4, -1, 9
1503525264436,3, 1, -2, 2, -1, 12, -19, 14
1503525264459,-2, -3, -1, 0, 4, 11, 46, -3
1503525264474,-2, 2, -2, -6, -6, 4, -21, -5
1503525264496,-2, 0, -1, -1, -3, -23, -15, -2
1503525264520,5, 14, 5, 0, 2, 9, -11, 9
1503525264534,-3, -1, -3, 0, 0, 13, 14, 0
1503525264558,1, -1, 1, 0, 2, -1, -5, 2
1503525264579,-2, -18, -5, -5, -3, 13, -7, -3
1503525264596,-2, -5, -2, 0, 6, -11, 1, -4
1503525264616,-2, 1, -2, -3, -9, 6, -10, -12
1503525264639,0, 5, 4, -1, -4, -18, -9, 10
1503525264660,-2, 0, -1, -1, -1, -6, 7, -23
1503525264678,-4, -3, 0, -2, -3, -29, -38, -1
1503525264701,3, -3, 0, -1, -4, -4, -7, -14
1503525264707,-2, -3, 0, -1, -5, 1, -9, -15
1503525264730,-1, -5, -1, 2, -2, 1, -17, -7
1503525264744,3, 14, 0, -4, -6, -8, 6, 4
1503525264766,12, -5, -7, -4, -6, -6, -7, 6
1503525264791,-1, 4, 4, 5, 3, 4, 17, -1
1503525264804,-5, -5, 0, 4, -3, -4, -11, 1
1503525264826,-3, -5, 2, 0, 4, -9, 5, 2
1503525264848,1, 3, 12, 8, 0, -1, 4, 4
1503525264865,0, -1, -6, -4, -3, -5, -22, -1
1503525264886,1, -5, -1, -4, -6, -26, -9, -1
1503525264908,1, 8, 17, -10, 2, 33, 10, 4
1503525264924,0, -3, -9, -3, -4, 16, 7, 2
1503525264946,-3, -2, -6, -2, -6, -3, 6, -3
1503525264968,-3, 2, 1, 4, 0, 8, 2, 1
1503525264984,-3, -6, -4, 3, -3, -4, 2, -4
1503525265006,1, 0, -6, -4, -4, -15, -6, -1
1503525265030,-1, -3, -5, -3, 7, 12, -5, -5
1503525265044,-2, 8, 1, -9, -8, -10, -12, 1
1503525265069,3, -1, -2, 6, -2, -3, 0, 10
1503525265092,2, -1, 5, 9, 3, 8, 0, -2
1503525265111,-3, -5, -6, 7, 6, -7, -1, -3
1503525265126,-1, -3, -4, -2, -3, 4, -1, -2
1503525265135,-2, -2, 7, 13, 0, -15, -7, -2
1503525265159,-1, 0, -2, -4, 8, 10, 1, 0
1503525265179,2, 3, -2, -2, 0, 17, 2, 3
1503525265195,0, -1, 6, 17, -1, -9, 1, 1
1503525265217,-1, 0, 0, -1, 3, -2, -1, -1
1503525265239,-1, 0, -3, -7, -2, -7, -5, -2
1503525265254,-1, 1, 2, 1, -3, -5, 1, -4
1503525265276,3, 2, -1, 0, 7, 45, 4, -5
1503525265299,-6, -3, -2, -7, -7, -19, -3, -2
1503525265321,-1, -1, -4, -6, -7, -8, 4, 2
1503525265336,1, -1, 1, -3, -9, -12, -4, 0
1503525265361,3, -1, -3, -4, 7, 17, 3, 9
1503525265381,-1, -4, 0, 4, -3, -18, -2, -3
1503525265396,-2, -1, -2, -7, 0, -2, 3, -5
1503525265419,-2, -3, -2, -2, 3, -4, -6, 2
1503525265441,-3, 1, -2, 1, 0, 3, -3, 4
1503525265456,1, 0, 1, 9, 3, 28, 3, -1
1503525265478,6, 1, 1, -1, -2, -5, -5, 5
1503525265502,-4, 0, -3, -2, 2, 7, -3, -12
1503525265524,-1, -1, -2, -2, 1, -14, 1, -5
1503525265539,-3, -10, -2, -2, -6, -6, -2, 3
1503525265562,-3, -2, -2, -5, -4, -13, -9, 11
1503525265570,-2, 0, 2, 4, 5, 14, 2, -10
1503525265590,-2, 4, 2, 4, 10, 66, 6, 6
1503525265606,-3, -2, -1, 1, 1, -14, -4, -18
1503525265630,0, -2, -6, -2, -9, -28, -6, -14
1503525265651,2, 0, -2, 3, 10, 29, 5, 7
1503525265668,-1, 1, 5, -3, -9, -19, -5, -3
1503525265688,1, 0, -5, 3, 8, -4, 1, 0
1503525265711,0, 1, 10, 0, -9, -11, 2, 9
1503525265729,0, -2, -1, 5, -8, -57, -5, 5
1503525265748,0, 0, -5, -5, -1, -4, -2, -5
1503525265771,1, 0, -3, -3, 1, 7, 0, 2
1503525265786,-4, 0, -2, -3, -7, -8, -4, -6
1503525265808,0, 1, 0, 1, 6, 6, -1, -14
1503525265838,0, 0, -5, 0, 12, 49, 2, 10
1503525265846,1, -2, 3, -2, -3, -7, -1, 6
1503525265869,-1, -2, -2, -3, -15, -8, -1, -2
1503525265890,-2, -1, 2, 3, 13, 58, 0, -3
1503525265906,-3, -2, -8, -8, -5, -18, 2, -2
1503525265932,2, 2, 1, -4, 1, -7, 4, 0
1503525265937,-1, 1, 3, -6, -2, -1, -2, -2
1503525265959,7, 2, -1, -5, 9, 64, 7, 2
1503525265981,-3, 1, -1, -10, -10, -23, -3, 0
1503525265997,2, 6, 13, 30, 3, -4, 1, 2
1503525266019,-4, -2, -8, -13, -1, -1, -3, -3
1503525266041,3, 2, 0, 5, 5, -12, 5, -1
1503525266056,-2, -1, 4, 15, -4, -20, -3, -5
1503525266083,-4, -4, -1, -12, -2, 7, 0, 1
1503525266102,0, 5, -5, 2, 4, 28, 2, -2
1503525266116,-3, -5, -5, -13, -4, 30, -3, -3
1503525266140,1, -3, 0, -6, -9, -18, -5, 2
1503525266161,-3, 0, 0, -6, -2, -12, -2, -3
1503525266176,0, -1, -4, -10, 5, -1, 0, -11
1503525266199,0, -1, -4, -3, -2, -26, -1, 10
1503525266221,-1, -1, 2, 1, 8, -5, 8, -10
1503525266244,-1, 2, 1, 0, -7, 4, -5, 5
1503525266259,3, -2, -2, -3, 6, 3, -5, -37
1503525266281,-1, 0, -4, -5, -3, -7, 0, 7
1503525266304,-4, -1, 1, -3, -7, -3, -5, 22
1503525266319,1, -1, 0, 1, 2, 11, -1, 7
1503525266336,-1, 2, 0, 0, 5, 3, 0, -17
1503525266357,1, 0, 3, 5, 12, 15, 2, -4
1503525266372,0, -1, -1, -2, -4, 1, -1, -4
1503525266394,5, -2, -4, 0, -3, -6, -2, 4
1503525266417,-1, -3, 1, -4, -16, -14, -3, 0
1503525266440,-3, -3, -1, -1, -5, -17, -1, 4
1503525266461,-4, 1, -2, -2, 2, -7, 5, -5
1503525266484,-1, -3, 0, -1, -2, 0, -2, 1
1503525266500,-2, 0, 2, 2, -4, 6, -2, -1
1503525266521,0, 0, -1, -3, -9, -17, -1, -3
1503525266544,4, 3, 1, -1, 3, 7, 1, 1
1503525266559,2, 7, 0, 1, 1, 3, 19, 2
1503525266581,-2, -6, 0, 2, 8, -11, -3, -3
1503525266605,-2, -4, 1, -2, -4, -25, -20, -1
1503525266619,-3, -6, -7, -9, 0, 3, -5, -3
1503525266641,2, -3, -2, 0, 7, 7, 2, 1
1503525266664,0, -3, 0, -1, -2, 12, 8, -3
1503525266680,2, 15, -2, 2, -1, -9, 7, 2
1503525266702,-7, -5, 1, 3, -2, 14, -21, -5
1503525266724,2, 14, 6, 1, 2, 1, 7, -3
1503525266740,-3, -8, -2, -1, -2, -6, -6, -6
1503525266761,1, -5, -1, 2, -5, -9, 6, 14
1503525266784,-2, 0, -4, -4, 2, 13, 11, -18
1503525266798,1, 2, -6, -12, 0, -2, -7, -1
1503525266814,-11, -2, 1, 1, 2, 2, -7, 5
1503525266838,3, -14, -5, -7, -6, -8, -5, 4
1503525266852,0, 2, -1, -3, -9, 14, 16, 19
1503525266874,0, -2, -5, -5, -9, -6, -5, -11
1503525266897,3, 0, -3, -5, 0, -8, 3, 7
1503525266912,-1, 5, 9, 16, 5, 2, -6, -13
1503525266934,6, 6, -2, -3, 7, 14, -1, -3
1503525266957,-1, -1, -3, -7, -6, -18, -2, -6
1503525266974,-2, -1, -3, -4, -6, -2, 16, -13
1503525266995,-2, 0, -2, -1, 6, 4, -5, 4
1503525267017,-1, -2, -2, -4, -2, -2, -5, 11
1503525267032,-4, -1, 0, -3, -10, -6, -9, -3
1503525267054,-5, -2, -2, -3, -5, -12, -21, -13
1503525267080,2, 1, -1, 1, 3, 5, -15, -12
1503525267092,1, 4, 0, 1, 5, 0, 12, 3
1503525267108,0, -3, -4, -2, -1, 1, 8, 0
1503525267121,-1, 0, 2, 2, 2, 5, -5, 24
1503525267144,-1, -1, 0, -2, 4, 3, 2, -6
1503525267166,-5, -2, -3, -3, -2, 0, -10, -18
1503525267181,1, 16, 2, 3, 1, -9, -20, 7
1503525267206,0, -4, -1, -2, 0, 0, 2, -5
1503525267226,-4, -2, 0, -1, -3, 0, 2, -13
1503525267241,-5, 3, 1, 2, 3, -6, -1, -10
1503525267263,-1, 0, -1, -2, -2, -7, -1, 5
1503525267273,2, 0, 0, -1, -1, -2, 1, -14
1503525267294,-2, -1, -3, -4, -3, -5, -8, -4
1503525267317,1, -1, -1, 0, -3, -4, 1, 19
1503525267332,2, 0, 2, 0, -2, -2, 2, 31
1503525267354,-1, -2, 0, 1, 4, 5, 8, -7
1503525267379,1, -1, -2, -2, -6, -6, -5, -17
1503525267392,1, 4, 0, -2, -2, 3, -3, 2
1503525267415,-2, -2, -2, -1, -4, 41, 6, 13
1503525267437,-3, -1, 0, -1, 1, -5, -2, -12
1503525267452,7, -2, -2, 1, 5, -4, 8, 15
1503525267474,1, 1, 1, -1, -2, -3, -3, -9
1503525267496,-5, -1, -2, 0, -1, -4, 8, -16
1503525267512,3, 1, -1, 2, 1, -5, -6, -12
1503525267534,-8, 1, 2, 2, 4, 14, -12, -8
1503525267556,-2, -4, -2, 0, 2, -2, 4, -2
1503525267574,1, 10, 2, 1, 0, -8, 7, 2
1503525267594,0, -2, 0, 0, 3, 2, -9, -17
1503525267620,-5, -2, -2, -1, -1, 0, 13, 22
1503525267632,-3, 4, -3, -1, -1, -4, -7, -28
1503525267654,-5, -12, -2, -2, 1, -10, -6, -3
1503525267679,-3, -1, 0, 0, 13, 21, -4, -13
1503525267692,1, 2, 1, 0, -7, -20, 7, 19
1503525267716,2, 2, -1, -4, -8, -8, -5, 5
1503525267737,3, -2, -2, 1, 3, -1, -9, 2
1503525267752,1, -4, -1, 0, -6, 21, 6, 4
1503525267776,-5, 0, -1, -2, -7, -9, -2, -11
1503525267796,-6, -2, -1, -4, -5, -25, -9, -11
1503525267804,9, 14, 1, 2, 0, -11, -11, -2
1503525267827,6, -8, -2, -2, -1, -4, 0, 41
1503525267848,6, -1, 1, -4, -1, 4, 38, 37
1503525267863,0, 0, -1, -3, -4, -4, -5, 15
1503525267872,-2, -3, 0, 0, 4, -20, 2, -1
1503525267894,-1, -3, -12, -4, -3, -1, -6, 14
1503525267917,4, 2, -4, -2, -4, 3, 3, -10
1503525267931,-3, -4, -5, 0, 2, -3, -4, -8
1503525267946,0, -5, -1, -1, -1, 5, 4, 47
1503525267961,-2, -2, -3, 0, 1, 20, -8, -21
1503525267984,3, 2, 3, -1, -1, -7, -3, -12
1503525268006,-7, 1, 0, -2, -6, -18, 0, 25
1503525268022,0, 2, 3, 2, -5, -4, 0, 0
1503525268045,-1, 5, -2, -1, -5, -14, -1, -8
1503525268069,0, -4, -1, -3, -7, -17, -8, -13
1503525268089,-3, 0, -1, -1, 7, -3, -1, -23
1503525268103,-1, 2, 2, 1, 12, 28, 22, 37
1503525268128,-7, -9, -2, 2, 14, 6, -2, -26
1503525268150,2, 2, -2, 1, -8, 12, -6, -2
1503525268163,-6, -6, -3, -7, -8, -16, -8, 0
1503525268187,6, 2, 0, 0, 9, -8, -8, -28
1503525268209,-3, -11, -4, -1, -9, -12, -14, -20
1503525268224,-3, 2, 2, 2, 0, 27, -7, -40
1503525268247,2, 4, 2, 2, 12, 3, -1, -6
1503525268269,-3, 1, 1, 5, -4, -3, -4, 2
1503525268284,0, 2, 0, -1, 2, 4, -4, 17
1503525268306,-1, 3, -1, -2, 1, 5, 4, 6
1503525268329,0, 3, 0, -3, -2, 3, 13, 2
1503525268345,-1, -1, -2, -4, -20, -17, -12, -14
1503525268366,4, -3, -1, -2, 0, -2, -1, 6
1503525268389,-3, 0, -1, -1, 2, -10, 9, 0
1503525268403,-1, 9, 0, 1, -1, -3, -4, -17
1503525268426,0, -2, -1, -2, -6, -11, -17, -8
1503525268450,1, -2, 0, -3, -1, -7, 1, 17
1503525268463,-3, 0, -3, -3, 1, -6, 5, 0
1503525268486,2, -3, -1, 0, 4, 25, 7, 10
1503525268509,0, -2, -1, -2, -8, -12, 9, 9
1503525268524,-3, 0, 0, 0, 4, 2, -2, -31
1503525268539,-1, -4, -3, -3, -6, -7, -2, -4
1503525268554,2, -15, -2, -4, -10, -13, 5, 19
1503525268577,-4, -3, 0, -4, -10, -2, 2, -3
1503525268598,-1, 0, -2, 1, -4, -4, -1, 1
1503525268622,2, 2, 0, 1, 8, 7, 7, -1
1503525268636,-3, 0, 0, -1, -3, -7, -16, -21
1503525268644,1, -13, -3, -4, -13, -13, -7, 1
1503525268666,0, 4, 2, 2, 10, 15, -7, -16
1503525268690,-2, -2, 0, 1, 3, 5, 3, 9
1503525268697,-1, 9, 0, 1, 2, -14, 0, 4
1503525268719,-4, -5, -8, -6, -6, -6, 0, 16
1503525268734,3, 0, 3, 2, -2, 7, 6, -7
1503525268760,1, -2, -2, -2, 0, 16, 5, 11
1503525268779,0, -2, 0, 1, 6, 7, 0, 1
1503525268794,-3, 14, 4, -2, -8, -31, -21, -15
1503525268818,0, -5, -1, 0, -2, -20, -15, 15
1503525268838,1, -2, -3, -1, 3, 8, 9, 4
1503525268855,1, 7, 23, 48, 11, 10, 8, -5
1503525268877,-1, 5, -3, -10, 3, 22, 27, 2
1503525268899,-4, -18, -8, -7, -4, -3, -8, -4
1503525268914,-4, -6, -5, -7, -6, -5, -6, -10
1503525268937,3, 0, -8, -15, -3, 6, -4, 0
1503525268961,-9, -5, -3, -8, 10, 4, 8, 24
1503525268974,1, -2, -2, -6, -9, -12, -1, -11
1503525268997,1, 1, -2, -4, -6, 10, -5, -3
1503525269020,0, -2, 0, 3, -2, -12, -2, 3
1503525269041,-1, -2, 2, 4, 6, 7, -8, -3
1503525269057,-2, 0, -1, -1, 0, -10, -3, -9
1503525269079,1, 2, 0, -3, 4, -19, 6, 2
1503525269101,-1, -2, 0, -2, -1, 8, 10, -5
1503525269118,-5, 1, 0, -2, -6, 20, -5, -12
1503525269131,-5, -4, -1, 2, -3, -21, -2, -14
1503525269146,1, -2, 3, -2, -3, 6, 5, -7
1503525269169,-3, 0, 0, -1, -3, -2, -3, 1
1503525269190,-6, -1, 2, 4, 5, -19, 7, -7
1503525269198,-4, -1, 0, 1, 12, -4, -10, 1
1503525269206,-4, -1, -2, 3, 3, 58, 6, -8
1503525269229,-1, -2, -4, -3, 1, -11, -11, 7
1503525269254,-4, -3, -4, -2, 1, -39, -19, -4
1503525269266,-2, -1, -4, -7, -15, -19, 11, -9
1503525269289,-4, -2, 5, 3, -4, -1, 6, -5
1503525269310,-3, -1, 1, 1, 14, 40, 16, -16
1503525269333,-5, -2, 0, -1, -19, -32, 3, -5
1503525269349,2, 2, -5, -3, -4, -13, -26, 1
1503525269371,3, -3, 1, -2, 14, 3, 8, 4
1503525269388,5, -2, 3, 2, 4, 28, 7, 24
1503525269408,-2, 5, 0, 0, -13, -22, -1, -10
1503525269431,-2, -3, -1, -3, 0, -11, -29, 1
1503525269446,2, 3, -1, 0, 10, 15, 8, -9
1503525269468,-6, -3, 0, 2, -3, -21, -9, 1
1503525269498,-5, -2, -1, -1, 11, 23, -5, -8
1503525269500,-4, -3, -4, -4, 1, -8, 6, -5
1503525269522,-2, -2, 0, -5, -2, -5, -3, -3
1503525269537,14, -12, 0, -1, 3, 2, 0, 13
1503525269559,2, 2, 5, 6, 16, 73, 20, 4
1503525269581,-4, -3, -3, -5, -1, 1, 4, -5
1503525269598,-6, 3, 3, 7, 4, 2, -42, -3
1503525269619,0, 1, -4, -10, -4, 6, 8, 2
1503525269641,-2, 4, -2, -5, -1, -25, 3, -2
1503525269658,4, -2, -3, -2, -5, -23, -8, -9
1503525269679,3, -7, -7, -2, -6, -5, 6, 12
1503525269701,-4, -2, 1, 0, -1, 5, 22, -10
1503525269717,-2, 1, -1, -2, -11, -27, -11, 1
1503525269740,-9, 3, 1, 0, -5, 0, -9, 4
1503525269763,-4, 1, -5, -4, -7, -22, 1, -23
1503525269776,2, 0, -1, -4, -1, 4, -15, -8
1503525269799,-5, -1, -1, 1, 1, 26, -11, -4
1503525269821,-2, -3, -1, -1, 4, 11, 1, -9
1503525269829,-1, 13, 2, -1, -1, -13, 2, -17
1503525269851,0, -5, -1, 0, -4, -1, 2, 19
1503525269866,-2, -1, 1, 2, 6, 16, -5, -13
1503525269891,-3, -1, -2, -1, -1, -1, 8, 6
1503525269911,1, -1, 6, 10, 2, 6, -3, -2
1503525269933,-2, -3, -3, 4, 4, 3, -5, -3
1503525269948,0, -5, -5, -18, -1, 1, -13, 1
1503525269971,-5, 1, -3, -12, 0, -10, -9, -9
1503525269994,-6, -5, -3, -1, -1, 13, 6, -6
1503525270009,17, 2, 3, 11, 13, 16, 8, 13
1503525270033,-5, -5, -15, -25, -5, -5, 8, 5
1503525270053,-1, 3, 4, 8, -4, -10, -5, -5
1503525270069,-1, 0, 1, 2, -7, -22, 0, -3
1503525270092,-1, -2, -3, -6, 1, -3, -2, 5
1503525270120,-4, -4, -1, -1, -5, -7, -4, -19
1503525270130,-2, 1, 3, -4, 10, 14, -8, 21
1503525270151,3, 14, 6, 24, 1, 5, 1, -9
1503525270173,-2, -6, 0, 1, -1, 9, -2, -7
1503525270188,-2, -2, 0, 5, 2, 12, -8, 11
1503525270211,-1, -1, 2, 11, -5, -5, 4, -6
1503525270233,0, 3, 4, 5, 3, 2, 0, -2
1503525270249,-3, -4, -7, -15, -17, -9, 7, -4
1503525270271,1, -2, 0, -3, 12, 20, -4, -6
1503525270294,-1, 0, -2, 1, -1, -14, 0, 3
1503525270302,1, -2, 3, 8, -1, -4, -1, -12
1503525270323,-2, -2, -4, -3, -1, -1, -1, -1
1503525270339,-2, -1, -2, -6, -10, -24, -5, -1
1503525270361,-2, -2, 0, 4, -3, -6, -4, 3
1503525270383,0, -3, -4, -7, -5, -2, 2, -5
1503525270399,3, 5, 5, 15, 6, 10, -6, 1
1503525270421,-5, 1, 2, 10, -2, -2, -1, -3
1503525270443,1, -2, -7, -17, -2, 44, 4, 2
1503525270463,-4, -3, -3, -5, -2, -31, -3, -2
1503525270481,-3, 0, -1, 1, 3, 8, -10, -4
1503525270504,-1, -1, -9, -21, -7, 0, 4, -4
1503525270519,1, 1, -1, -3, -4, 5, -1, 5
1503525270541,-2, -2, 4, 5, 3, -1, 2, 2
1503525270566,1, 0, -1, 4, 10, 30, 30, 4
1503525270579,4, 3, 14, 38, 0, -33, -11, 2
1503525270601,1, 1, -1, -3, -6, -27, -2, -1
1503525270623,-1, -3, -2, -9, -8, -22, -2, -4
1503525270639,-1, -1, -5, -7, 0, -1, -11, 1
1503525270663,0, -2, -4, -12, -4, 2, 2, -1
1503525270683,0, 1, 0, -1, -2, -15, -8, 4
1503525270702,-6, -4, -4, -4, 0, 0, -4, -6
1503525270721,0, 0, -1, 0, 2, 12, -7, -2
1503525270743,0, -3, 0, -1, -6, -24, 4, -5
1503525270751,1, -5, -4, -6, 7, -1, 6, -2
1503525270773,2, -14, -6, -8, -6, -3, -10, -8
1503525270788,0, 1, -2, -7, 1, 6, 4, -1
1503525270810,-1, 0, -5, -4, -2, -11, -2, -1
1503525270833,-4, 1, -4, -7, -10, -15, -2, 0
1503525270848,1, 0, 3, 6, -5, -8, -3, 2
1503525270870,1, 1, -2, -2, -4, 1, 3, 1
1503525270893,1, -2, -2, -4, -1, -2, -3, 4
1503525270915,0, -1, 1, 2, 0, 4, 3, -8
1503525270932,-2, 0, 0, 2, -2, -3, 0, -4
1503525270960,0, 2, -3, -10, -2, -23, -5, 1
1503525270978,-5, -1, -1, 0, 0, 2, -1, -2
1503525270991,1, -3, 2, 2, -2, 5, 1, 1
1503525271013,1, 1, -1, -2, -2, -7, -1, 4
1503525271036,-2, 1, 1, 8, 2, 13, 1, -3
1503525271051,-2, -3, -4, -3, 3, 8, -4, -3
1503525271074,-6, -3, -4, -7, 2, 3, 8, 1
1503525271096,4, -5, -3, -4, -3, 9, -11, -1
1503525271111,-9, -1, -2, -4, -1, -2, -3, -6
1503525271133,1, 1, 3, 3, -3, -12, 1, -2
1503525271156,-1, -3, 0, 0, -2, 0, 8, -1
1503525271172,-3, 0, -3, 3, 9, 10, 1, -7
1503525271193,-3, -1, 1, -2, 2, 2, -1, -6
1503525271215,0, 1, -7, -10, -5, -1, -4, 3
1503525271234,1, -2, -1, 0, 3, 13, 5, 0
1503525271253,-4, 1, 0, 2, 0, -2, -12, -4
1503525271277,1, 0, 2, 2, -6, -6, 5, 3
1503525271291,7, 4, 0, 1, 3, 4, 3, 2
1503525271313,2, 2, 2, -2, 4, 1, 1, 4
1503525271336,3, 0, 5, 7, -3, -2, -1, -2
1503525271351,1, 1, -4, -5, -2, -4, -11, -3
1503525271373,-4, -6, -4, -1, -1, -1, -14, -5
1503525271395,-1, -2, -2, 2, 0, -5, 3, 0
1503525271411,0, -2, -2, 2, 3, -3, 4, 1
1503525271437,-2, -1, 1, -3, -2, -1, 3, -3
1503525271455,1, -2, -2, -1, 0, 6, 2, -1
1503525271472,4, 18, 3, -1, -2, -7, 5, 10
1503525271493,0, -4, -1, 0, -1, 1, -2, 5
1503525271517,-1, -3, -2, 1, -2, 1, 0, -1
1503525271531,-3, -2, -1, 1, 0, -1, -5, -6
1503525271553,-4, -4, -3, -4, 0, 2, 3, -1
1503525271583,0, -2, -2, -1, -3, -3, -2, 18
1503525271585,-4, 0, -1, 1, 2, 1, 2, -18
1503525271606,-10, -7, 1, 1, -2, -1, 2, -3
1503525271614,-1, -2, 0, -3, -1, -4, -6, -8
1503525271637,-1, -2, -1, -1, -10, -22, -11, -1
1503525271659,0, 3, -2, -1, 1, 2, 16, 10
1503525271675,-3, -8, -5, 0, 4, 3, -2, -11
1503525271696,-1, -2, 0, -1, -2, 4, -10, -8
1503525271719,3, 14, 2, 0, 2, 8, 7, -2
1503525271734,0, -4, -4, -7, -8, -19, -4, 33
1503525271756,3, -3, -1, 0, 6, 6, -5, 15
1503525271781,-5, -4, 3, 2, -1, 2, 1, -18
1503525271794,-5, -4, 2, -1, -1, 2, 1, -8
1503525271816,-5, 7, -2, 2, 7, 13, -6, 6
1503525271839,3, -6, -2, 2, 0, 3, -5, 10
1503525271861,0, -2, -1, -3, -5, -15, 7, -17
1503525271883,2, 1, 1, 1, 4, -6, 7, -7
1503525271899,0, -4, 0, 0, -3, -5, 6, 8
1503525271914,-4, -4, -1, -1, -1, 5, -6, -8
1503525271938,2, 2, -1, 1, 0, 16, 2, -16
1503525271944,-3, -4, -2, -3, -7, -1, 2, 12
1503525271966,1, -4, -2, 0, 8, 17, 8, -2
1503525271989,-2, 0, 1, -2, -6, -9, -1, 1
1503525272007,1, -1, 0, -2, 0, 2, -10, 4
1503525272026,0, -4, -5, -4, -6, -2, 5, -6
1503525272049,2, -2, 1, 4, 7, 25, 5, 5
1503525272063,-5, -4, -2, -6, -22, -45, -14, -9
1503525272086,3, -1, 1, -1, -1, -8, 7, 46
1503525272109,0, 1, -1, -2, -1, -6, -1, -9
1503525272123,3, 7, -1, -1, 1, 6, -1, 13
1503525272146,4, 2, 1, 5, 4, 7, 1, -5
1503525272168,0, -2, 0, 1, 17, 4, 0, 18
1503525272183,-3, -3, -2, 2, 6, 20, -2, -20
1503525272209,-2, -2, 0, -2, -4, -5, -9, 3
1503525272229,1, -4, 0, 6, 0, -8, 1, -7
1503525272244,-1, 3, 2, -1, -6, 13, -4, -16
1503525272266,1, 1, 0, -2, -1, 14, 13, 4
1503525272289,-4, -3, -2, -1, 7, 1, 0, -15
1503525272303,-2, -7, -2, -2, -4, -4, 2, 1
1503525272326,-2, 1, 3, 4, -1, -12, -5, -13
1503525272349,-2, -2, -3, -6, -4, -3, 2, 0
1503525272363,0, 0, -2, -5, -8, -21, -5, 14
1503525272386,-2, -1, -4, -4, -5, -5, 3, -1
1503525272409,-2, -1, -2, -3, -2, -7, -14, -6
1503525272423,0, -1, 0, -1, -6, -5, 2, -3
1503525272446,0, -1, 0, -2, -2, -12, 8, 11
1503525272469,-3, 4, 3, 1, 5, 13, -1, -15
1503525272484,0, -3, -2, -1, 3, 30, 3, 0
1503525272506,-1, -3, -10, -7, -1, -2, -6, 0
1503525272529,-2, 3, 2, 0, 10, 5, 10, -3
1503525272544,-3, -4, 0, 0, -4, -2, -2, -1
1503525272566,-5, -1, 4, 5, -2, -4, -4, -10
1503525272589,-3, -7, -2, -6, -5, 8, 4, 35
1503525272603,4, 5, 19, 40, 2, -11, 2, 8
1503525272626,1, 0, -14, -33, -8, -12, -14, -14
1503525272650,2, 0, -1, 8, -1, -12, 14, 9
1503525272663,0, -3, -1, -1, 4, 6, 8, 4
1503525272679,3, 11, 3, -4, -3, -21, 0, -25
1503525272702,3, 3, 4, 8, 6, 14, -14, -7
1503525272717,-4, 2, -2, -6, -5, -24, -2, 14
1503525272739,0, -1, 1, -1, -1, -1, 7, 9
1503525272761,-2, -9, -4, -6, 0, 3, 10, -18
1503525272779,-1, -1, -5, -5, 1, 1, -15, -21
1503525272799,3, 0, 1, 2, -1, 29, -4, -8
1503525272821,-6, -6, -3, -5, -6, -4, 7, -1
1503525272836,-8, -1, 2, 2, 2, 14, 1, 46
1503525272859,1, 6, 3, 4, 1, -12, 0, -7
1503525272882,-6, -9, 2, 0, 3, -1, 4, 15
1503525272904,0, 0, -2, -6, -10, -32, 6, -25
1503525272921,-3, 2, 0, 4, 10, 25, 10, 23
1503525272941,5, 19, 1, 2, 0, -2, -7, 19
1503525272956,-3, -14, -4, -4, -5, -25, -2, 3
1503525272980,4, -1, -1, -5, -10, -4, 3, -12
1503525273002,-1, 0, -4, -6, -3, 8, -14, -4
1503525273016,0, -4, -4, 0, 8, 39, 13, 9
1503525273039,4, 0, 2, -2, -4, -8, 23, -16
1503525273062,2, -1, 0, -2, 2, -1, -12, -11
1503525273076,6, 6, -1, -2, -11, -10, 19, 11
1503525273091,1, 1, 1, 0, 1, 5, -15, -43
1503525273106,-9, -8, 1, 10, -3, -11, 1, -42
1503525273129,14, 9, 10, 6, -1, 28, -2, 35
1503525273151,-2, -3, -6, -12, -9, -28, -11, 5
1503525273181,3, 1, -3, -5, -12, -7, 25, 30
1503525273196,1, -2, -1, 1, 1, 12, -5, 10
1503525273220,-4, -2, 3, 2, -6, -4, -1, 15
1503525273241,-10, -15, -3, -6, -6, -13, 14, -25
1503525273258,-3, -1, -2, -3, 17, 45, -1, -8
1503525273282,-5, -1, -6, -1, -5, -25, -10, -12
1503525273301,4, 3, 3, 3, -12, -33, -52, -33
1503525273317,3, 3, -1, -2, -3, -4, -9, 13
1503525273339,3, 3, 1, 6, 25, 81, 28, 12
1503525273361,10, 2, -2, -4, -8, -33, 0, -9
1503525273376,1, 3, 9, 27, 1, -7, -4, -37
1503525273392,16, 24, -4, -5, -8, -10, 10, 56
1503525273406,-2, -10, 0, -2, -10, -20, 5, -12
1503525273428,-6, -4, -1, -4, -8, -31, -4, -9
1503525273451,-1, -1, 0, 10, 5, 19, -12, -38
1503525273466,-8, -4, -1, -1, 0, -3, -10, -9
1503525273489,6, -3, 2, 4, 17, 45, 13, 30
1503525273511,-2, -3, -2, 0, 1, 3, 9, 11
1503525273526,-6, -2, -3, -4, -1, -10, -5, 9
1503525273551,-6, -3, -4, -14, -7, -14, -8, -33
1503525273571,0, 0, 5, 4, 3, -8, 5, 9
1503525273587,-1, 1, 1, 1, 3, -7, -3, -17
1503525273608,3, -1, 2, 12, 10, 16, 6, -1
1503525273631,-4, -3, -5, -11, -8, -7, -3, -2
1503525273646,-2, -5, -7, -12, -3, 7, -7, -17
1503525273668,3, 5, 7, 16, -2, -15, 0, 12
1503525273691,-2, -2, -2, -3, 7, 23, 6, -13
1503525273699,0, 3, -2, -6, -1, 0, 4, -17
1503525273723,-20, -12, -7, -13, 1, 9, -3, 31
1503525273743,8, 20, 0, -7, 7, 1, 10, 21
1503525273760,2, 0, 1, -3, 1, 17, 10, -6
1503525273781,4, 0, 8, 13, -4, -5, -14, -20
1503525273803,-3, 0, 4, 6, 2, 2, -16, -13
1503525273819,-2, -7, -5, -9, -5, -5, 21, 60
1503525273841,0, 1, 0, 1, -9, -8, 5, 75
1503525273863,7, 1, 1, 9, 1, -3, -2, 9
1503525273879,2, 1, -1, -6, 3, 8, -6, -65
1503525273901,4, -1, -4, -3, -3, -2, 6, 11
1503525273924,-4, 1, 6, 14, 12, 34, 9, -20
1503525273939,-1, -3, -2, -4, 2, 25, 11, 1
1503525273962,-1, -2, 3, 10, -3, -16, -4, -17
1503525273983,0, 0, -4, -8, -5, -9, -5, -12
1503525273999,-12, -3, -1, -3, -2, -1, -14, -25
1503525274024,2, -1, -1, 1, 1, 9, -3, -19
1503525274029,-4, -3, -2, 2, 6, 17, -8, -5
1503525274053,-2, -2, -2, -2, -5, -18, -11, -17
1503525274073,-3, -3, -2, -3, -5, -3, 2, -1
1503525274092,-2, 0, 2, 4, 0, -10, -5, 5
1503525274111,-1, 1, 1, -2, 2, -6, -1, -3
1503525274133,-1, -3, -1, 1, -1, 2, 2, 3
1503525274148,1, 1, 1, 3, -4, -11, 1, 1
1503525274171,-4, 2, 7, 12, -3, -1, -19, -7
1503525274194,-11, -7, -5, -4, 0, -4, -5, -11
1503525274209,-1, -2, -2, -5, -4, 4, -4, -12
1503525274231,2, 0, -6, -8, -4, 19, 4, 2
1503525274258,1, -2, 1, -3, -2, -9, 3, 2
1503525274269,9, 2, -4, -5, -1, -6, 10, -2
1503525274292,0, 2, 2, 3, -1, -11, 12, 10
1503525274313,-2, 0, -4, -2, -4, -7, -10, -2
1503525274330,0, -2, 0, 1, 0, -3, 13, 4
1503525274351,-2, 1, 1, 5, 2, -2, 0, -2
1503525274373,-5, -6, -4, -7, -1, 4, -20, -4
1503525274392,0, 1, -1, 1, 2, 20, -1, -1
1503525274417,1, 1, 2, -2, -1, -4, 8, 16
1503525274433,-2, 0, -1, 1, 3, 4, -4, -4
1503525274449,-2, -3, -5, -7, -2, 9, -17, -10
1503525274471,-2, -2, 0, 2, 19, -4, 2, -3
1503525274493,-3, -3, 1, 0, -4, -6, -1, -6
1503525274509,0, 2, -1, 0, -2, -3, -2, -3
1503525274532,0, 0, 0, 2, 3, -5, -1, -6
1503525274553,1, 1, 2, 0, 2, 23, 5, 4
1503525274568,2, 0, 0, -1, -6, -13, 0, 0
1503525274583,-1, -1, -3, 0, 5, 3, -3, 0
1503525274606,-1, -1, 0, 0, 7, -9, -15, -6
1503525274623,-2, 0, -1, 1, 11, 25, -8, -2
1503525274643,0, -5, 3, -3, -5, -11, -11, 4
1503525274666,3, -1, -1, -5, -4, 7, 9, 2
1503525274674,-1, 3, 8, 7, 1, -21, -6, 0
1503525274697,-8, -9, -21, -19, -9, -14, -4, -9
1503525274711,0, 1, 12, 15, 6, 4, -4, 1
1503525274734,-2, -1, 6, 10, 2, 3, 0, -3
1503525274755,-5, -1, 1, -2, -3, -5, -5, -6
1503525274771,-1, -2, -4, -1, -9, -2, 9, 5
1503525274794,0, 0, 4, -2, 2, 1, -3, -2
1503525274815,2, 3, -9, -7, 0, 5, -1, -2
1503525274831,-1, -2, -3, -1, 1, 1, -2, 1
1503525274853,-3, -2, -3, -4, -2, -3, -2, 6
1503525274876,6, -4, 11, 35, 3, 5, 2, 1
1503525274893,7, 0, 6, -2, -1, 6, 13, 11
1503525274906,5, -4, -10, -8, -3, -4, 1, -1
1503525274921,2, 2, -15, -17, -2, -1, -14, 1
1503525274943,3, 20, 29, 2, 1, 0, 5, -2
1503525274966,-6, -11, -1, 1, 2, 0, 2, -6
1503525274981,7, -5, 5, 20, -1, 1, -1, 6
1503525275003,2, -35, -12, -8, -4, -1, -6, -1
1503525275028,2, -2, -4, -8, -1, 3, 9, -1
1503525275041,-8, 3, 3, 7, 0, -2, -5, -1
1503525275063,2, 5, 1, -4, 0, 1, 3, 0
1503525275086,-10, -7, 1, 0, -1, 0, -4, -8
1503525275103,-11, -8, -10, 0, -1, 0, -12, -9
1503525275123,1, 7, 4, -4, 2, 0, 8, 1
1503525275146,-2, -4, -10, -1, -3, -2, -1, 1
1503525275163,-3, 4, 3, -3, 0, -3, 0, -1
1503525275183,-9, 3, 10, -2, -2, 0, -2, 0
1503525275206,4, 13, -8, -5, 0, -3, -3, 7
1503525275221,7, -2, 12, 2, 2, 4, 0, 5
1503525275244,2, 2, -13, 6, 18, 21, 1, -7
1503525275266,-7, -5, -11, -9, -7, -5, -2, -6
1503525275281,-19, -4, -27, -25, -1, 9, 2, -4
1503525275303,4, 3, -4, 2, -9, -9, 0, 3
1503525275326,-1, -1, -4, 1, 7, 8, 1, -1
1503525275334,-2, -8, 0, 5, 2, 19, 7, 3
1503525275355,1, -1, -10, -8, -12, -18, -3, -6
1503525275378,-8, 1, -3, -5, -7, -10, -5, -8
1503525275397,-8, 2, -1, 1, -3, -2, -2, -1
1503525275415,10, 2, -1, -7, -11, 15, 8, 28
1503525275432,-5, -2, -5, -19, -9, -24, -6, -5
1503525275453,2, 0, -2, -3, -3, 0, 15, -3
1503525275476,0, 2, 1, 11, 27, 25, -1, -6
1503525275491,2, 0, 0, 4, -10, -8, -3, -10
1503525275513,3, 14, 4, 6, 2, -18, -4, 2
1503525275535,2, -6, -8, -11, -4, 3, -3, 1
1503525275558,-6, -10, -3, 1, 2, -2, -10, -2
1503525275573,-1, 4, 4, 13, 40, 43, 2, -7
1503525275597,1, 6, 6, -15, -16, -20, -7, 0
1503525275618,-3, -2, 7, 13, -5, -4, 1, 6
1503525275634,1, 2, -7, -14, -1, 20, 8, 2
1503525275655,-5, -2, -1, 2, -14, -40, -11, -3
1503525275678,-3, 12, 3, 4, -10, -6, -4, -5
1503525275700,4, -8, -9, -5, -2, -3, -5, -3
1503525275722,-3, -7, -7, -6, -13, -13, -5, -4
1503525275740,-5, -14, 0, -1, -5, -30, -4, -14
1503525275753,3, -13, 1, 4, -3, 2, 2, 0
1503525275776,-4, -4, 3, 6, 3, 8, -5, -3
1503525275799,-1, 6, -2, -2, -6, 4, 7, 1
1503525275813,-7, -14, -4, -4, -2, -3, 7, 5
1503525275836,3, 6, 2, 2, 10, 8, -5, 0
1503525275867,-2, 1, -1, -3, 0, 7, 0, -3
1503525275889,1, -4, 0, 1, -3, -2, 0, -2
1503525275904,2, 0, 3, 2, -4, -10, -14, -1
1503525275926,2, -2, 3, 0, 8, 7, 6, 2
1503525275949,-1, -3, -5, 2, -3, -8, -21, -5
1503525275963,1, 1, 2, 0, -8, 3, 2, -1
1503525275986,1, 2, 3, -3, 0, 7, 4, 1
1503525275994,-2, -1, 4, 8, -3, -2, 4, -2
1503525276015,1, -1, 0, -8, -13, -9, 9, 0
1503525276038,1, 3, -2, -2, -2, -17, -3, -4
1503525276053,0, 3, -1, -2, -3, -4, 1, 0
1503525276077,-1, 16, 2, -2, 2, 5, -7, -2
1503525276098,2, -7, -16, 0, -1, 2, -2, -1
1503525276113,-4, 0, -3, 2, 3, 13, -7, -8
1503525276135,2, 0, 2, -2, 3, 6, 8, 16
1503525276157,10, -1, 5, 1, 1, 28, 1, -5
1503525276173,-3, -3, -4, -2, -4, -15, -2, -4
1503525276195,1, -2, 2, -1, -4, 17, 1, 2
1503525276218,-4, -3, -3, -3, -3, -12, -1, -1
1503525276236,-1, -1, 6, 5, -2, -12, -1, -4
1503525276255,-6, -2, -1, -5, -1, -14, 5, -22
1503525276278,2, 3, 6, 4, 8, 28, -2, 3
1503525276293,-2, -1, -4, -5, -2, -18, -5, -1
1503525276315,1, 0, -1, -1, -4, -3, 3, 5
1503525276338,5, 0, -6, -5, 4, -11, -14, 4
1503525276353,-5, 8, 0, 1, -8, -5, -2, 4
1503525276372,-2, -3, -4, -2, -3, -2, -2, -4
1503525276383,0, 15, 4, 0, -1, 10, 1, -5
1503525276406,1, -4, -8, -1, 12, 14, -5, 0
1503525276429,-2, -2, -1, 0, -8, -14, -11, -3
1503525276443,-4, -14, -5, -4, -5, -8, 2, -2
1503525276466,-1, -1, -3, -4, -6, -21, -8, 1
1503525276489,-2, 1, -4, -4, -1, -1, -6, -6
1503525276512,-1, -8, -3, -5, -1, -13, 0, 3
1503525276526,-1, 0, 0, -3, 4, 7, -2, 0
1503525276549,2, 14, 5, 4, 2, -2, 13, -4
1503525276573,3, -3, 1, 4, 12, 5, -8, -2
1503525276586,1, -1, -2, 1, -3, 6, 4, 0
1503525276611,-2, -1, -3, 2, -4, 4, -3, 0
1503525276631,1, -7, -4, -4, -5, -7, -5, -2
1503525276647,-1, 0, -4, 0, -3, -5, 2, 3
1503525276669,-1, -1, -5, -9, -12, -30, -12, -4
1503525276691,-3, 2, 6, 1, -2, 1, 12, 7
1503525276706,8, -19, 9, 30, 1, -1, -4, -4
1503525276731,-3, 7, -1, -8, 1, 27, 1, 1
1503525276751,-7, -16, -8, -9, -16, -8, 3, -3
1503525276766,32, -24, -5, 13, 0, -2, -11, -10
1503525276789,-12, 5, -12, -20, 5, 57, -5, -9
1503525276813,-13, 6, 3, -11, -10, -20, 8, -15
1503525276828,-5, 5, -4, -1, -5, -27, -12, -2
1503525276842,9, -3, -8, -4, 9, 18, 2, -3
1503525276849,3, 11, 1, -9, -5, -7, 6, -9
1503525276883,-2, 3, 2, -4, -16, 32, -5, -11
1503525276902,-3, 0, -3, -11, -13, -11, 3, 4
1503525276924,2, -3, -2, -9, 0, 2, 2, 3
1503525276950,2, -1, 2, -1, 6, 11, 10, -32
1503525276968,-4, 15, 5, 11, -1, -12, -44, -17
1503525276990,8, 8, 1, -1, 0, 14, 5, 25
1503525277008,-4, 6, 1, 3, 7, -10, 2, -3
1503525277022,0, -12, -1, 2, 6, 36, 1, -17
1503525277045,-7, 2, 0, 1, -8, -17, 25, -22
1503525277059,7, 1, -2, -6, -6, 10, -13, 33
1503525277083,2, -3, -3, 0, 3, 4, 2, 8
1503525277104,-8, -1, 0, 1, -6, -4, 0, -6
1503525277119,-2, -6, -3, 0, 7, -4, 17, 15
1503525277143,0, -1, -1, -2, -4, -23, -10, 49
1503525277164,13, 0, 1, 3, 7, 12, 6, -16
1503525277180,2, 0, 1, -4, 6, 23, -6, -8
1503525277201,-4, -1, 2, 3, 2, -6, 8, -3
1503525277224,-10, -3, -7, -8, -12, -36, 5, -5
1503525277239,-27, -9, -3, 0, -1, -6, -41, -1
1503525277261,4, -6, -2, 2, -1, -2, -13, -24
1503525277285,5, 0, 0, 3, 3, 15, 36, -7
1503525277299,-2, 5, 3, 2, 2, 2, 4, -11
1503525277306,-10, -5, 2, 1, -4, 12, -8, 34
1503525277329,-4, -4, 2, 6, 5, -17, -23, -4
1503525277352,3, 0, -2, -2, 3, 24, 16, -3
1503525277366,-11, 0, 1, 0, 11, 13, 21, -14
1503525277389,0, -5, -5, -5, -11, -27, -16, 56
1503525277411,-5, -3, 3, 6, 9, 14, -1, -23
1503525277433,-1, -2, -2, -2, 5, 4, -4, 3
1503525277453,-5, -3, -2, -3, -4, -7, 12, -17
1503525277471,11, -1, -2, -3, -3, 2, -9, 10
1503525277493,0, -1, -1, -2, 10, 14, -6, 3
1503525277512,-2, -2, -3, -3, -6, -41, -11, 12
1503525277532,5, -2, 0, -2, -8, 22, -6, 1
1503525277554,-5, -4, -5, -3, -10, -5, -7, -1
1503525277568,1, 3, 2, 4, 11, 18, 9, 13
1503525277591,4, 3, -1, -1, -7, -19, 2, -2
1503525277613,6, 1, 1, -1, 3, 16, 17, 14
1503525277628,-10, -3, -1, 1, 0, -9, -7, -4
1503525277651,-5, -3, 0, -2, -4, 0, -17, -35
1503525277673,-5, 1, -1, -3, 1, -7, 3, -9
1503525277688,-2, -2, -2, -5, -6, -16, 4, 11
1503525277712,-1, 7, 3, 2, 1, 19, 4, -1
1503525277733,6, 3, -1, 2, 4, -2, 4, 4
1503525277750,-2, -5, -3, -6, -2, -7, 6, -11
1503525277770,1, 0, -2, 0, 2, 27, -3, 0
1503525277793,2, 2, 5, 6, 13, 20, 13, 12
1503525277808,-1, 5, -6, -17, -10, -26, -8, 17
1503525277831,-1, -2, 5, 12, -2, -1, -2, -19
1503525277854,2, -8, -5, -7, 11, 20, -1, 24
1503525277869,-5, -12, -5, -3, -24, -49, 4, 3
1503525277891,-2, -6, -3, -4, 0, 4, -1, -14
1503525277915,0, -5, -6, -7, -8, -6, -4, 3
1503525277928,-1, 1, -2, -4, -3, -10, 0, -3
1503525277951,6, 0, -4, -9, -3, 1, -7, 1
1503525277959,8, -4, -2, -11, 15, 39, 19, 11
1503525277984,-4, -3, 4, 4, -19, -29, -11, 19
1503525278004,5, 16, -1, -16, -1, -1, 27, 25
1503525278020,-1, -6, -11, -24, 0, 2, -7, 7
1503525278041,-5, -7, -5, -9, -4, -2, 8, -19
1503525278064,-3, -5, -2, 0, 4, 6, -4, 16
1503525278080,-3, -4, -1, -2, 4, 7, -6, -14
1503525278101,0, -2, -2, -11, -1, -3, -2, 6
1503525278124,0, -1, -4, -10, 4, 9, -8, -21
1503525278131,1, 4, 2, 5, 1, 7, -1, -2
1503525278154,5, 18, 5, 4, -2, -3, 8, 17
1503525278168,-2, -2, -6, -7, -6, 21, 6, 15
1503525278191,-4, -18, -2, -2, 3, 1, -3, -15
1503525278216,-2, 7, -1, -3, -8, -23, 0, -5
1503525278229,3, 2, 9, 17, 4, 1, 1, -3
1503525278251,0, -1, -5, -10, 3, 24, -5, -7
1503525278266,1, 2, -2, -1, 4, 1, 7, 17
1503525278289,1, 18, 3, 1, -5, 1, 22, 3
1503525278291,1, 12, 3, 0, -6, -9, -14, -5
1503525278304,-6, -8, -1, -3, -4, -4, -13, 5
1503525278326,-1, 2, 8, 13, 5, 5, -2, -8
1503525278341,-1, -2, -3, -7, -1, -9, -16, -2
1503525278364,-2, -4, -6, -5, -7, -24, 5, -3
1503525278386,1, -2, 0, 2, 4, 1, -3, 3
1503525278401,0, -1, -4, -4, 9, 29, -5, 2
1503525278424,0, 1, 9, 18, 0, 3, -3, -28
1503525278446,-1, -2, -4, -8, 2, -5, 4, 22
1503525278461,-2, -13, -5, -11, -3, 4, -5, 4
1503525278486,-1, -3, -6, -3, 0, -3, 2, 4
1503525278506,1, 1, -2, -4, -3, 4, 0, -3
1503525278521,0, 3, 0, -1, -1, -3, -3, -1
1503525278544,1, 4, -1, 4, 2, -2, 1, -4
1503525278565,-5, 1, 2, 0, -3, -5, 7, 1
1503525278581,-4, -10, -2, -5, -5, -1, -2, -12
1503525278603,3, -1, -5, -4, -1, -4, -2, -3
1503525278610,-1, 1, 1, 0, 2, -2, -3, -17
1503525278633,-2, -23, -5, -4, -4, -3, 0, -3
1503525278656,-2, -3, 0, 0, 0, 2, 1, 0
1503525278671,2, 2, -3, 0, 1, -2, 0, 0
1503525278695,-1, 5, -1, -1, 2, 0, -7, -20
1503525278716,6, 20, 6, 6, 0, 0, 4, 5
1503525278730,-2, -5, -4, -1, -1, -4, 1, -3
1503525278746,1, 3, -3, -2, -1, -1, -6, 2
1503525278761,-3, -3, -1, -3, -5, -3, 0, -1
1503525278791,0, 3, 1, 3, 9, 0, 5, 1
1503525278806,2, 12, -1, -2, -2, 0, 6, 3
1503525278821,-7, -5, -2, -2, -2, -1, -4, 8
1503525278844,-1, -5, 1, 2, 2, 2, 0, -1
1503525278866,0, -1, -1, 1, -1, -3, -1, -7
1503525278881,4, 1, 1, -2, -7, -4, 4, 7
1503525278904,-3, -5, 1, 1, 0, 5, -3, 5
1503525278911,0, 14, 4, 4, 3, -1, -6, -12
1503525278933,-2, -4, -6, -5, 2, 0, -2, -4
1503525278956,-2, -7, -3, -1, -2, -2, 15, 52
1503525278971,-1, 1, 3, 6, -6, 11, -3, -17
1503525278993,-3, -4, -1, -4, -2, -24, -11, -12
1503525279015,-1, -1, -2, -1, -5, -9, -1, 7
1503525279024,-1, -2, -1, -3, -8, -18, -4, -7
1503525279045,-3, -6, -1, -3, -10, -8, 3, -4
1503525279061,-3, 0, -1, -1, -7, -7, -3, -27
1503525279084,1, -4, -2, -1, -6, -11, 0, -8
1503525279106,-2, -5, 1, -3, -9, -12, 18, -2
1503525279124,0, -1, -2, -2, -4, -3, -3, 5
1503525279144,1, 13, 25, 1, -1, -4, 6, -15
1503525279166,6, 3, -4, 12, 49, 65, 10, 41
1503525279181,-1, -1, -3, -6, -13, -17, -10, -11
1503525279203,4, 11, -8, 6, 5, 14, 4, 5
1503525279210,-2, 4, -2, -4, -6, -2, -2, -25
1503525279233,-1, 0, 4, 3, 4, 5, -11, -20
1503525279257,3, 2, -1, 8, 28, 45, 1, 8
1503525279277,-1, -9, -3, -3, -13, -10, 14, 38
1503525279293,0, 2, -1, 0, 0, 1, 4, -4
1503525279315,-4, 2, 0, -1, -6, -2, -1, 4
1503525279337,8, -1, 1, -1, -4, -14, 22, 42
1503525279346,2, -4, -5, -5, -12, -19, 5, 18
1503525279368,3, -2, -2, 1, 6, 17, -10, 4
1503525279384,6, -4, -1, -2, -3, -15, 1, 8
1503525279406,-1, -1, -2, -5, -9, -15, 3, 24
1503525279428,-1, -2, -1, -3, -3, -3, 5, -1
1503525279444,-1, 0, 16, 10, 8, 21, 10, -1
1503525279466,-2, 0, -3, -2, 5, 10, -5, 3
1503525279491,0, 1, -8, -3, -3, 10, 4, 18
1503525279497,-3, 2, -4, 1, 2, 9, 3, -16
1503525279527,10, 28, -1, -3, -2, -1, -4, -1
1503525279540,-5, -13, -2, 4, 1, -6, 4, 3
1503525279563,1, -2, -1, 0, -1, -4, 0, -5
1503525279577,-2, -4, -1, -1, 0, 3, 2, 2
1503525279594,-3, -2, -3, -1, -1, -3, -4, -13
1503525279615,3, -2, -1, 2, -7, -9, 2, 23
1503525279637,-1, 15, 3, 0, 2, 0, 5, -10
1503525279653,-3, -6, -5, -1, -12, 2, -4, -5
1503525279675,-6, -5, -3, -1, -4, -13, -32, -19
1503525279698,2, 0, 2, 1, 7, 5, 4, 6
1503525279713,4, -2, -1, 1, 11, 21, 7, 12
1503525279736,-5, -11, -3, -2, 0, 4, 4, -20
1503525279762,0, 2, 1, 4, 16, 15, 8, 6
1503525279773,-5, -3, -4, -4, -9, -11, -4, -17
1503525279796,-4, -11, -1, 0, -2, -2, -3, -18
1503525279817,1, 1, 1, -3, -4, -2, 14, -8
1503525279830,4, 3, 2, 2, 11, 26, 12, 7
1503525279848,-3, -2, -1, -1, 2, -14, -12, -23
1503525279864,1, -6, -2, -3, -6, -9, 2, -6
1503525279885,-1, 2, -2, 1, 6, 7, -1, 6
1503525279908,3, 1, -1, -3, -14, -3, 2, 32
1503525279924,0, 1, -2, -1, -4, -13, -5, -16
1503525279945,-5, -5, -2, 0, 10, 5, -12, -11
1503525279969,-2, -7, -1, -3, -7, -13, 3, -7
1503525279984,-2, -1, 1, -1, 0, -4, -2, -1
1503525280006,0, 3, 1, -1, -9, 13, 3, -13
1503525280029,-1, 6, 0, 1, -2, -16, -9, -12
1503525280044,-3, 1, 0, -2, 1, -7, -1, 1
1503525280066,5, -22, -4, -3, -1, -6, -2, -1
1503525280088,-5, -3, -3, 1, 5, 3, 14, 3
1503525280104,-2, 1, 1, 2, 5, -6, -5, -8
1503525280127,-1, 5, -3, -4, -5, -5, -9, -7
1503525280148,2, 13, 1, 0, 1, 3, 2, 2
1503525280164,4, -2, -2, -4, -9, -17, -7, 35
1503525280186,2, -1, 1, -1, -1, -7, -5, -6
1503525280208,-3, 0, -1, -3, -5, -10, 1, -5
1503525280231,-2, -3, -2, 0, 0, 4, -12, 0
1503525280245,0, -3, 2, 3, 10, 7, 17, -1
1503525280268,-1, 0, -1, 1, 0, 11, 1, -6
1503525280291,-4, 3, -1, -2, 10, 11, -2, -7
1503525280306,-3, -4, -3, -2, -1, 1, -14, 3
1503525280331,1, -6, -3, 1, 9, -2, -1, -2
1503525280336,1, -1, -3, -3, -2, -19, -8, -6
1503525280357,1, 4, 0, -1, 4, 7, 1, -17
1503525280380,2, 1, 3, 1, 0, -6, -5, -27
1503525280398,2, 0, 0, 1, 7, 8, 6, -5
1503525280410,0, 1, 1, 0, 4, 30, 3, 8
1503525280426,0, 26, 7, 4, -1, -13, -1, -9
1503525280448,0, -15, -4, -3, -1, -9, 1, 19
1503525280471,-1, -4, -1, 0, 1, 13, 0, -3
1503525280485,-1, 0, -2, -4, -6, -10, 0, 5
1503525280508,-2, -1, -2, 1, -1, -6, -15, -8
1503525280532,-1, -2, -2, -2, 1, 0, 9, 3
1503525280545,0, 15, 1, -4, -7, 2, 22, 3
1503525280560,-3, 0, -2, -2, 1, -2, 0, -9
1503525280576,3, 4, 1, 3, 5, 5, 3, 3
1503525280600,-1, 2, -1, -2, 3, 9, 2, -3
1503525280620,2, 2, -3, 0, -4, 1, 3, 8
1503525280636,-5, -5, 1, 0, -2, -9, -1, -20
1503525280658,-3, -4, 1, 3, -3, 0, 0, -20
1503525280680,0, 3, 1, -5, -2, -8, -7, -8
1503525280696,-6, 2, 1, -3, -10, -17, -4, -4
1503525280718,3, 1, 0, -1, 2, -1, -4, -32
1503525280740,0, 2, 1, 1, 9, 21, 3, 4
1503525280756,3, -2, -3, -3, -2, -9, -7, 12
1503525280778,-2, 1, -2, -2, -1, -11, -1, -3
1503525280802,-1, 4, -3, -2, -3, -25, 2, 9
1503525280823,4, -9, -3, -2, 0, 21, 9, 26
1503525280845,3, 17, 2, 1, -3, -1, -5, -5
1503525280860,-1, -4, -2, -2, 1, -2, -4, 9
1503525280877,-2, -3, 0, 1, 3, 7, -1, 14
1503525280899,-2, -2, -1, -2, -2, -2, 8, 6
1503525280921,0, 11, -1, -3, -3, -3, 1, 7
1503525280937,-1, -9, -2, -2, 0, -2, 4, -1
1503525280958,3, 1, -2, 0, 3, 9, 0, -9
1503525280987,-2, -3, -1, 1, -4, -7, -2, 6
1503525280995,2, 2, 2, 5, 5, 5, 1, -8
1503525281018,0, 13, 1, 0, 1, 15, -7, -6
1503525281044,0, -8, 0, 4, 3, 2, 4, 9
1503525281055,-3, -3, -1, -4, -1, 3, -1, 3
1503525281081,-1, -4, -2, -3, -2, -8, 1, 5
1503525281100,-5, -18, -3, -1, 1, 11, -1, -16
1503525281113,-1, -10, -4, -1, -5, -21, 1, 32
1503525281131,-6, 2, -2, 0, 1, 6, -4, -9
1503525281153,2, 0, -2, -2, -4, 0, 5, -7
1503525281170,0, -2, 2, 0, 5, 19, -1, -4
1503525281190,0, -3, -1, 0, -3, -11, -6, -2
1503525281214,-5, 0, 0, -1, -3, -9, 6, -5
1503525281228,5, -2, 0, 1, 2, 0, -15, -4
1503525281243,-4, -4, -2, -5, -12, -18, -1, -5
1503525281258,-2, -2, 1, 1, 2, 5, 2, 4
1503525281280,1, 8, 1, 9, 8, 13, 4, 9
1503525281304,-1, -8, -3, -4, -2, -16, -2, -10
1503525281318,2, -3, -1, -3, -1, 2, -18, -13
1503525281341,0, -4, 1, -2, 2, 11, 2, 12
1503525281362,-4, 1, -1, -3, -8, -22, -5, -1
1503525281378,5, 14, 1, -3, -1, -11, 8, 11
1503525281400,-1, -8, -2, -2, 0, -2, 1, 9
1503525281422,-3, -6, -2, -1, 0, -2, 5, -12
1503525281444,-1, -1, 1, 2, 13, 15, -2, 8
1503525281460,-2, -11, -1, 0, -2, 0, 5, 15
1503525281482,1, -2, -4, -1, 0, 3, 7, 11
1503525281498,-3, -1, -2, 0, 5, 1, -5, -20
1503525281520,-2, -3, -1, -2, -4, -7, 0, -2
1503525281542,-1, -1, -2, 6, 18, 85, 1, 5
1503525281550,-5, -8, -1, 1, 5, 3, 1, -15
1503525281573,1, -5, -2, 0, -4, -3, -2, -7
1503525281588,1, 3, 1, -1, -4, 2, -1, 9
1503525281611,6, 4, 1, -1, -2, 32, -2, 8
1503525281633,1, 3, 2, -3, -6, -9, -3, 7
1503525281649,-1, -1, -1, -1, 1, -1, 5, 26
1503525281673,1, 2, -2, -2, -8, -13, 1, 21
1503525281693,-3, -2, -1, 3, 9, 11, 18, -6
1503525281709,1, 0, 0, 2, 4, 7, 1, -8
1503525281730,-4, 11, -2, 0, -4, -23, -28, -3
1503525281753,-2, -14, -4, -2, -2, -7, -4, -3
1503525281768,-1, -1, -1, -3, -10, -11, -4, -6
1503525281790,-3, -2, 1, 1, 3, 8, -1, -9
1503525281813,-1, 2, -1, -2, -1, 8, -4, 0
1503525281829,1, -3, 0, 1, 5, 15, -21, -21
1503525281851,-1, 4, -1, -1, -8, -10, 12, -10
1503525281876,-1, 1, 1, 1, 1, -2, -2, -10
1503525281888,4, -3, -1, -2, -2, -13, 2, 3
1503525281911,-3, -4, -2, -1, -3, -9, -16, 3
1503525281933,3, 5, -2, 0, -2, 3, -4, 29
1503525281948,-3, 0, 1, 0, -1, -11, 7, -7
1503525281970,-2, -6, -1, -1, 5, -5, 1, 1
1503525281993,2, 1, -1, 0, -1, 15, 7, 0
1503525282010,-3, -2, -4, -4, -7, -11, -3, 2
1503525282030,0, -1, -3, -3, -7, -2, 4, -2
1503525282053,-2, -10, 0, 1, -1, -2, 7, -1
1503525282060,-5, -8, -3, -3, 8, 32, -1, -12
1503525282084,5, -1, 0, -1, 3, 10, 2, 16
1503525282106,-3, 0, -1, -2, 0, -1, -11, -13
1503525282128,1, 1, 1, 3, 4, 26, 1, -5
1503525282135,0, 1, 2, -2, -5, -5, -5, 7
1503525282151,-3, -1, -2, -1, -5, 14, 1, -7
1503525282173,-2, 0, -3, -6, -8, -7, 1, -3
1503525282196,-1, 0, -1, -1, 3, 19, -9, -8
1503525282211,0, 0, 0, 3, 15, 2, -8, -15
1503525282233,-2, 1, -3, -5, -9, -25, -1, 26
1503525282256,-1, 0, 1, -2, -8, -12, -16, -3
1503525282270,-1, -1, -4, -5, -5, -1, 17, 3
1503525282293,-2, 2, 0, 2, 1, -11, -3, -4
1503525282315,-5, 1, 1, 2, 3, -11, -1, -15
1503525282323,-1, -2, -5, -5, -10, -10, -11, -17
1503525282347,0, -1, -1, 2, 14, 27, 9, -5
1503525282361,-3, -1, 8, 7, 4, -5, -4, -13
1503525282384,3, -3, -5, -4, 1, 11, -4, -14
1503525282406,-1, 1, 0, -1, -6, -8, -8, -17
1503525282429,-2, -6, -3, 0, 6, 1, -10, 2
1503525282455,3, -2, 4, 2, 6, 4, 5, 2
1503525282473,-2, -1, -1, -3, -5, -5, -6, -9
1503525282495,-1, -1, -2, -5, 5, 5, -4, 7
1503525282513,-2, -5, -4, -2, 2, 8, 10, -3
1503525282533,-5, -2, -3, 0, -5, -10, -1, -7
1503525282555,2, 0, -4, 0, -1, 4, 4, 5
1503525282563,2, -2, -1, 1, 0, 31, 1, 5
1503525282587,-2, -1, -2, -2, -10, -25, -5, -9
1503525282608,-2, 0, -1, -2, -12, -30, -13, 1
1503525282623,-1, -1, -2, -2, -2, 14, 4, -6
1503525282647,-2, -5, -3, -3, -4, -7, -11, -11
1503525282668,4, -1, -2, -2, 3, 1, 15, 16
1503525282684,4, 2, 0, 8, 4, -3, 4, 1
1503525282706,-4, -2, -2, -4, -2, 1, -7, -7
1503525282728,2, -1, -2, -4, -1, -6, 10, 12
1503525282743,-2, 0, -3, -5, 6, 21, 7, 0
1503525282766,-3, -1, -2, 0, -10, -40, -20, -27
1503525282790,-1, -2, -1, 1, 5, 13, -12, -1
1503525282804,0, 2, -2, -3, 0, -1, 0, 24
1503525282826,-4, 0, 0, 0, 6, 8, 2, -3
1503525282849,2, 0, -1, -2, -10, 2, 21, 13
1503525282863,5, -1, 0, -2, -5, -9, -11, -15
1503525282886,-3, 0, -1, 0, 0, -8, 0, -12
1503525282908,1, -3, -2, 1, 2, 12, -6, -23
1503525282916,-4, -1, -4, -4, -6, 20, 3, 15
1503525282930,-6, 1, 0, -1, 0, 1, 2, -1
1503525282948,-2, -1, 0, -2, -2, -3, 3, -18
1503525282969,-5, -2, -4, 3, 4, 9, 13, 3
1503525282984,2, 0, -2, -1, 0, 19, -6, 26
1503525283006,3, 1, 0, -2, 3, 3, -12, -19
1503525283028,2, 0, 1, 0, 2, 4, 10, -26
1503525283043,-1, -2, 2, -2, 0, 2, -12, 20
1503525283067,-2, 0, -1, 2, 10, 4, -2, -4
1503525283088,-3, -3, -2, -2, -7, -27, -33, 4
1503525283103,-1, 0, -2, -1, 5, 5, 4, 2
1503525283126,5, 1, 1, -4, -3, -2, -9, 0
1503525283150,-4, 0, -2, 0, 1, 19, -18, 5
1503525283163,-2, 0, 2, -1, -5, -16, -4, -33
1503525283186,-4, -2, -1, -2, -5, -8, 29, -4
1503525283209,-10, -4, -1, 3, -16, -21, 2, 37
1503525283223,0, 0, -2, -1, 4, 4, 3, -4
1503525283247,5, 0, -1, -6, -11, -15, -2, -6
1503525283268,-4, -1, 5, 11, 4, 3, 40, 19
1503525283286,2, 0, -1, 19, 4, 8, -8, -3
1503525283306,-1, -2, -3, -5, 0, -1, -13, 3
1503525283329,-1, -8, -12, -32, 2, 6, -12, -24
1503525283343,-6, -4, -7, -22, -4, -7, -5, -4
1503525283366,3, 4, -1, -8, -6, 3, 0, 27
1503525283389,5, 2, -1, 4, 6, 5, -12, 44
1503525283411,-1, -6, 5, 13, 7, 0, 2, -29
1503525283427,1, 3, -2, -2, -2, 2, 1, -2
1503525283449,-3, -8, -1, -2, -5, -4, -3, 20
1503525283463,-4, 1, -5, -4, 10, 33, 18, -17
1503525283486,1, 2, 2, 5, -2, -19, -19, -20
1503525283509,-1, 3, -2, -7, -4, -1, -13, -40
1503525283523,0, 0, 3, 6, 0, 6, 0, 15
1503525283546,-1, 12, 3, -1, -2, -8, -11, -8
1503525283569,-2, -3, 0, 2, -1, 8, 4, 1
1503525283583,-1, -2, 2, 3, 1, -4, 5, 3
1503525283606,-2, -2, -4, 3, 0, 0, 11, -1
1503525283629,5, 0, 3, 15, -6, -1, 23, 45
1503525283643,2, -2, 2, 3, 32, 67, 8, 18
1503525283666,-2, -5, 0, 0, -3, -11, -9, -12
1503525283691,-1, 2, 0, -2, -1, -7, 5, -15
1503525283703,-4, 0, -8, -9, -9, -6, 13, 36
1503525283726,-4, -6, 2, 0, -8, -26, -1, -30
1503525283749,0, -2, -2, -2, -2, -13, -4, -15
1503525283763,4, 1, 4, 3, 1, -3, -4, -1
1503525283787,-3, -4, -9, -19, -9, -5, -2, 1
1503525283793,4, 2, 1, 2, -7, 1, 4, 11
1503525283815,2, 2, 0, -2, 5, -10, 2, 7
1503525283838,-2, -3, -1, -1, -4, -4, -12, -7
1503525283855,-1, 3, 3, 4, -2, -1, -1, -3
1503525283875,-5, 0, -2, -5, -9, -6, 0, -4
1503525283883,4, 6, 2, 0, 4, 9, 9, 19
1503525283906,-2, -5, -3, -2, 4, -7, -13, -15
1503525283930,-1, -1, -1, 0, -2, -5, 12, 2
1503525283950,-2, -1, -1, 0, 3, 2, -3, -7
1503525283966,-2, 0, -1, -2, -1, 4, 1, 17
1503525283990,-2, -2, 1, -1, -2, 0, -7, -12
1503525284010,-2, 0, -2, -4, 6, 1, -3, -3
1503525284027,-3, -3, -2, -3, -6, -17, 1, -2
1503525284049,-4, -15, -4, 1, -2, 7, 1, -9
1503525284070,-1, 0, 2, -1, 0, 4, -1, -13
1503525284090,0, 2, 2, 0, -2, 8, -2, -8
1503525284109,1, 1, 0, -3, -6, -12, -7, -1
1503525284131,0, -1, -2, 0, -2, 6, 0, 6
1503525284146,-1, 1, 0, -1, 2, -7, -5, -3
1503525284169,1, 3, 3, 5, 15, 33, 0, 0
1503525284191,3, -1, -3, -3, -6, -15, 2, 16
1503525284206,0, 1, -1, 1, -2, -6, -5, -5
1503525284229,-2, 3, -3, -3, -1, 17, 4, -4
1503525284250,4, 0, 1, -2, -8, -18, -2, 6
1503525284267,-6, -5, -2, -2, 0, -2, -10, -9
1503525284291,-3, -5, -2, 0, -10, -24, -5, -13
1503525284310,2, 3, 7, 9, 35, 71, 4, 5
1503525284329,1, 2, -1, -3, -7, -7, -3, -14
1503525284349,-2, -2, -1, -1, 0, -9, 1, -5
1503525284370,1, -1, -1, 0, -3, -24, 0, 12
1503525284386,-1, -2, -1, -2, 0, -3, -12, -18
1503525284409,1, 3, 1, 5, -6, -15, 2, 8
1503525284430,-1, -2, -2, 0, 3, 6, 0, -2
1503525284438,-1, 4, -2, -4, -6, -7, -8, -6
1503525284460,4, -1, -2, 1, 5, -1, -11, 57
1503525284476,-2, 6, 4, 1, -5, -10, 5, -21
1503525284499,0, -4, -3, -3, -5, -19, 7, 21
1503525284520,3, -2, -1, -1, 2, -4, -5, -7
1503525284536,-5, 0, -2, -1, -1, 4, 7, -10
1503525284559,-1, -1, 0, 0, 1, -1, -8, -22
1503525284580,1, -1, 0, -1, -7, 2, -3, -4
1503525284596,-2, -1, 0, 2, -4, -7, -4, -14
1503525284618,-4, -4, -2, -3, -1, 0, 6, -9
1503525284640,-4, 0, 2, 2, -2, 37, -16, -66
1503525284655,-1, -4, -2, -5, -10, -18, 2, 3
1503525284678,0, 1, 0, -2, 0, 14, 7, 21
1503525284701,-5, -3, 0, 2, -3, -14, -7, -5
1503525284715,-3, 1, -1, 3, 7, 6, -6, -4
1503525284738,6, 0, -2, -2, 0, -5, 8, 0
1503525284762,0, -2, -1, -1, -4, -7, 9, 25
1503525284775,2, 2, 2, 6, 27, 56, 0, -10
1503525284798,1, -3, -2, -3, -7, -28, -4, 7
1503525284820,1, 1, -1, -5, -11, -14, 2, 10
1503525284836,3, -1, -3, -4, -10, -13, -11, -34
1503525284851,-4, -3, 1, 0, -1, -17, -7, -22
1503525284873,-2, -3, 1, -3, -7, 7, -3, -14
1503525284888,-2, -5, -2, -1, 1, 2, -4, -10
1503525284910,0, 14, -1, -2, 2, 2, 16, 9
1503525284934,-2, -8, -2, -4, -16, -18, 5, 8
1503525284948,-2, 2, 0, -2, 0, 0, 9, -9
1503525284964,0, -3, -1, 2, 3, -14, 1, -4
1503525284978,-2, -4, 0, -2, 5, -8, -17, 11
1503525285000,-1, -2, -1, -3, -12, -21, 0, -25
1503525285008,-4, -4, 0, 2, 3, -1, 1, -22
1503525285031,0, 1, 0, 2, 7, 32, -11, 1
1503525285053,-1, -2, -1, -3, -5, -37, -5, 22
1503525285069,1, -3, -1, -1, 3, -9, -7, -5
1503525285090,-1, -1, -3, 0, 1, 16, 12, -43
1503525285113,0, -2, -1, 1, -6, -3, -19, 19
1503525285130,-2, 2, 1, -2, -9, -16, 19, 9
1503525285150,1, 0, 2, 0, -5, 30, 13, -20
1503525285173,5, -4, -2, -2, 2, 2, 26, 1
1503525285188,-4, -1, -3, 0, 3, -2, 3, 0
1503525285210,-2, -1, 0, 1, 5, -5, -17, -35
1503525285235,1, -1, 1, 0, -2, 18, 23, -8
1503525285248,-4, 3, 1, -5, -25, -2, -35, -14
1503525285273,-2, -2, -2, -2, -2, -28, -5, -2
1503525285293,-2, 0, -5, -1, 9, -2, 3, 16
1503525285309,0, 1, -1, 0, -1, -13, -7, 6
1503525285332,0, -10, -2, -3, 0, -2, 21, 5
1503525285353,1, 2, -2, -1, 8, 20, 5, 9
