1503695352769,-1, -1, -4, -1, 0, -2, 0, -1
1503695352791,0, 2, 0, 0, 0, 0, -1, -1
1503695352815,-2, 0, -3, -1, 0, -1, -2, -2
1503695352829,1, 0, 0, -5, -3, -3, 1, -2
1503695352853,-1, 1, 0, 1, 0, 1, -2, 0
1503695352874,-3, -2, -3, 1, -4, -1, -1, 0
1503695352889,-1, -3, -1, -2, 0, -1, -1, -2
1503695352911,0, 0, 1, -1, 0, 0, -2, 1
1503695352920,-2, 2, -3, -2, -2, 0, -2, -1
1503695352941,1, -2, 2, 0, 1, 0, 0, 0
1503695352963,-4, 0, -2, -1, -3, -2, -1, -2
1503695352978,-1, -3, -2, 0, -1, 0, -1, -1
1503695353001,-2, 1, -2, -1, 1, -2, -1, -1
1503695353023,2, -5, -1, -3, -1, -3, -1, -1
1503695353039,0, 0, -3, 1, 0, 2, 0, -1
1503695353062,0, 0, -1, 1, -2, -1, 0, 0
1503695353083,-1, 0, 2, 0, 0, -3, 0, -1
1503695353123,-1, 1, 0, -1, 1, -3, -2, -1
1503695353144,-2, 0, -1, 0, 0, -1, -1, -1
1503695353158,0, -4, -1, -1, -1, -1, -3, -1
1503695353181,-2, 0, -4, 1, 1, 0, 1, -1
1503695353205,-1, -2, 0, -6, -2, 1, 0, -1
1503695353220,1, 0, 2, 1, -1, 0, -2, -2
1503695353241,0, -1, -1, -2, -1, -1, 1, 3
1503695353263,-1, 0, -4, -3, -3, -2, -2, -1
1503695353278,-1, 2, 2, 0, 0, -1, -1, 1
1503695353301,0, 0, -3, 2, 1, 1, -4, 1
1503695353330,0, -1, 0, 1, 1, -2, 2, 0
1503695353339,0, -1, -2, -1, -1, -1, -1, -1
1503695353361,-2, 0, 1, 0, -1, 1, 0, -1
1503695353383,1, -1, 1, -2, 0, -1, 0, 0
1503695353398,-2, -3, -3, 1, -2, -2, 0, -1
1503695353422,-1, -3, -1, -2, -3, -1, -1, -2
1503695353443,-3, -1, -1, 0, 0, -1, 0, -1
1503695353459,-2, 0, -3, 0, -2, -2, -1, -1
1503695353481,2, 0, -3, -4, 0, 1, -3, 1
1503695353503,0, -2, 1, -2, -2, -2, -1, -1
1503695353518,0, 1, 0, -1, 1, 0, 3, 0
1503695353541,0, 0, 0, 0, -2, 0, -2, -1
1503695353563,-2, -1, -3, 0, 0, -2, -1, -3
1503695353578,-2, -1, -1, -1, -2, 0, -2, -1
1503695353601,-2, -1, -1, 0, 1, -1, -1, -3
1503695353624,1, -1, -1, -4, -1, -1, -3, 1
1503695353639,-1, -1, -1, 0, -2, -2, 1, -1
1503695353661,0, 2, -1, -2, -1, 2, 0, -1
1503695353683,-2, -2, 2, 3, 0, -1, -1, 0
1503695353706,-2, 0, -1, -1, -1, -1, 1, -1
1503695353721,-1, 0, -1, 1, 1, 2, 1, -1
1503695353743,-2, -2, 1, -2, -2, -1, -3, 0
1503695353767,2, 2, 0, 0, -3, -3, -1, -1
1503695353781,-1, -2, -3, -3, 0, 1, -1, 1
1503695353803,-1, 0, -1, -1, 0, -2, -2, 1
1503695353826,0, -4, 0, 0, 1, 1, -1, -3
1503695353841,1, -1, 1, 1, -2, -1, 0, -2
1503695353863,-3, -2, -2, -4, -1, -1, 0, 1
1503695353886,1, 0, -1, -1, 0, -2, -1, 1
1503695353901,1, 0, -2, 1, -1, -2, 0, 0
1503695353930,-2, -2, 1, -3, 1, -1, -2, -1
1503695353946,-1, -1, 0, 0, 1, -1, -3, -1
1503695353961,0, 1, 2, 1, -1, 1, -1, -2
1503695353983,-2, 1, 0, 0, -2, 0, 1, -1
1503695354006,-2, -3, -4, -2, 2, -2, 0, -3
1503695354021,-1, -3, -3, -4, -3, -1, -1, 0
1503695354043,1, 1, 2, 0, -2, -1, -3, 0
1503695354066,-2, -1, -1, 2, -1, 1, 1, -1
1503695354081,0, 2, -2, -1, 0, -2, -3, 0
1503695354103,-1, -1, 0, -1, -1, 0, 0, -1
1503695354128,-2, -1, 0, -1, 0, -2, -2, 0
1503695354141,-3, -2, -3, 0, -1, -1, 0, -1
1503695354163,2, -3, -1, -1, -3, -1, -1, -2
1503695354186,1, 2, 2, 0, 0, 2, 0, 1
1503695354201,-1, 0, -2, -3, -2, -1, -3, 0
1503695354223,-3, -1, 0, -2, -1, -2, -2, -2
1503695354246,-1, -4, -1, -2, -1, -1, -1, 0
1503695354261,-2, -2, -1, 2, -1, -2, 1, 0
1503695354283,1, 1, 0, 1, -3, 0, 0, -1
1503695354306,1, 2, 0, -3, 0, -2, 0, -1
1503695354321,-3, -2, 1, 0, 1, 0, 0, -3
1503695354343,0, -1, -1, 2, -3, -3, 1, -1
1503695354366,-2, -1, -2, -1, 0, 0, -2, -2
1503695354381,-1, -1, -1, -3, -1, -1, 0, -1
1503695354405,3, 2, -1, 0, -1, 1, 0, 1
1503695354426,0, -2, -2, -2, -1, 0, -1, 0
1503695354441,-1, -2, -1, 1, 0, 0, 0, 0
1503695354465,1, 1, 0, -2, -1, -1, -1, 0
1503695354486,-3, 0, -1, -1, 1, -2, 0, 0
1503695354502,1, -1, 0, 1, 1, -1, -2, -1
1503695354523,-1, -3, -1, 0, -1, -2, -1, -1
1503695354546,-1, 0, -2, -2, -2, -1, 0, -1
1503695354561,0, 0, 3, 1, -2, 1, -1, 0
1503695354584,-1, 0, -3, -3, 1, -2, 0, 0
1503695354606,0, 2, 0, -1, 1, 0, -1, 1
1503695354631,-2, -3, -1, -4, -2, -2, -1, -2
1503695354643,1, -3, -3, 0, -1, -3, -3, 0
1503695354658,-1, 1, -1, 1, 2, 1, 0, -1
1503695354674,-2, 0, -1, -1, 1, 0, 0, 0
1503695354698,-1, 1, -1, -1, -2, -3, -2, -2
1503695354718,-1, 2, 1, -1, 0, -2, -1, -1
1503695354734,-2, -4, -1, -1, -3, 2, -1, 1
1503695354756,1, -5, -2, -1, -2, -1, -4, -1
1503695354778,-2, -3, -2, -4, -1, -1, 1, -1
1503695354794,0, -1, 0, 2, -1, -1, -1, 0
1503695354816,-1, 1, -1, -1, -1, 0, 0, 1
1503695354839,-1, -1, 0, 0, 0, 0, -2, -3
1503695354854,-3, -3, -2, -4, -1, -3, 0, -2
1503695354876,3, 2, 2, -2, 1, 0, -1, -1
1503695354899,-1, -2, -3, 2, 0, 0, -1, -1
1503695354914,-2, 0, -1, -2, -2, -1, -1, -1
1503695354937,3, 0, 0, 1, -2, 0, 1, -2
1503695354958,-3, 0, 1, 2, -1, -2, 1, -2
1503695354974,-2, -1, -4, -1, 0, -2, -1, 1
1503695355000,-2, -4, -2, -4, 0, -2, 0, -3
1503695355018,0, -1, -2, 0, -2, 1, -2, -1
1503695355034,0, 0, -2, 0, -1, 0, 0, 0
1503695355056,1, -1, 1, -2, -1, -1, 1, -1
1503695355078,0, 1, -1, 1, 0, -1, 0, -1
1503695355094,-2, -2, 2, -1, 0, 0, -1, 0
1503695355116,-1, 0, 0, 1, -2, -2, 1, 0
1503695355139,-1, 1, -2, -3, -3, -1, -2, -1
1503695355154,-3, -2, -3, -2, 1, -1, -1, -1
1503695355176,0, 0, -2, -1, -1, -2, -3, -1
1503695355198,0, -1, 2, 1, -2, 1, -2, -2
1503695355215,0, -2, -2, -4, -2, -1, -3, -1
1503695355236,-2, 0, -1, -1, 3, -1, -1, -1
1503695355259,1, 0, 0, 2, -1, -1, 0, -1
1503695355275,0, 0, -2, 1, -1, 0, -1, 0
1503695355296,0, 1, 3, 0, -1, -3, -1, -1
1503695355318,0, -1, -1, -2, -3, -1, 0, -1
1503695355337,-1, 0, 3, 1, 0, -2, 1, -1
1503695355356,-3, 0, -1, 0, -1, -1, -2, -1
1503695355379,-1, -5, -2, -3, -2, -1, -3, -2
1503695355394,3, 3, 0, 0, -1, 2, 0, -1
1503695355416,-1, -1, -2, -2, 1, 0, 0, 1
1503695355439,-4, -2, -2, 2, 0, 0, -1, 0
1503695355454,0, 2, -3, 1, 0, -2, -1, -2
1503695355476,-1, -3, -2, -4, -2, -2, 0, 0
1503695355498,0, -1, 2, 1, -3, 0, -1, -2
1503695355514,0, -3, 0, -2, 0, -1, 0, 0
1503695355539,1, 0, -2, 0, 2, -2, 0, 0
1503695355558,-1, -3, -2, 1, -4, 0, 0, 1
1503695355581,-1, -2, 0, -2, -2, -1, -2, -2
1503695355596,-3, 0, -3, -5, -1, 0, -1, -3
1503695355618,-2, -3, 0, 1, 1, -2, -2, -2
1503695355642,1, 2, -1, -3, -2, -1, 0, -1
1503695355656,1, 2, 0, -1, 3, 0, -2, 0
1503695355678,0, 1, -1, 0, 0, -1, -4, -1
1503695355701,-2, 0, 1, -2, -1, -2, -1, 0
1503695355716,-1, -2, -1, 1, 0, -4, -1, -3
1503695355739,-3, -1, -1, -2, -2, 1, -2, 0
1503695355761,-1, -1, -1, -3, -1, -1, 1, -1
1503695355776,1, -1, 0, 1, -2, -1, 1, 0
1503695355798,1, -2, -1, 2, -3, 0, -1, 0
1503695355821,-1, 0, 0, -3, 0, 0, -1, -1
1503695355836,-2, 0, -3, -2, 0, 1, -1, 0
1503695355858,1, 1, -3, -1, -4, -1, 1, 2
1503695355883,-2, -1, -1, -1, 1, -2, -1, -2
1503695355896,0, -3, 0, -1, 0, 1, 0, 0
1503695355918,3, 0, 0, 2, 1, 0, -1, -1
1503695355941,0, 0, 0, 0, 0, -1, -2, -2
1503695355956,-1, -1, -2, 0, -1, -1, -1, -3
1503695355978,-1, -1, -2, -4, 0, -2, -2, 0
1503695356001,-1, 0, 0, -3, -3, 1, -1, -1
1503695356016,-2, -2, 1, 1, 0, 0, 0, 1
1503695356041,-1, 2, 1, -1, -4, -3, -2, 1
1503695356061,0, -2, -1, -3, 1, 2, -1, -2
1503695356077,-1, -2, 1, 0, 1, -2, 0, 0
1503695356098,0, -1, -2, -2, -1, 1, 1, 0
1503695356121,-2, -1, -4, 1, -1, -3, -1, 0
1503695356136,-2, -1, -1, 1, -2, 1, -2, -3
1503695356158,-3, -2, -2, -2, 1, -1, -2, -2
1503695356181,0, -1, 0, -1, 1, -1, 0, -1
1503695356196,-3, -2, -2, -1, -3, -2, 1, -2
1503695356218,1, 0, -2, 1, -1, 1, 0, 1
1503695356242,0, -1, 2, 0, 0, -1, 1, 0
1503695356256,-1, -1, -3, 1, -1, -2, -3, -2
1503695356278,1, -2, 0, -2, 1, 0, -1, 0
1503695356300,2, -1, 0, -1, -1, 2, 0, 0
1503695356309,-2, -2, -3, 2, -3, 1, -1, 0
1503695356330,-2, 2, -1, -1, 0, -3, -1, -1
1503695356346,1, -3, -2, 2, 0, 0, -1, -1
1503695356361,-1, -2, 3, 0, 1, -1, -2, -1
1503695356378,-1, 1, 0, -1, 0, 0, 0, 0
1503695356398,-3, -2, 0, -3, 0, -2, 0, -3
1503695356421,0, 0, -4, 0, -1, 0, -3, -1
1503695356436,-2, 0, -2, -2, -1, -1, 0, -1
1503695356458,-2, -1, -2, 0, -1, 0, -1, 0
1503695356481,0, 1, -1, 0, 0, 0, -1, 0
1503695356503,-2, -2, 0, -2, -2, -1, -3, -2
1503695356519,-1, 0, 3, 2, -2, -1, -2, 2
1503695356541,0, -3, -4, -2, 1, 1, 1, -1
1503695356563,-2, -1, -1, 0, -1, -2, -1, -1
1503695356578,-1, -1, -1, -2, -1, 1, -1, -1
1503695356600,-1, 0, -1, -3, 1, -2, -1, -1
1503695356608,-3, -4, -4, -2, -3, -1, -2, -1
1503695356630,-3, 1, 0, 1, 0, 0, 0, -3
1503695356653,1, 0, -1, -3, -2, -1, -4, -3
1503695356668,0, 0, -2, 0, 2, -1, 1, -1
1503695356690,3, 2, 1, 0, 1, -1, 1, 2
1503695356713,-2, -1, -2, 0, 0, -1, 0, -2
1503695356728,1, -1, -4, -1, -3, -1, 0, 1
1503695356750,-4, -3, 2, -3, -1, -1, -2, 0
1503695356772,1, 1, -1, 3, -2, -3, -1, -1
1503695356789,-1, 0, 0, -3, 1, 0, -1, 0
1503695356810,-2, -3, -2, -2, -5, -2, -2, -1
1503695356832,0, 0, -2, 1, 2, 1, -2, -3
1503695356848,0, -2, 1, -1, -2, -1, 0, 0
1503695356870,-2, 1, -2, -3, 0, -1, -2, -1
1503695356892,1, -2, 1, -1, -1, -2, 0, -2
1503695356908,-1, 0, -3, -3, 1, -3, 1, 2
1503695356930,0, -2, -2, 2, -1, 2, -2, 1
1503695356952,0, 0, 0, 0, 1, -2, -1, 1
1503695356968,-3, -4, -2, -2, -2, 1, -1, -2
1503695356991,0, -2, -1, 1, -2, 0, -1, -3
1503695357015,0, 0, 1, 0, 0, -3, 0, -1
1503695357028,-1, -1, 0, -1, -2, 2, 0, -1
1503695357050,-2, 0, 2, -1, 0, 1, 0, -2
1503695357072,1, 1, -2, 0, 0, -1, -2, 1
1503695357089,-1, -1, 0, 1, -1, -2, -1, 0
1503695357116,0, -1, 0, -2, -2, -1, -1, -2
1503695357133,-3, 0, -2, -2, 1, 0, 0, -1
1503695357148,1, -1, 1, -4, -1, -3, 0, 0
1503695357170,-2, -2, -1, 3, -1, 1, 0, 1
1503695357192,-2, -5, 1, 1, -2, -2, -2, -2
1503695357200,-1, 0, -3, -2, 1, -1, -2, 0
1503695357224,0, -3, 0, -1, 1, -1, 0, -2
1503695357241,-2, -3, 0, -1, -1, 0, -2, -2
1503695357261,-1, -1, -1, 0, -1, -3, 1, -3
1503695357285,1, 0, 0, 1, -2, -1, -3, 2
1503695357298,-3, -1, -2, -4, -3, 2, -1, -1
1503695357320,0, -1, 3, 1, -1, 0, -2, 0
1503695357343,-2, -1, -5, -3, 0, 1, 0, 0
1503695357358,1, -1, 0, -1, -1, -1, 0, -2
1503695357384,0, -1, -1, 0, 1, -3, -1, 0
1503695357403,-2, -1, -1, 0, -2, -1, 2, 0
1503695357426,0, 1, 0, -2, -1, 1, -1, -3
1503695357441,-1, 0, 0, -1, 0, -3, -1, -2
1503695357463,-1, -1, -1, -3, 0, -1, -1, 0
1503695357486,1, -1, -1, 1, 0, 0, -1, -1
1503695357500,1, 0, 0, -1, 0, -1, -2, 1
1503695357523,0, -1, -2, -2, -3, -1, 0, -1
1503695357546,-2, -1, -2, 0, 1, -3, 1, -2
1503695357560,-3, -3, -3, 1, -3, 0, -2, -1
1503695357593,-1, 1, -1, -3, -3, -1, -1, -1
1503695357612,-1, -2, 0, 0, -1, -2, 0, -3
1503695357635,1, -2, -1, -1, -1, -1, -1, 0
1503695357660,-1, -1, -2, -2, -1, 0, -1, 0
1503695357666,-2, 1, 1, -2, 1, 2, 0, 0
1503695357680,-1, -2, -3, 0, 0, -1, -1, 0
1503695357703,-2, -1, -3, -1, -2, -2, 0, 0
1503695357726,1, 0, -2, -2, -1, 0, -3, -2
1503695357740,-2, -1, -1, 1, -2, 0, -2, 0
1503695357763,1, 0, 0, -3, -1, -1, -2, -1
1503695357791,-2, 1, 0, 1, 0, 1, 0, -2
1503695357802,1, 0, -1, -3, 1, 0, -1, -1
1503695357823,-2, 0, -1, 2, -1, -2, 1, -2
1503695357846,1, -2, -1, -3, -1, -1, -1, 0
1503695357861,-2, 0, -3, 0, 0, -1, -2, -1
1503695357883,-1, -1, 1, -1, 2, -1, 1, 0
1503695357905,-1, -4, -1, -1, -3, -2, -1, -2
1503695357928,0, 0, -1, 1, -3, -2, -2, -1
1503695357943,-1, 0, 1, -2, -2, -2, 0, -1
1503695357965,-1, -1, 0, -1, 0, 1, -1, -1
1503695357980,-1, 0, -1, -3, 0, -1, -2, -1
1503695358003,-2, 0, -1, 0, 2, -1, -3, 1
1503695358026,-2, 0, 0, -1, 0, 0, -1, -2
1503695358034,-1, -1, 0, 0, -3, -2, -2, -1
1503695358041,-1, -2, -1, 0, -1, -3, 0, -1
1503695358063,-2, -1, 0, -2, 0, 1, 0, 0
1503695358088,-1, -2, -3, 0, -3, -1, 0, -1
1503695358100,-1, 0, -1, -1, -1, -2, -1, -1
1503695358123,3, -1, 0, 1, -2, -1, -1, 0
1503695358146,0, 1, 1, -1, -1, -2, 1, 1
1503695358161,-2, -2, -1, -1, 0, 2, 0, -2
1503695358183,-2, -2, 0, -2, -1, -2, -1, 1
1503695358205,3, -2, -2, -2, -1, 0, 0, 0
1503695358223,-2, 0, -1, -1, -1, 1, 0, 0
1503695358243,0, -2, -1, -1, 0, -4, -1, -2
1503695358266,-2, 0, 0, -1, -1, 1, -4, 0
1503695358281,-3, -3, -2, -1, -1, -2, 2, 1
1503695358303,2, -1, -2, -1, -1, -1, -2, -3
1503695358326,-2, -1, 1, -1, -2, 1, -2, -1
1503695358348,0, 2, -2, 0, 1, -1, 0, -3
1503695358364,-3, -2, -3, -1, -1, 2, -3, -1
1503695358386,-1, -3, -1, 0, 1, 0, 0, -3
1503695358409,-1, -1, 0, -4, -1, 0, 0, 0
1503695358424,0, 3, -2, -2, -2, 0, -2, 0
1503695358446,1, -2, -1, 1, -1, -3, 0, -1
1503695358469,-1, -2, -3, 1, -3, -2, -1, -1
1503695358483,-2, -3, 0, -1, -1, -2, -1, 0
1503695358505,1, -2, 1, 0, -1, -2, -1, 0
1503695358530,-3, 2, -1, 0, -3, -1, 1, -1
1503695358544,0, -1, 2, -4, 2, -1, -3, 0
1503695358566,-1, 0, -2, 1, -1, 0, -1, -2
1503695358588,2, 1, -2, -2, -2, 1, 0, 0
1503695358603,0, -1, -1, 2, 2, 0, 1, -1
1503695358626,1, 2, 3, 2, -2, 0, 1, 3
1503695358648,-3, -1, 0, -2, 2, -2, -2, -1
1503695358664,-1, -2, -4, 0, -1, 0, 2, -2
1503695358679,0, -2, -1, -1, -2, 0, -2, -1
1503695358694,-1, -1, -2, 0, 0, 1, 1, -2
1503695358716,-1, 0, -1, 0, 0, 0, 0, -1
1503695358739,0, 0, 1, -5, 0, -1, 0, -2
1503695358753,-2, -3, 0, 1, -1, 0, -1, 1
1503695358776,-1, -1, 0, 1, -1, -2, -1, 0
1503695358799,1, -1, 0, -3, -1, -1, -2, -2
1503695358813,-1, 1, 0, -3, 0, 0, -2, -2
1503695358837,0, -4, -3, 0, -1, 2, -3, -1
1503695358860,2, 2, 2, -2, 0, -4, 0, 1
1503695358873,0, -2, -1, -1, -1, -1, 1, -1
1503695358896,0, -1, -2, 1, -1, -2, 1, -1
1503695358918,-1, 0, -1, 0, 1, -1, 0, 1
1503695358933,-1, -2, -1, 1, -1, -1, 0, -3
1503695358948,0, 1, -2, 1, -2, 1, 0, 1
1503695358970,0, -4, 1, -3, 1, -3, -2, -1
1503695358985,0, 1, -1, -1, -2, 1, -2, 2
1503695359008,-2, -1, -1, -1, 1, 0, 0, -1
1503695359023,-1, 0, -3, -1, -2, -1, -1, -2
1503695359045,0, 1, -1, -1, 1, -1, -1, -2
1503695359068,0, -3, 0, -4, -1, 0, -2, -1
1503695359084,0, 2, 2, -1, -1, -1, -1, -1
1503695359105,-1, -3, -4, -1, -1, 0, -1, -1
1503695359129,-1, 0, 1, 0, -2, 0, -1, -1
1503695359143,-2, 0, 1, -1, -1, -2, 0, -1
1503695359166,-1, 0, -1, 1, 0, 0, 1, 0
1503695359188,1, -2, -6, -3, -3, -4, -2, -2
1503695359204,-3, -2, 2, 0, 1, 1, -2, 1
1503695359226,0, 0, 2, 1, 1, 1, -2, 0
1503695359248,1, -1, -3, 0, -2, -2, 1, 0
1503695359271,-2, -2, 0, -4, 0, -1, -1, 1
1503695359286,0, 1, -2, 0, 0, -1, -1, -1
1503695359302,-1, -2, 0, -2, -2, -2, 3, 1
1503695359316,0, -1, 2, -1, 0, 1, -1, -1
1503695359341,-1, -4, -2, -2, -3, 0, -2, 0
1503695359361,-1, -1, -3, -1, -1, -1, -3, 0
1503695359376,-2, 1, -2, -1, 1, 1, 0, -1
1503695359403,0, 0, -2, -2, -1, -2, -1, -2
1503695359421,-1, -3, -2, -1, -1, -2, -2, -3
1503695359437,-1, -1, 0, 1, -1, 2, -1, -1
1503695359459,1, 1, -2, 0, -2, -1, 1, 4
1503695359480,-1, 0, 1, 0, -1, -1, -3, -2
1503695359498,-2, -2, 1, -1, 0, 0, -1, -1
1503695359518,0, 1, 0, 1, -1, -1, -1, -3
1503695359540,0, 1, 0, -3, 0, -2, -1, 0
1503695359548,0, 0, -1, -1, -2, 0, -1, 1
1503695359571,-1, 0, 1, -2, 2, 2, -2, -1
1503695359592,0, -1, -1, 2, -2, -1, -2, 0
1503695359608,-2, 2, -3, -3, 0, -2, -1, -3
1503695359633,-1, -2, 0, 3, -2, 0, 0, -1
1503695359645,1, -3, -1, -2, -1, 0, -2, -1
1503695359668,-1, 0, -2, 0, -2, 0, 0, -1
1503695359690,-1, -1, -1, 0, 3, -2, -1, -2
1503695359705,-1, 1, -1, -1, -1, 0, 1, -2
1503695359720,-1, -1, -1, 1, 1, -1, 1, -1
1503695359738,-2, 0, -2, -2, -3, -2, -2, -1
1503695359758,1, 2, -1, 2, 0, -1, 2, 1
1503695359781,-1, 1, 0, 0, -1, -1, -2, -1
1503695359796,1, -4, -1, -2, -2, 1, 0, -4
1503695359818,0, 0, -2, -1, -1, -3, -2, 0
1503695359826,-1, -2, 2, 1, -3, 0, -2, 1
1503695359848,-1, 0, -1, 2, 0, -2, 1, -2
1503695359873,-1, 0, -2, -1, 1, 0, -2, -1
1503695359885,0, -1, -2, 0, 1, 2, -2, 0
1503695359909,2, 0, 0, -2, -2, -1, -1, 0
1503695359930,-2, -2, -3, -3, 1, 0, 0, 0
1503695359946,-1, 0, -2, -1, -2, -2, -1, 1
1503695359968,2, 0, 1, -1, -1, -3, -2, -3
1503695359991,-1, -1, -2, -3, -1, -1, 0, 2
1503695360006,0, -3, -1, 2, -2, 0, -1, -1
1503695360028,-2, -2, -3, -1, -1, -1, -1, -3
1503695360050,-1, -1, 0, 0, -1, -1, 1, 0
1503695360058,0, 1, 1, -1, 1, -3, 1, 0
1503695360081,-1, -2, 1, -3, -1, -2, -4, 0
1503695360096,1, -2, -3, 0, -1, 1, 0, -3
1503695360118,0, 2, 0, 1, -2, -5, -1, -1
1503695360125,0, -1, 0, 0, 3, 1, 1, -1
1503695360141,-2, -1, -2, -2, -1, 3, 0, 0
1503695360156,0, -1, 1, 1, 0, -3, 0, -1
1503695360179,-2, -1, 1, -3, -2, -2, -1, 0
1503695360203,-1, 1, -1, 1, -2, -3, -1, -1
1503695360223,-1, 0, -2, -2, -2, 2, -1, -1
1503695360241,-1, -2, 1, 0, 0, -3, -1, -1
1503695360260,-1, 1, -2, 0, 0, 0, 0, -2
1503695360283,-1, -2, -1, 1, 0, -2, -3, -1
1503695360298,-1, -2, -1, -2, 1, 0, -1, -1
1503695360320,0, -4, 0, 0, -2, -2, 0, -1
1503695360337,-3, 2, 1, 0, 1, 0, -1, 0
1503695360357,-1, -3, 0, 1, 0, 1, -1, -1
1503695360373,-2, -1, -1, 2, 4, 1, 3, -2
1503695360388,1, 3, 0, -1, -3, 0, 1, 0
1503695360411,-1, -1, 1, -3, -18, -2, -2, -1
1503695360432,-3, -1, -1, -3, 3, 1, -2, -1
1503695360448,6, 9, 6, -1, -8, -3, -1, -1
1503695360477,6, -6, -7, -11, -22, -5, -2, 2
1503695360492,-6, -5, 4, 4, 12, 2, 0, -2
1503695360508,-5, -10, -5, 0, 12, -2, 0, -1
1503695360530,-6, -50, -36, -9, 0, -3, -3, -2
1503695360553,4, 19, 21, 1, -6, 0, 1, 2
1503695360568,4, 7, -6, 2, 6, 4, 2, 2
1503695360590,0, 20, 9, 2, 5, 0, 0, -5
1503695360612,-4, -7, -5, -5, -5, -1, 0, -4
1503695360628,-2, -15, -9, 0, 1, -2, -6, -4
1503695360651,-2, -1, 8, -3, 4, -3, 0, 0
1503695360676,3, 36, 26, 3, -23, -1, 1, 0
1503695360688,-2, -23, -16, -7, -13, -1, 1, 3
1503695360710,4, 31, 28, 5, 6, 1, 2, 1
1503695360741,-4, -49, -20, 3, 2, -2, -3, 0
1503695360763,-3, -28, -23, -4, 1, 6, 0, 2
1503695360779,-2, -15, -5, -5, 0, -3, 1, 1
1503695360800,-3, -10, 12, 12, 12, 1, -2, -7
1503695360823,-5, -26, -22, 4, 15, 2, 2, 2
1503695360841,1, 49, 30, 2, -1, -1, -6, -6
1503695360861,3, 12, 11, -1, -13, 4, 0, 2
1503695360883,-17, -59, -47, -8, -15, -12, -10, -9
1503695360898,-1, -17, -23, -13, 0, 7, 9, 5
1503695360921,4, 65, 51, 59, 30, -18, -14, -5
1503695360945,4, 9, -7, -12, -10, 1, 1, 1
1503695360959,-2, 3, -4, -1, -4, -10, 1, -1
1503695360984,-34, -82, -81, -10, 15, -23, -19, -32
1503695361003,-14, -71, -84, -11, 29, 33, 11, 10
1503695361020,3, 12, -6, -40, -80, -44, -14, 11
1503695361043,-25, 127, 105, -15, -1, 38, -12, -90
1503695361063,8, -91, -22, 50, 6, -114, -22, 15
1503695361079,3, 36, 38, -3, -3, -8, 3, -13
1503695361101,-3, -28, -20, -69, -67, -26, -12, 18
1503695361123,16, 5, 12, 6, -8, 17, 15, 13
1503695361146,20, 7, 6, -4, 23, 27, 18, 20
1503695361161,9, 1, 6, 7, 9, 40, 8, 14
1503695361183,8, 2, 10, 29, 49, 23, 12, 14
1503695361206,2, 0, 8, 32, 55, 23, 3, 3
1503695361221,-3, 0, 9, -26, -56, -7, -7, -8
1503695361244,6, 9, 4, -15, -62, -9, 5, 10
1503695361265,-2, 3, -1, 8, 12, 11, 3, -10
1503695361281,-5, 0, 1, 1, 19, 9, -1, -5
1503695361303,-2, 0, 4, 2, 0, 5, 3, 4
1503695361325,6, -1, -2, 2, 4, 1, 2, 2
1503695361341,3, 0, -4, -9, -10, -1, 0, 0
1503695361363,8, 1, 2, 10, 15, 5, 2, 9
1503695361386,-3, -3, -5, -5, 5, 1, 1, 0
1503695361401,-1, -3, -2, 7, 12, 1, -2, -1
1503695361423,-2, 0, 5, -7, -21, -2, 0, 0
1503695361445,-3, 0, -3, -6, -18, -4, 1, 2
1503695361461,0, 1, 7, 8, -18, -4, -7, -3
1503695361483,-2, 0, -7, -11, -6, -3, 2, 0
1503695361505,2, -2, -1, 6, 12, 4, 3, 1
1503695361521,0, 0, -2, -2, -1, -2, -4, -2
1503695361543,-2, -1, 1, 23, 1, -2, -1, 2
1503695361565,0, 0, -1, -18, -4, -4, 2, -1
1503695361581,0, 1, -1, 1, 8, 2, 2, 0
1503695361603,-1, -1, -3, -5, 7, 0, -4, 1
1503695361626,-1, -3, -5, -2, 11, 3, 3, 2
1503695361641,-4, 0, -4, -15, -4, -2, 1, -9
1503695361663,-2, -2, -1, 13, 7, -1, 0, -2
1503695361685,0, 27, 20, -1, -11, -2, -2, 5
1503695361701,-12, -18, -14, 2, 24, 4, 2, -8
1503695361723,-1, 0, 1, 5, 26, 6, -4, -9
1503695361747,-1, -1, -4, -1, -12, -2, 3, -7
1503695361761,6, -1, 4, 0, 0, -1, -7, -4
1503695361783,-1, -3, -8, -9, -9, -2, 0, 4
1503695361805,3, -10, -6, 0, 0, -1, 0, 5
1503695361821,2, 1, -2, 9, 12, 1, -2, 0
1503695361843,-3, -1, 2, -3, -10, -3, -4, -1
1503695361865,7, 1, 2, 3, -18, -1, 3, 13
1503695361881,-3, -9, -10, -12, -21, -5, -5, -5
1503695361903,-1, 4, 2, 1, 9, 1, -1, 4
1503695361925,-6, -4, 5, 0, 0, 0, -3, -7
1503695361941,1, 12, 18, -5, -12, -6, -3, 3
1503695361963,-7, -8, -10, -1, -7, -6, -3, -4
1503695361986,6, 3, 0, 0, 3, 10, -3, -10
1503695362001,-4, -2, -5, 1, 11, 3, 3, 0
1503695362023,-4, -15, -13, -3, 1, 0, -5, -13
1503695362031,-1, 25, 16, -2, -5, 11, 4, -4
1503695362053,-11, -24, -28, -12, 3, -8, -5, 5
1503695362075,10, -2, -2, 5, 18, 1, 5, -1
1503695362097,2, 1, 7, 5, 5, 4, 2, 9
1503695362113,-1, 25, 20, 6, -6, -2, 1, -3
1503695362134,1, -2, -2, -4, -9, 3, -7, -2
1503695362158,-3, 0, 10, 5, -7, -6, -4, -9
1503695362173,-3, -24, -24, -13, -12, -3, -2, 3
1503695362195,-7, -3, 3, 2, 0, -1, -1, -8
1503695362217,2, 3, 3, -1, 1, 1, 1, 0
1503695362233,-6, 3, 2, -1, -6, -2, -4, -7
1503695362255,3, 5, 0, 1, 1, -1, -3, -1
1503695362277,-3, -4, -1, -2, 5, 5, 7, -8
1503695362286,0, -3, 1, -2, 2, -2, -2, -1
1503695362308,5, 3, 2, 3, 4, 0, -4, 1
1503695362315,-5, -18, -17, -7, -3, -1, -1, -2
1503695362337,3, -8, -8, -2, 0, -1, 1, 5
1503695362354,3, 8, 8, 4, 3, 1, 6, 10
1503695362376,-5, 1, -8, -4, -1, -1, -8, -3
1503695362397,-4, -18, -11, -4, -4, -3, -2, -1
1503695362413,1, 3, 2, -2, -2, 0, 0, -2
1503695362434,1, 1, 1, 2, -2, -2, 0, 2
1503695362457,-1, 7, 12, 8, 8, -3, -5, 0
1503695362473,-2, -21, -12, -10, -14, -5, -3, -3
1503695362495,-1, -2, -9, -17, -9, -3, -4, 0
1503695362519,-3, -29, -19, -7, -7, 0, 2, -3
1503695362533,-1, 15, 11, -6, -12, -2, -2, -2
1503695362555,4, 13, 12, 27, 37, 5, 2, -2
1503695362577,-5, -2, 5, 2, 1, 0, -3, -7
1503695362593,0, -1, -2, 2, 8, 2, 7, 13
1503695362615,2, 13, 13, -4, -6, -4, -1, 2
1503695362637,-10, -7, -4, -4, 1, 1, -2, -1
1503695362653,4, -1, -2, -5, -12, -3, 0, 0
1503695362675,-6, -9, -3, -2, 2, 0, 0, -5
1503695362697,2, 6, -5, -3, 2, 0, -1, -4
1503695362713,14, 62, 39, 17, 10, 6, 3, 4
1503695362734,16, -4, 6, 4, -3, -1, -2, 3
1503695362758,15, 2, -4, -2, -1, 0, 1, 1
1503695362773,-18, -30, -18, -6, -12, -4, -2, -4
1503695362795,5, -7, -9, -4, 4, 2, -2, -15
1503695362817,-17, -23, -16, -8, -4, -2, -3, -20
1503695362833,4, 22, -5, 0, -3, -3, 1, -2
1503695362857,-16, -23, -9, -2, -3, -4, -4, 7
1503695362877,-11, 2, 6, -6, -22, -3, -4, -7
1503695362900,-1, -1, -4, -7, 2, -5, -4, 3
1503695362924,-10, -3, -5, 1, -14, -6, -9, -25
1503695362945,25, 19, 0, -2, 2, 0, 9, 26
1503695362968,-19, 12, 14, -10, -15, -4, -5, -24
1503695362983,-7, -4, 1, -5, -5, -3, -4, -2
1503695363005,-9, -4, -3, 3, -3, -1, 6, 1
1503695363028,15, 28, 30, 12, 10, 7, 4, -21
1503695363050,-6, -11, -6, -3, 14, -4, 1, -2
1503695363065,3, -4, -9, -6, -1, 0, -7, -7
1503695363090,-5, 27, 12, 0, -4, -3, -5, -4
1503695363110,-12, -16, -4, -2, 11, 1, 3, 16
1503695363126,-24, -8, -5, 5, 24, -1, -3, -3
1503695363148,-9, 14, 9, 0, -5, -2, 5, 2
1503695363170,10, -7, -9, -7, -15, -2, 1, 0
1503695363185,1, -1, 2, 3, -13, -3, -3, -4
1503695363208,4, -13, -14, -5, 1, 1, -16, -27
1503695363231,2, 2, 3, 3, 7, 1, -4, 2
1503695363253,2, -4, -8, -2, 1, 3, 5, 24
1503695363268,-9, 11, 22, 11, 0, 0, -4, -14
1503695363291,-15, -13, -9, -7, -3, -4, 1, -7
1503695363305,4, -2, -5, 2, -8, -1, 1, -2
1503695363328,9, 2, 0, -6, -3, -5, 3, 16
1503695363350,3, -5, -16, -10, -3, -2, -9, -23
1503695363366,21, -1, 3, 5, -4, 0, -6, 17
1503695363388,15, 8, 8, -4, 5, 1, 9, 2
1503695363410,-11, -2, 0, -3, -6, 4, 13, 10
1503695363426,2, 3, 2, 2, -2, -9, -2, 8
1503695363448,-12, 0, 1, 7, 5, -8, -5, -5
1503695363470,-8, -9, 2, 2, 2, 4, 5, -13
1503695363485,-25, 19, 20, 8, 5, 3, -9, -21
1503695363508,-5, -32, -25, -11, -5, -3, -6, 6
1503695363531,-8, 16, 13, 7, 5, 3, -4, -31
1503695363545,26, 16, 10, -1, -8, 0, 12, -8
1503695363568,11, 1, -4, 10, 0, 2, -5, 14
1503695363592,-16, -23, -17, -13, -3, 1, 12, 17
1503695363605,22, -3, -11, 2, 12, 1, -6, -4
1503695363628,1, 15, 6, -1, -1, 1, 2, 6
1503695363650,-3, -7, -6, -1, -5, -7, -11, -11
1503695363665,-6, -13, -8, -8, -7, 0, -9, -4
1503695363688,11, 15, 13, 10, 15, 4, 2, -4
1503695363710,15, 28, 22, 4, 2, -2, -4, 4
1503695363728,-7, -10, -16, -5, -1, -4, -1, 15
1503695363755,0, 15, 8, -6, -12, -1, 6, -1
1503695363778,-5, -9, -4, -5, -7, -1, -10, -13
1503695363801,-10, -14, -9, -2, 3, 0, 4, 0
1503695363823,-7, -2, 3, -1, 1, -2, -5, -18
1503695363839,17, 17, 7, 0, 0, -1, 1, -8
1503695363862,-1, -5, -2, -6, 4, 2, 5, -11
1503695363883,-10, -13, -16, -7, 0, 0, -11, 1
1503695363899,5, 0, -8, 0, 5, 2, -11, -28
1503695363905,16, 0, -3, 3, 3, 5, 5, 6
1503695363929,-3, -9, -1, -4, -4, 0, 3, -1
1503695363950,18, 14, 3, 7, 9, 2, 3, 18
1503695363959,-11, 8, 15, 10, 3, -3, -8, -9
1503695363982,-7, -21, -12, -2, 2, 2, 8, 14
1503695364003,2, -26, -13, -11, -9, -5, -8, -4
1503695364018,9, 28, 15, -2, -15, -3, -4, -5
1503695364041,-15, -8, -15, -1, -3, -2, -9, -15
1503695364064,9, -18, -15, -1, 4, 5, 11, 9
1503695364078,14, 4, 10, 8, 9, 0, 3, 5
1503695364101,22, 13, -6, -2, 1, 2, 16, 30
1503695364123,-8, -44, -26, -5, 1, -1, -7, -4
1503695364138,-4, 7, 4, -7, -9, -6, -5, -12
1503695364168,0, 3, 3, 1, 3, -3, 3, -9
1503695364183,10, 50, 37, 12, 8, 4, 3, 8
1503695364198,-7, -4, 9, 24, 10, 3, -3, -11
1503695364221,-3, -15, -10, -11, -6, -5, -4, -2
1503695364243,-15, -10, -8, -6, -2, 0, 0, -11
1503695364259,-2, 0, 3, 12, -9, -3, -20, -1
1503695364281,0, 0, -6, -11, -7, 11, -4, 13
1503695364303,-6, -8, -6, -4, -5, 7, 10, -9
1503695364319,-13, -5, -1, -3, 2, -4, -6, -13
1503695364341,-1, -3, -6, -10, -8, -6, 2, -6
1503695364365,1, -10, -4, 1, 9, 3, 3, -5
1503695364378,-7, -31, -10, -7, -1, -5, -2, 0
1503695364401,2, 12, 13, 3, 0, -11, -2, -1
1503695364423,-6, 5, -7, -4, -1, -3, 2, 1
1503695364438,11, 6, 6, -3, -12, 1, -6, -2
1503695364461,6, 8, 5, 10, -1, 2, -3, -3
1503695364483,-8, 2, -8, -6, -11, -4, 10, 1
1503695364500,6, 2, 5, -5, -6, -4, -4, -4
1503695364521,-2, -5, -8, -7, 8, 0, 2, -1
1503695364543,-6, -1, -3, 4, 4, 2, 2, 2
1503695364558,2, 3, 2, -2, 3, 0, -4, 0
1503695364581,8, 32, 16, 28, -3, 2, 2, 3
1503695364604,-3, -9, -8, -11, -8, -6, -5, 0
1503695364618,1, 0, 3, -9, -3, -2, -3, -7
1503695364641,0, 0, -3, -11, -6, -2, -3, -3
1503695364648,0, 2, -2, 4, 6, -3, -1, 2
1503695364670,6, -2, -6, 2, -5, -1, -2, -6
1503695364693,5, 8, 6, -5, -7, -1, 3, 3
1503695364708,-2, 8, 3, 6, 6, 2, 1, 0
1503695364730,-4, -10, -6, -6, -7, -2, -4, -5
1503695364753,-3, -11, -9, -3, 6, 0, 0, -2
1503695364768,-3, -3, -1, 4, -2, -2, 1, 2
1503695364790,2, 2, 0, 1, -4, 2, -1, -2
1503695364813,-1, 4, 3, 1, -4, -1, 0, -3
1503695364828,-1, -5, -6, -1, 1, -1, -1, 0
1503695364850,0, 1, 3, 3, 8, 0, -1, -1
1503695364873,-3, 0, 0, 1, 0, 0, 0, 0
1503695364895,0, -2, -3, -2, 0, -1, 1, 0
1503695364911,-1, 3, 3, -1, -3, 0, 0, 1
1503695364936,-1, -5, -7, -6, -3, -1, -2, 1
1503695364955,1, -1, -2, -2, -1, 0, 1, -2
1503695364970,0, 8, 9, 3, 3, -1, -2, 0
1503695364993,-3, -2, 2, -1, 1, -2, -3, 0
1503695365022,0, 5, -7, -2, -7, -2, 0, 0
1503695365030,2, -5, -7, -4, 2, 1, 0, 0
1503695365053,-6, -10, -6, 0, 0, -1, -2, -4
1503695365075,2, 18, 6, 0, 1, 1, 0, 0
1503695365090,0, -3, 6, -2, 1, -1, -1, -1
1503695365113,1, -3, 3, 2, -4, -1, -2, 0
1503695365138,-2, 5, 3, 1, 1, 0, 1, 0
1503695365150,-4, -5, -3, -2, -2, 0, -2, -4
1503695365173,1, -8, -8, 1, 1, -2, -1, 1
1503695365195,-2, -2, -5, 0, -2, 0, 0, -2
1503695365210,-1, -10, -10, -5, -5, -2, 0, -1
1503695365233,4, 8, 16, 4, -1, 0, -3, 0
1503695365255,1, -4, -11, -2, 1, 2, 1, -3
1503695365272,-2, 1, 3, 0, -6, -4, -2, -1
1503695365293,-2, -5, -2, -2, -12, -2, 7, 2
1503695365315,0, 1, 0, 1, -1, -2, -4, 0
1503695365340,-4, -5, -1, -5, 1, 0, -1, -2
1503695365353,2, -7, -9, -4, -7, -3, -2, 0
1503695365376,-9, -6, -5, -1, 4, 0, -3, -1
1503695365390,-2, -2, -2, -2, -2, -2, 0, 1
1503695365413,2, 10, 14, -2, 0, 0, 1, 0
1503695365435,2, 0, -1, 2, 5, -1, 1, 3
1503695365452,0, -1, 2, 5, 18, 2, -4, -3
1503695365474,1, 0, -1, 2, 1, 2, -4, -4
1503695365496,0, 0, -1, 2, -1, 1, 1, -3
1503695365511,4, 0, 1, 0, 3, -2, -3, 1
1503695365533,-4, -1, -6, -2, 0, -2, -2, -5
1503695365555,-1, -1, 4, 1, -1, 2, 3, 1
1503695365570,-6, -5, -3, -5, -5, -1, 3, -1
1503695365592,-1, -2, 4, 9, 7, 1, 3, 1
1503695365601,-1, 1, -1, -1, 3, -1, 6, 2
1503695365623,-1, -4, -6, -4, -4, -3, -3, -2
1503695365646,-1, 0, 0, 0, -1, 0, -1, -2
1503695365661,5, 3, 4, 0, 2, 0, 1, 0
1503695365683,-2, -1, 2, 2, 12, 1, 0, 0
1503695365707,6, 3, 2, 10, 14, 0, -1, 2
1503695365721,-23, -22, -10, -12, -26, -6, -8, -7
1503695365744,7, 13, 3, 0, -4, -1, 4, -1
1503695365765,-11, -31, -26, -6, -6, -1, 3, -1
1503695365781,1, -2, -2, -8, -11, -3, -6, -3
1503695365803,-1, 5, -1, 2, 1, -4, -7, -7
1503695365825,7, 5, 6, 3, 5, 0, 0, 3
1503695365849,1, 7, 6, -4, -8, 0, 0, 3
1503695365863,-7, -4, 3, 0, 1, 2, 2, -4
1503695365885,-1, -2, -3, 1, 7, 0, 1, -2
1503695365910,4, 10, 5, 1, 1, 3, 1, 5
1503695365923,-2, -10, -12, -5, -4, -2, 0, 2
1503695365947,-4, -2, -2, 0, 2, -3, -8, -4
1503695365968,1, 7, 6, 6, 2, -2, -1, -2
1503695365987,2, 1, 1, -4, -10, -2, -2, -1
1503695366005,5, 5, 2, -3, -3, -1, -2, 1
1503695366028,-1, -4, -3, -4, 4, 2, 4, 3
1503695366052,3, 13, 11, 2, -3, -4, 2, 3
1503695366065,-3, 4, 7, 3, 1, 2, 2, 0
1503695366088,0, -3, -3, -3, -11, -2, 0, 0
1503695366103,-2, -8, -6, 0, 1, 2, -3, -1
1503695366125,10, 27, 11, 4, 1, -1, 1, -1
1503695366148,-4, -14, -9, -2, 6, 2, 1, 0
1503695366163,-5, -9, -2, 1, -2, 0, -2, -4
1503695366186,5, 12, 2, 2, -1, -1, 0, -3
1503695366208,-6, -14, -6, -1, 1, -3, 0, -4
1503695366223,-9, -6, -7, -1, 0, -3, -4, -2
1503695366245,2, 15, 14, 3, 1, -4, 0, -1
1503695366268,-5, -7, -1, 2, -5, -1, -2, 0
1503695366283,-2, -13, -13, -5, -3, 1, 0, -2
1503695366305,3, 3, 1, 6, 12, 1, 1, -1
1503695366328,-8, -15, -4, -4, -1, 0, 2, -1
1503695366348,-1, -5, -6, -3, -1, 0, -1, 0
1503695366365,-1, -1, -8, -2, -9, -1, -5, 0
1503695366388,-3, -4, -4, -5, -5, -3, -1, -2
1503695366403,-4, 0, -1, -9, -13, -4, -2, 0
1503695366425,2, 9, 5, 8, 18, 2, -1, 0
1503695366448,7, 7, 6, 0, -9, -3, -1, 2
1503695366463,-3, -5, 8, 8, 15, 1, 0, -2
1503695366487,-2, -2, -17, -12, -10, -6, -5, -2
1503695366508,3, -7, -8, 2, 16, 5, 2, -1
1503695366524,5, 5, 4, -7, -2, 0, 2, 2
1503695366548,-4, -14, 2, 4, -10, -1, -2, -2
1503695366568,1, -2, -6, -9, -11, -4, 0, 0
1503695366584,1, -3, -4, 0, -2, 0, -2, -3
1503695366605,2, -1, -7, 0, -3, 2, -1, -2
1503695366627,-8, -18, -21, -5, 0, -5, -4, -7
1503695366643,-1, 0, -1, -2, 1, -1, 0, 1
1503695366665,6, 17, 14, 8, 2, 2, 6, 5
1503695366673,-1, 0, -8, -11, -10, -3, -1, -3
1503695366695,-8, -14, -6, -1, -1, 1, 2, 2
1503695366717,0, -8, -7, -6, -1, -4, -5, -5
1503695366739,7, -6, -12, -2, -5, -2, 0, 1
1503695366750,-3, -2, -2, -3, -3, -2, -3, 1
1503695366770,3, 2, 1, -1, -4, 1, -1, 0
1503695366787,0, 2, 6, -2, -2, 1, 0, -2
1503695366808,0, -3, 1, 0, -8, 0, -3, 4
1503695366830,-3, -6, -2, -1, -5, -3, 3, 5
1503695366845,2, 1, -4, -1, -4, 0, -1, 6
1503695366868,0, 27, 9, 0, -9, -2, -2, -3
1503695366891,-1, -3, 17, 13, 21, 4, 1, 0
1503695366905,-3, -30, -20, -4, -7, -4, 2, 2
1503695366921,4, 6, 4, 3, 5, 2, 2, 6
1503695366935,-2, -7, -9, -1, 1, 0, 3, 5
1503695366958,-9, 1, 0, 7, 7, 0, -9, -40
1503695366979,4, -1, 0, 2, -1, -2, 7, 14
1503695366995,-4, 1, 0, -5, -6, -2, -4, -2
1503695367018,10, 2, -2, 1, 1, 1, 4, 5
1503695367039,-8, -8, -4, -2, -5, -1, -7, -9
1503695367048,5, -1, -8, -1, -1, 1, 1, 5
1503695367070,13, 18, 14, 1, -1, -1, -2, -17
1503695367086,8, 6, 1, 1, 0, 0, -2, -3
1503695367107,-7, -7, -5, -3, -2, -2, -3, 1
1503695367130,6, 6, 4, -1, -1, 0, 5, 14
1503695367146,-4, -11, -1, -2, 1, -2, -3, -3
1503695367167,-2, -3, 0, -2, 0, -1, -1, -7
1503695367191,-10, -18, -12, -6, 1, 0, -1, 1
1503695367206,8, 3, -2, -4, -4, 1, 0, 3
1503695367228,-16, -2, 1, 0, -2, -3, -3, -11
1503695367252,1, 4, -1, 1, 5, -1, 2, 14
1503695367266,0, -1, 4, 2, -3, -1, -2, -4
1503695367288,-2, 10, 7, -1, -1, -2, 0, 6
1503695367310,1, 2, 0, 3, 1, 1, -1, 2
1503695367327,0, 0, -4, 0, -2, -2, -6, -19
1503695367348,8, 17, 16, 3, 3, -1, 0, 8
1503695367370,-10, -21, -10, -3, 1, 0, -4, -4
1503695367386,12, 14, 4, 3, 1, 2, 6, 20
1503695367407,-23, -15, -3, -1, -1, -2, -7, -26
1503695367430,-1, -6, -4, -2, -4, -4, -15, -29
1503695367438,-16, -9, -1, -4, -5, -3, 1, -17
1503695367460,-13, -36, -17, -4, 0, -1, -2, 17
1503695367475,-20, -8, -3, 1, 2, -3, -4, -19
1503695367498,-6, 6, 11, 2, 2, 1, 10, 55
1503695367522,10, -6, -13, -3, -3, -2, -3, 23
1503695367536,6, -9, -5, 6, 9, 4, -1, 11
1503695367558,22, 22, 8, 1, 2, -4, -6, -4
1503695367579,-2, -5, -3, 1, 0, 0, 1, 18
1503695367597,-8, 5, 3, -2, 2, -2, 0, -7
1503695367618,2, 7, 6, 11, 10, 5, 4, -9
1503695367639,-7, -4, -3, -11, -10, 0, -1, -4
1503695367663,3, 14, 4, -2, -2, -1, 0, 2
1503695367678,-1, 8, 6, 1, 6, 1, 7, 3
1503695367699,4, -6, -4, -4, -6, -1, -6, 1
1503695367722,1, 28, 20, 6, 0, 0, -6, -6
1503695367737,15, -14, -12, -5, -4, -2, 6, 33
1503695367759,37, -2, -2, -2, -4, -2, 8, 35
1503695367782,-11, 1, -6, -1, 0, -1, -2, -11
1503695367798,2, 3, 6, 0, -3, -2, -11, -20
1503695367819,-16, -21, -15, -9, -7, -9, -9, -36
1503695367842,-11, 1, 6, 1, -4, -4, 0, 27
1503695367858,-27, 7, 10, 6, 2, 2, -8, -61
1503695367879,14, 5, -6, -4, -1, 1, 3, 51
1503695367902,3, -11, -11, -4, 0, -3, -2, -13
1503695367918,-1, -2, -4, -3, -3, 2, 19, 7
1503695367940,-20, -19, -18, -5, -4, -6, -12, -34
1503695367962,11, -2, -6, -2, -1, -2, -7, 12
1503695367977,4, 4, 10, 3, -1, -3, -9, 3
1503695368007,-10, 5, 12, -4, -1, 0, 0, -14
1503695368024,-7, 6, 0, 1, 2, 6, 1, -2
1503695368037,2, -7, -7, 1, 14, -2, -5, 0
1503695368059,-5, -11, -7, -6, -10, -3, 4, -2
1503695368082,4, -3, -1, 3, -2, 0, 2, 31
1503695368098,-10, 11, 14, -3, -15, -2, 1, -6
1503695368119,-2, -7, -6, -9, -6, -3, -2, -6
1503695368142,-12, 0, -2, 2, 7, 4, 8, -13
1503695368159,10, 19, 14, 4, 1, -2, 4, -7
1503695368172,-7, -20, -11, -9, -7, -4, -1, -4
1503695368188,13, -10, 4, 2, -4, -2, -4, -10
1503695368210,-11, -6, -3, -1, -12, -4, -1, 2
1503695368218,-19, -18, -14, -4, -2, -5, -2, -23
1503695368239,-3, -4, -9, -3, 1, 2, 3, -5
1503695368262,11, -4, -2, -1, 5, -3, 1, 4
1503695368277,-3, 5, 2, 0, -3, -3, 1, -4
1503695368299,38, 21, 2, -1, -4, -4, -13, 18
1503695368322,-18, -17, -9, -1, 0, 1, -4, -23
1503695368338,-26, -22, -7, -3, 1, -1, -9, -45
1503695368360,12, -15, -3, -2, -2, 5, 18, 20
1503695368382,3, -2, -4, -2, 1, 3, 19, 20
1503695368399,19, 19, 11, 7, 0, 1, -3, 28
1503695368421,25, 25, 10, 5, 0, 0, 4, 33
1503695368443,-28, -4, -1, 2, 3, -1, -10, -59
1503695368466,16, 4, 8, 4, 1, 0, -5, 1
1503695368481,-13, -7, -5, -3, 0, 0, 4, -15
1503695368503,-1, -1, 2, -4, -5, -5, 1, 12
1503695368527,2, -11, 1, 3, 4, 2, 3, 64
1503695368540,4, -10, -5, -4, -4, -6, -4, -3
1503695368563,2, 14, 3, -3, -3, 0, 6, 0
1503695368586,11, 10, 8, 3, 6, 4, 4, 31
1503695368601,-11, -8, -8, -1, 4, 0, -2, -8
1503695368623,-23, -10, -12, -9, -7, -3, -8, -35
1503695368645,-13, -9, -6, -6, -5, -9, -18, -26
1503695368662,-3, 29, 21, 8, 0, 4, 9, 8
1503695368683,-2, -2, -8, -6, -2, -1, -1, 11
1503695368705,2, -6, -1, -2, -1, -3, -3, -33
1503695368720,20, 13, 5, 5, 6, 4, -8, -11
1503695368743,7, -4, -5, 1, 1, 0, -4, 1
1503695368766,10, -8, -3, -1, -1, -2, -6, -30
1503695368781,-15, -6, -1, 4, 0, -5, -13, -19
1503695368810,-20, -7, 2, 0, -7, -2, -10, 10
1503695368833,14, -1, -5, -2, -5, -5, -6, -33
1503695368855,14, -6, -9, 0, 2, 1, -7, 16
1503695368872,-2, -5, -5, 4, 0, -1, -3, -4
1503695368887,-2, 11, 7, 3, 3, 4, 0, 8
1503695368901,-5, -2, -7, -5, -6, -5, -1, -10
1503695368923,-13, -10, -3, -3, 2, 4, 6, 9
1503695368945,-10, 8, 5, -1, -1, -4, -3, -12
1503695368960,-4, 11, 4, 2, 3, 1, -4, -22
1503695368983,11, 1, -1, 1, 4, 4, -1, 3
1503695369007,1, -8, -8, -3, -7, -5, 2, 9
1503695369021,6, -6, -4, -3, -2, -2, 1, -6
1503695369043,20, -2, -4, -7, -4, 1, -1, 13
1503695369065,2, 23, 8, 2, -1, -4, -7, -17
1503695369080,8, -9, -4, 0, -2, 0, 6, 24
1503695369103,10, -20, -18, -3, 2, 1, 2, -1
1503695369125,-6, -2, 4, -3, -8, -1, -7, -10
1503695369140,20, 0, -2, 0, 5, 0, 3, 18
1503695369166,-5, 10, -4, 0, -4, -2, -2, -19
1503695369185,-15, 5, 7, 2, 0, -1, -1, -12
1503695369209,-6, -7, -13, -1, -1, 2, 4, 6
1503695369223,0, -3, -1, -2, -6, -3, -2, 8
1503695369245,3, 6, 6, 2, 6, -1, 4, 8
1503695369268,-6, 1, -2, 0, -2, -3, -2, -4
1503695369290,-18, -8, 4, -2, 1, -3, -3, -20
1503695369305,-3, 2, 1, 3, 4, 0, -2, 7
1503695369328,-28, -17, -11, -4, 1, -2, -6, -1
1503695369343,17, 25, 7, 4, -5, -2, 0, 1
1503695369350,-1, 0, 2, 3, 3, 2, 1, 4
1503695369372,-3, 5, 1, 3, 12, 2, -2, 0
1503695369388,-15, -5, -4, -4, -1, 0, -3, -3
1503695369403,-1, -9, -1, 0, -1, 0, 1, 5
1503695369425,-9, -1, -4, -3, -2, -2, 5, -6
1503695369435,-1, 1, -9, 1, -4, -1, 1, -33
1503695369455,22, -1, -5, -2, 1, 0, -1, 25
1503695369470,2, -4, 3, 0, 0, -1, 0, -10
1503695369492,1, -3, 2, -2, 0, -2, 0, -6
1503695369515,3, 4, 6, 2, 4, 4, -4, -15
1503695369539,-8, -4, -3, -3, -4, -1, -2, -2
1503695369552,10, 17, 9, -4, -3, -1, 6, 20
1503695369575,-6, -16, -5, 0, -1, -1, -1, -1
1503695369584,18, 25, 16, 2, 3, 0, -3, 1
1503695369598,3, -10, -10, -5, 1, 1, 3, 1
1503695369612,10, 19, 13, 4, 0, -2, -4, 2
1503695369635,-22, -14, -8, -1, 3, 1, 4, 9
1503695369658,44, 1, -3, -1, 1, 2, -4, 0
1503695369673,0, -15, -7, -3, -6, -7, -5, -19
1503695369695,-16, 4, 4, 5, 1, -2, -11, -11
1503695369717,13, 7, 3, 1, -1, 2, 1, -2
1503695369725,-22, 0, -5, -2, 1, -1, -8, -4
1503695369748,5, 5, 3, 0, 3, 2, 1, -6
1503695369764,-10, -18, -14, -5, -3, -3, -6, -5
1503695369785,-5, -6, -1, 4, -1, -2, -3, 1
1503695369808,2, -1, 2, 0, -3, -1, -3, 0
1503695369823,-2, -5, 0, 0, 0, -2, -1, -3
1503695369846,1, 31, 20, 3, 1, 1, 2, 1
1503695369871,-4, -9, -9, 1, 2, 0, 4, -1
1503695369883,11, 4, -4, -9, -8, -3, -1, 4
1503695369907,-1, -5, -1, -7, -6, -3, -3, 3
1503695369913,-1, -4, -2, -6, -5, 1, -5, -11
1503695369936,-5, -1, -2, -3, 13, 4, 3, 3
1503695369957,1, 0, 0, -7, -11, -2, 1, 1
1503695369973,4, -1, -1, -1, -4, -1, 1, 1
1503695369995,-2, 1, -1, -7, -12, -1, -1, -3
1503695370017,2, 0, 1, 13, 11, 4, 2, -1
1503695370025,-2, -16, -13, -4, -1, -1, -3, 1
1503695370048,-3, -3, -3, 1, 2, -2, -4, -4
1503695370063,-2, 0, 1, 0, -4, 0, 1, 2
1503695370085,2, 6, 6, 5, 2, -2, -3, 1
1503695370108,-3, -7, -3, -1, 1, 2, -2, -2
1503695370123,0, -1, -1, -4, -8, -2, 1, 0
1503695370146,-3, 3, -2, -3, -2, -2, -3, -1
1503695370168,4, 3, 1, 8, 6, 0, 1, -1
1503695370183,-7, -7, 0, -4, 0, -3, -2, -3
1503695370216,-1, 2, 3, 0, 8, -1, 0, -1
1503695370235,1, -3, -1, 7, 3, 1, 1, 1
1503695370257,-2, -1, -1, 1, 4, -4, -3, -3
1503695370281,-5, -5, -7, 2, 4, -1, -1, 0
1503695370300,2, -2, 2, -2, 1, -1, -1, -2
1503695370317,0, -2, -1, -2, -2, -1, -2, 0
1503695370325,0, -4, -1, 4, 18, 0, 1, 0
1503695370348,-1, -1, -4, -4, -7, -4, -4, -2
1503695370363,-1, -7, -2, 1, 3, 1, 1, 1
1503695370385,-4, -2, 0, 3, 1, -1, -2, -1
1503695370408,10, 3, 0, 7, 10, -2, 2, 2
1503695370423,-1, -5, -5, 2, -4, 2, 1, 0
1503695370446,-10, -6, -2, -6, -10, -4, -3, -5
1503695370468,12, 7, 2, 4, 3, 1, 0, 0
1503695370490,9, 1, 2, 1, -3, -1, 0, 5
1503695370509,-6, -2, -2, -5, -11, -5, -4, 0
1503695370528,3, 4, 2, -3, -1, -1, 2, 1
1503695370551,-14, -9, -6, -2, -3, -1, -2, -3
1503695370566,-9, 6, 4, -1, -2, 0, -5, -5
1503695370588,-7, -4, -8, -9, -8, -2, 0, 1
1503695370610,6, -4, -3, -5, -5, -1, -1, 1
1503695370625,3, -6, -2, -2, 0, 1, 4, 5
1503695370648,-12, 2, 3, 3, 5, 1, 1, -1
1503695370656,-7, -10, -5, -8, -9, -3, -3, -4
1503695370678,1, 3, 7, 2, -5, 1, 0, 1
1503695370699,6, -7, -8, -6, -4, -1, -1, -2
1503695370715,1, 21, 10, 2, 1, -3, -1, 0
1503695370737,5, 12, 9, 4, -1, -3, -1, 0
1503695370746,4, 2, 7, 0, 0, 0, 2, 4
1503695370768,3, 14, 14, 0, 0, -3, 10, -2
1503695370790,-9, -9, -4, 4, 5, 1, -2, -2
1503695370805,7, 0, 1, -3, -3, 0, -2, 0
1503695370820,-5, -17, -9, -4, -1, 1, 0, -3
1503695370835,-3, -7, -4, -3, -2, -3, -5, -2
1503695370857,-7, -8, -7, -6, -9, -2, 0, 0
1503695370866,-2, -10, -4, -1, -2, 1, -4, -1
1503695370885,-1, 2, -8, -3, -5, -3, 1, 1
1503695370895,7, 1, 3, 0, 2, 1, 0, 3
1503695370918,-1, -19, -9, -1, 4, 0, 1, 1
1503695370940,-4, 0, 0, -1, 0, -2, 0, -3
1503695370955,-10, -8, -3, 13, 13, 3, -4, 1
1503695370983,1, 3, 4, -3, 1, 0, 1, -2
1503695371001,-8, 2, 3, -9, -16, -4, -3, -2
1503695371017,0, 0, 4, 27, 43, 12, 1, 4
1503695371031,-6, -9, -4, 6, 11, 5, 1, 1
1503695371045,15, 0, -7, -9, -3, -1, 0, 1
1503695371068,-14, -11, -4, -7, -11, -6, -3, -7
1503695371090,4, 16, 8, 5, 1, 1, 0, 4
1503695371105,-11, 0, 0, -9, -9, -3, 1, -2
1503695371128,-2, -9, -6, -4, 0, 2, -4, 0
1503695371150,-11, 0, 4, 6, 9, -3, -6, -2
1503695371166,2, 9, 5, 2, -2, 0, -1, -3
1503695371181,1, -3, 0, -7, -8, -2, 0, -2
1503695371195,10, 20, 7, 0, -7, 2, 4, -1
1503695371217,-4, -7, -2, -2, -7, -5, -7, -9
1503695371241,-1, 0, 2, -1, -9, -2, 1, 2
1503695371255,-7, -22, -19, -9, 12, -1, -4, -1
1503695371277,9, 7, 8, 10, 1, 0, 4, 5
1503695371300,-1, -5, -7, -2, 6, 0, -3, -5
1503695371315,9, 15, 11, 0, -15, -7, 2, 5
1503695371337,-23, -11, -8, 0, -1, 1, 1, 1
1503695371360,-1, -3, 5, 1, -9, -2, 0, 1
1503695371368,6, -1, -9, -4, -1, -2, -2, -3
1503695371390,-11, -12, -16, -5, -2, -2, 5, 3
1503695371414,5, 3, 9, 1, 0, 0, 1, 2
1503695371428,-7, -37, -15, 0, 1, -1, -5, -5
1503695371451,-7, -7, -4, -3, 0, 1, -2, -1
1503695371472,0, 10, 10, 0, -9, -3, -4, -4
1503695371489,-5, 4, 4, 2, -2, -3, 2, -2
1503695371510,1, 9, 6, -5, -14, -2, -4, -8
1503695371532,-6, -6, -11, -3, -6, -2, -1, 1
1503695371540,0, -1, -2, -4, -8, -1, -5, -2
1503695371562,5, 12, 8, -1, -5, 2, -1, -1
1503695371577,-6, -7, 0, -1, -8, -4, -3, -6
1503695371600,-2, -14, -8, 4, 0, 1, -1, -6
1503695371622,-8, -10, -8, 0, 5, 0, -2, 0
1503695371637,2, 9, 11, 2, -3, -3, 0, -1
1503695371660,4, 5, 0, -2, -6, -4, -6, -7
1503695371683,6, 2, -3, 0, 2, 3, 1, -5
1503695371697,-13, 6, 10, -1, 0, 0, -2, 0
1503695371720,-1, -9, -13, -9, -12, -1, 3, 3
1503695371742,2, 3, 2, 2, 1, 0, 2, 1
1503695371758,-6, -9, -6, -2, -9, -1, -4, -10
1503695371780,-3, -3, -1, -3, 5, 1, 3, 4
1503695371802,5, 5, 1, -7, -1, -4, 1, 1
1503695371817,-1, -3, -4, 3, -1, -3, 0, -1
1503695371847,0, -1, 2, -5, -10, -3, 2, 1
1503695371862,2, 2, -2, 0, 23, 4, 3, 2
1503695371877,-5, 0, -3, 0, -2, 1, -1, 3
1503695371900,-7, 11, 12, 2, -9, -3, -1, 1
1503695371922,4, -12, -11, -5, -3, -2, 0, -1
1503695371937,-12, -9, -3, 0, -1, 0, 0, -2
1503695371960,12, 17, 18, 3, -3, -2, -4, 1
1503695371982,0, -2, -8, -1, 0, -1, 2, -6
1503695371997,1, -1, -3, -1, 0, 3, 0, -8
1503695372020,-3, 3, 0, 3, -1, -4, -8, -9
1503695372042,-2, -9, -9, -4, -1, 0, 3, 12
1503695372057,-9, 1, 0, -3, 1, -1, -2, -6
1503695372080,8, -8, -4, -1, -1, 0, -3, 6
1503695372102,6, -4, -7, -2, -1, 1, -1, -5
1503695372119,-8, -1, -3, -1, -2, -1, -2, -4
1503695372140,5, 8, 11, -3, 0, -4, -5, -6
1503695372162,-8, -2, -1, -3, -2, 0, 3, 5
1503695372177,-10, -4, -2, -3, -5, -2, -4, -9
1503695372200,9, 3, 3, 3, 1, 1, 2, 4
1503695372222,1, 0, -2, 0, -3, 1, -1, 3
1503695372237,-2, -1, -3, 0, 1, -1, -2, -1
1503695372260,-2, -6, -5, 2, -3, -1, 2, 0
1503695372282,7, 13, 4, 1, 0, 0, 0, 2
1503695372297,2, -3, -3, -3, 1, -1, 0, 2
1503695372321,-2, 8, 16, 3, 1, -1, 0, -4
1503695372342,-2, -6, -10, -3, -2, 2, -3, -2
1503695372364,0, -18, -5, -2, 0, -3, 1, 3
1503695372380,-3, -4, -4, -1, -2, -3, -3, -2
1503695372402,-8, -10, -3, 0, 0, -2, -1, -3
1503695372424,1, -1, -8, -4, -1, 0, 4, 5
1503695372440,1, 1, -10, -2, -2, -3, -2, 1
1503695372462,2, 21, 15, 6, 2, 2, 0, -2
1503695372484,-6, -1, 3, 0, 1, -2, -1, -3
1503695372500,0, -7, -4, 9, -1, -3, -2, 2
1503695372523,-1, -2, -3, -6, -2, -1, 1, 1
1503695372544,-2, 1, 1, -4, -1, 0, -2, -5
1503695372562,2, -2, -3, -2, 0, -1, -3, 2
1503695372576,0, 7, 9, 5, 5, 2, 1, -2
1503695372590,-1, 0, 1, -5, -12, -5, -1, -5
1503695372612,2, -2, 6, 6, 6, 4, 2, 2
1503695372635,2, 7, 13, -2, -10, -3, -1, 1
1503695372650,-1, -4, -6, -7, -1, -3, -4, -1
1503695372672,2, 2, -1, -2, -7, 2, 3, 1
1503695372695,1, 0, -2, 3, 7, 0, -3, 1
1503695372710,-1, 12, 16, 2, 3, -1, -2, -4
1503695372732,-2, -7, -9, -3, 2, 0, 0, 1
1503695372756,3, -2, -13, -1, -3, -3, -3, 1
1503695372770,-2, -2, 2, 1, 4, 1, 0, 1
1503695372792,-6, 6, 7, -5, -6, -1, 3, 2
1503695372815,3, 7, 6, 0, 0, 1, -1, 0
1503695372830,3, 1, -8, 0, -2, 2, -3, 1
1503695372852,-10, -3, -3, 1, -5, -5, 1, -4
1503695372875,0, -4, -5, -3, 12, 5, -2, -1
1503695372891,5, 3, 5, 0, -5, -1, 2, 2
1503695372912,-8, -9, -7, -2, -5, -2, -3, -5
1503695372935,2, 5, 1, 7, 2, 1, -1, 1
1503695372950,-9, -7, -4, -8, -9, -5, -2, -2
1503695372972,11, 3, 2, -3, -5, -2, 0, 1
1503695372995,2, -5, -1, -4, 3, -1, -1, 0
1503695373010,2, -3, 2, 13, 20, 8, 3, 4
1503695373032,2, 4, 1, -2, -2, 0, 0, -6
1503695373055,0, -3, 0, 2, -4, -4, -1, 2
1503695373070,-5, -7, -2, 4, 37, 5, -1, -6
1503695373096,-11, 9, 10, -5, -30, -8, -5, -4
1503695373115,7, -2, -1, 5, -2, 4, 1, 3
1503695373131,-3, 2, -1, -1, 9, 1, -1, -1
1503695373152,-4, -10, -11, -8, -4, -2, 0, -2
1503695373175,-4, -2, -1, 1, -6, -2, -3, -1
1503695373190,-1, -8, -8, -5, -9, -6, 1, -1
1503695373212,2, -3, 2, -5, -5, -3, 0, 0
1503695373236,-10, 4, 1, -1, 0, -1, -2, -5
1503695373257,6, 1, 0, 2, 8, 3, 2, 3
1503695373280,3, 0, -3, -8, -13, 0, -2, 1
1503695373295,0, -1, -1, -3, -8, -5, -1, -1
1503695373317,-5, 1, -6, -3, 2, -1, -1, -4
1503695373332,13, 4, 1, 1, -12, -2, 2, 7
1503695373355,-8, -8, -1, 4, 2, 1, -2, 2
1503695373377,-1, 4, 2, 3, 1, -2, 3, 3
1503695373395,11, -11, -7, -5, -2, -2, -2, 3
1503695373415,-4, -2, -10, -6, 1, 0, -4, -7
1503695373437,-5, 8, 3, 2, 0, -2, -5, -12
1503695373452,-4, -4, 15, 9, 4, 2, 0, -1
1503695373475,-9, -13, -7, -7, 2, 0, -3, 3
1503695373498,10, -2, -1, -1, -2, 0, 6, -5
1503695373512,-15, 15, 13, -1, 0, -3, -5, -5
1503695373535,1, -17, -21, -2, 7, -1, -1, 6
1503695373557,16, 19, -6, -6, -12, -5, 0, 4
1503695373572,3, -1, 1, -3, -3, 0, 0, -1
1503695373598,-3, 5, 6, 2, -2, 0, -4, -3
1503695373603,-4, -2, 3, 1, 6, 2, 0, 4
1503695373625,-3, 6, 4, 6, 5, 1, -1, -6
1503695373648,-14, -5, -15, -6, -3, -3, -2, -6
1503695373670,-6, -3, 12, -3, -3, 0, 2, -4
1503695373692,10, -1, -8, -1, 0, 0, 0, 4
1503695373708,1, -1, -6, -4, -2, 0, 0, 2
1503695373732,4, 1, 7, 0, -4, -1, -1, -3
1503695373745,18, 5, -2, 0, 1, -2, -1, -2
1503695373768,-1, 1, 1, 2, 6, -3, -3, -15
1503695373791,18, -1, -4, -4, -1, 3, 2, 9
1503695373806,-5, -13, -13, -2, 7, 0, 7, -2
1503695373828,-11, -2, 2, -4, -8, -3, 0, 3
1503695373850,-4, -2, 0, 1, 3, 0, -2, -7
1503695373866,-13, -2, 1, 4, 13, 0, 0, 6
1503695373888,-10, -11, -7, -3, -7, -3, -2, 0
1503695373910,4, 5, -4, -2, 0, -2, -4, -9
1503695373925,-5, -2, 0, -1, -10, 1, -1, 1
1503695373948,4, 4, 4, 2, 1, 0, -3, 2
1503695373971,10, 5, 4, -1, -3, 0, -1, 2
1503695373985,-3, 3, 2, 1, 0, 0, -3, -10
1503695374008,-10, -2, 0, 0, 2, 1, 3, 0
1503695374032,8, 8, 3, 0, 0, -1, 4, 13
1503695374045,-12, -5, -1, -1, 1, -1, 0, -2
1503695374069,15, 4, -4, 1, -2, 1, -1, -2
1503695374090,15, 23, 18, 8, 3, 2, 8, 33
1503695374105,7, 0, -5, -6, -3, -5, -10, -25
1503695374128,6, -11, -10, -5, 1, -3, -3, 19
1503695374150,-11, 5, 15, 8, 1, 1, -1, 3
1503695374167,-6, -4, -7, -2, -1, -2, -2, -15
1503695374188,-26, -23, -24, -5, -1, 0, -15, -48
1503695374210,-18, -15, -7, -8, -4, -2, -5, -13
1503695374225,-22, -13, -3, 0, -2, -2, -1, -1
1503695374248,26, -15, -15, -5, -2, -2, 7, 20
1503695374270,14, 13, 4, 2, -2, -5, -6, 6
1503695374285,3, 7, 8, -3, -6, 0, 4, 18
1503695374303,7, 0, 0, 1, -8, -1, 1, 23
1503695374315,13, -5, -6, 2, 2, 3, 2, 5
1503695374338,10, 0, -2, 1, 6, 5, 5, 28
1503695374360,1, 15, 8, -2, -1, -4, 4, 1
1503695374375,-16, -10, -3, -3, -4, -2, -3, -2
1503695374397,-2, -5, 4, 4, 10, 1, -5, -2
1503695374420,-6, -6, 1, 1, -2, -2, -1, 3
1503695374450,-7, -15, -15, 1, 0, -1, -4, 7
1503695374466,8, -9, -17, -3, -1, -1, -1, -3
1503695374488,-11, -6, 3, 0, -6, -3, -5, -12
1503695374511,-5, -9, -5, -1, 0, 3, 2, 3
1503695374526,-6, 2, 0, -7, -29, -6, 2, -3
1503695374548,-3, -3, -5, -1, 1, 1, 0, 3
1503695374570,8, -2, 2, -4, 0, -1, 0, 5
1503695374585,-4, 28, 20, 0, 11, -1, -8, -24
1503695374608,7, -5, -5, 6, 2, 3, 0, 17
1503695374630,-3, 2, 4, 2, 4, -1, -7, -6
1503695374646,-15, -6, -6, 0, 16, 3, 5, 3
1503695374670,-3, -7, -13, -5, -1, -1, -3, -33
1503695374690,-5, -13, -5, -1, -11, 0, 1, 3
1503695374707,0, -1, 2, -4, -3, 0, 1, -1
1503695374728,0, -8, -5, -2, 4, -1, -2, 6
1503695374750,-3, 1, -5, 1, 1, 1, 7, -9
1503695374765,15, 3, -1, 0, 4, -2, -6, 7
1503695374788,-3, 0, 0, -4, 2, -1, -1, 11
1503695374810,6, -3, -6, 0, -1, 0, -3, 6
1503695374825,-19, -5, -3, 2, 0, -2, 0, 3
1503695374848,-2, 8, 11, 12, 14, 3, 3, -10
1503695374873,20, 4, -1, -4, -3, 2, 1, 0
1503695374885,-2, 3, 3, 1, -9, -4, -4, -15
1503695374908,-4, -7, -10, -4, 0, -1, 0, 4
1503695374930,4, -2, 3, -4, -5, -3, -3, -2
1503695374945,6, 6, 3, 1, -2, 0, 0, -3
1503695374968,5, -3, -6, -13, -12, -5, 0, 12
1503695374990,-22, -5, 2, 8, 5, -1, -8, -19
1503695375008,2, 8, 1, -4, -5, 0, -2, -1
1503695375028,-3, -4, -6, -2, -1, 0, 0, 9
1503695375051,-2, -2, 6, 2, 0, -2, 2, 2
1503695375065,3, 14, 17, 21, 5, 4, 0, -2
1503695375088,3, 2, 1, -15, -13, -2, 0, 7
1503695375111,-9, -7, -2, 0, -1, -4, -5, -14
1503695375134,14, 1, -2, -4, -3, -1, 1, 7
1503695375149,11, 28, 7, 5, 2, 0, 0, 6
1503695375170,-24, -16, -9, -5, -1, -1, -1, -9
1503695375192,0, -2, 5, 3, 1, -5, -8, -3
1503695375208,2, -4, -11, -7, -3, 3, 1, -6
1503695375230,-10, -19, -14, -6, -6, -3, 1, 4
1503695375252,10, 3, 5, 0, -1, 2, 9, 16
1503695375268,-17, -11, -8, -8, -6, -2, -5, -22
1503695375290,-4, 4, 3, -3, -1, 1, 4, 3
1503695375312,-1, -2, 0, 2, -8, 3, 0, 5
1503695375328,-7, 3, -4, -5, -7, -4, -5, 2
1503695375350,-4, -7, -6, 3, 15, 0, -3, -3
1503695375376,10, 3, 4, 8, 9, 4, 4, 4
1503695375388,-3, -12, -4, -4, -3, 0, -3, -4
1503695375410,-9, -10, -4, -1, 4, 0, 0, -4
1503695375432,6, 0, -1, 1, -4, -1, 2, -1
1503695375448,4, -1, 2, -3, 8, -3, -3, 3
1503695375470,5, -1, -1, 0, -1, 0, 2, 4
1503695375492,-8, 3, 4, 13, 8, 6, 3, -3
1503695375510,9, -1, -2, -4, -4, -3, -4, -3
1503695375530,-3, 12, 5, 5, 6, 2, -2, -6
1503695375552,3, 2, 0, 1, -3, 0, 1, 0
1503695375568,-7, -5, -2, -8, -9, -4, -1, -2
1503695375590,8, 2, 1, -2, 7, -1, -4, 0
1503695375613,-1, -5, -3, -4, -4, -2, 0, 0
1503695375628,-9, -16, -6, -2, -2, 1, 2, -2
1503695375652,2, 0, 2, 4, 8, -2, 0, 1
1503695375672,2, -3, 0, -8, -9, -1, -2, 0
1503695375688,-4, 1, 0, 1, -1, -1, -1, -3
1503695375711,2, 8, 7, 0, -8, -3, -1, 2
1503695375732,-1, 1, -2, 0, -5, -2, 0, -1
1503695375748,1, 1, -2, -3, -7, -2, -2, -1
1503695375770,2, -6, -2, 2, 2, -1, -2, -1
1503695375792,-2, 0, -2, -2, 7, -3, 1, -3
1503695375815,-2, 0, -2, -3, -9, 0, -2, 1
1503695375830,1, 2, 1, -1, 2, -1, -1, 0
1503695375853,-2, 0, -3, -2, -7, -1, 0, 0
1503695375868,1, -1, 1, -1, 2, 0, -3, -3
1503695375883,1, 0, 1, -2, 2, -1, -1, -2
1503695375897,-3, -3, -4, -2, 4, 1, -2, -1
1503695375920,-2, 2, 3, -6, -3, -2, -2, -1
1503695375942,0, -3, -3, -1, -4, 0, 0, 1
1503695375957,-1, -2, -1, 6, 15, 1, 1, 0
1503695375980,0, -3, -1, -2, -2, 1, -1, -1
1503695376002,-2, -2, -5, 1, -5, -4, -3, 1
1503695376020,-1, 3, -1, -4, 2, -1, 0, -2
1503695376040,-2, 0, -2, 0, -9, -2, 1, 0
1503695376062,1, 3, 5, -1, 0, -3, -2, -1
1503695376084,2, 0, 3, 4, 14, 5, 2, 1
1503695376100,-1, 1, -2, -2, -3, -2, 1, 1
1503695376122,-1, -3, -2, 1, -6, -1, 1, -2
1503695376144,-1, -2, -6, -5, -12, -3, -3, -4
1503695376160,0, 4, 4, 2, 2, 0, -2, -2
1503695376182,0, -2, -4, -4, -5, 2, 0, 1
1503695376204,-2, 1, 3, 1, 6, 1, -1, -3
1503695376220,-5, -3, 0, -2, -3, -3, 0, -3
1503695376242,1, 0, 4, 1, 0, -2, -1, -1
1503695376264,2, -2, -4, 0, -1, 0, 1, 2
1503695376282,-1, 1, -2, -1, 1, -1, -1, 0
1503695376302,-1, -1, -1, 3, 6, 0, 0, 1
1503695376324,-1, -1, 0, -4, -3, -1, 1, -2
1503695376340,0, -10, -9, -8, -6, -2, -2, 2
1503695376362,-2, -2, 2, -1, -4, -2, -2, -3
1503695376384,3, 5, 1, -2, -2, -2, 1, 2
1503695376400,-3, 0, 0, 1, 3, 1, -1, -2
1503695376422,-3, -5, -6, -2, 0, 1, 0, -2
1503695376444,1, 3, 1, 0, -1, -3, 1, 1
1503695376460,-2, -2, -2, 1, -1, -3, -1, -3
1503695376485,2, 1, -1, -3, -1, 1, -1, -1
1503695376504,-3, -1, -3, 3, 0, -1, -3, 0
1503695376521,-2, -4, -4, -3, 0, -2, -1, -2
1503695376535,0, -4, 1, -3, 1, 1, 2, 1
1503695376550,-4, -3, 2, -2, 1, 0, 1, -1
1503695376572,-2, -4, -6, -2, -3, 1, -1, -1
1503695376595,-1, -5, -4, -2, -1, 0, -1, -3
1503695376610,2, 5, 4, -2, 1, 1, -2, 2
1503695376632,-3, -1, 2, 0, -3, -2, -1, 0
1503695376655,-1, 7, 5, 3, 0, 0, 0, 0
1503695376670,0, -5, -3, -5, -3, -3, 0, 0
1503695376692,0, 5, 0, 0, -2, 0, -2, -2
1503695376715,-4, 0, -3, 0, 0, -3, 0, -1
1503695376730,0, -3, -3, -1, 0, -1, -2, -2
1503695376753,-3, -3, -4, -2, -1, -1, 0, 0
1503695376775,1, 2, 1, 1, 0, 0, 1, 1
1503695376791,1, 10, 10, 1, 0, -1, -2, -3
1503695376812,1, 4, 3, 0, -1, 1, -1, -3
1503695376835,-1, -8, -6, 0, 0, -2, 0, 0
1503695376852,2, -4, -1, -2, 0, 0, 1, 1
1503695376872,-3, -9, -2, -1, -3, -3, -1, -1
1503695376895,0, -8, -5, -3, 0, 1, 0, -1
1503695376910,-2, 0, 1, -1, 1, -4, -1, -1
1503695376932,0, 1, 2, 0, -2, -1, -2, 0
1503695376956,-2, -4, -5, -2, 1, 0, -2, -2
1503695376971,1, 4, 3, -1, -1, 0, -3, -1
1503695376993,-1, -1, -4, 1, -2, 1, -1, 0
1503695377015,-2, -3, -3, -2, -1, -3, -2, -1
1503695377037,-1, 6, 9, 2, -1, 0, 0, -1
1503695377054,2, 9, 7, 4, -1, 0, 1, 0
1503695377067,-3, -5, -4, -1, 2, 0, -3, -1
1503695377082,-1, -3, -5, -3, -2, 0, -3, -3
1503695377104,0, 0, -3, -2, 0, -3, 1, -2
1503695377127,0, -3, -5, -2, 0, -1, -2, -2
1503695377142,1, 6, 8, 4, 0, 0, 1, -1
1503695377164,6, 16, 11, 3, -4, 0, 2, 2
1503695377188,-2, -4, -4, -3, -1, 0, -2, -1
1503695377202,-4, -9, -8, -5, -1, -1, -1, -2
1503695377224,2, 0, -2, -1, -1, 0, 0, 0
1503695377246,-5, -7, -5, -2, -3, 0, -2, -1
1503695377263,0, 0, 0, 2, -3, 0, 1, 3
1503695377278,-4, -10, -14, -2, -1, -2, -1, -2
1503695377292,-5, -14, -10, -6, 1, -2, -1, 0
1503695377315,2, 5, 5, -1, -1, 0, 0, -1
1503695377337,1, 22, 7, 2, -2, 0, 1, 0
1503695377352,-2, -6, -1, 0, -1, 0, 0, 0
1503695377375,0, 4, 4, 2, 1, 1, -2, -1
1503695377398,2, 9, 3, -2, -4, -1, -1, -2
1503695377412,0, -5, -3, 0, -2, -1, 1, -2
1503695377435,-2, -2, 1, -2, 0, -1, -3, 0
1503695377457,0, -14, -11, 1, 1, -1, 0, -1
1503695377473,0, 1, 1, -4, -1, -1, 1, -1
1503695377495,0, 1, 0, 0, -2, 2, -3, -1
1503695377517,5, 25, 16, 5, 3, -1, 0, 1
1503695377534,-2, -6, -2, -3, -3, -2, -1, -1
1503695377562,-3, -8, -2, 0, 0, 0, -1, 1
1503695377578,0, -2, -5, -3, 0, -1, 0, -2
1503695377585,-2, 1, 2, 3, -1, -2, -1, -1
1503695377606,-3, -3, -6, -1, -2, 0, -4, 0
1503695377624,3, 0, 2, 2, 0, -2, 2, -2
1503695377644,-1, 4, 2, -2, -1, 1, -1, 0
1503695377666,1, 9, 4, 2, 0, -1, 1, -1
1503695377675,-1, -7, -1, -1, 0, -3, -1, -3
1503695377697,-2, 6, 10, 0, -2, 0, -2, 0
1503695377713,0, 8, 9, 4, 2, 1, -2, -1
1503695377735,-1, -9, -4, -2, -2, 0, 1, -3
1503695377759,-2, -4, -6, -3, 0, -1, 0, 0
1503695377773,-4, -3, -1, 0, -3, -2, -2, 2
1503695377795,3, 2, 1, -1, -2, -1, 0, -2
1503695377817,-2, -10, -8, -2, -1, 0, 1, -3
1503695377833,-1, 1, 0, 1, 0, -1, -1, -2
1503695377855,0, -4, -7, -3, -2, -2, 0, -2
1503695377877,0, 4, 2, -1, -3, -3, -3, -2
1503695377893,-1, -8, -8, -1, 0, 1, 0, -1
1503695377915,1, 1, -1, 0, -3, 0, -2, 2
1503695377937,0, 4, 1, 0, 3, -1, -1, 0
1503695377960,-1, 1, 3, -1, 1, 2, -2, -1
1503695377975,-1, 0, -2, -1, 0, 0, 0, 0
1503695377997,0, 5, 3, 2, 1, -3, 0, -2
1503695378020,0, 5, 7, 1, 0, 0, 1, 0
1503695378036,-1, -8, -5, -4, -2, 0, -1, -2
1503695378057,1, 3, -2, 0, -3, -2, -1, 1
1503695378079,2, 2, 2, -3, -1, 0, -1, 1
1503695378086,0, -5, -3, -3, -2, -1, 1, 0
1503695378109,0, 10, 7, 2, 1, -1, -1, 0
1503695378125,-2, -15, -7, 0, 2, 0, -1, -1
1503695378146,0, -2, -1, -1, -3, -2, -2, -3
1503695378169,-2, 2, -2, -2, 0, -2, -1, -2
1503695378185,0, -1, -4, 1, -3, 0, 0, -1
1503695378206,-2, 6, 2, -1, 2, -2, 0, -1
1503695378229,0, 5, 2, -4, -3, -1, -2, -1
1503695378237,-2, -13, -4, -2, -3, -2, 1, -1
1503695378260,0, -4, -6, 0, 0, 0, -1, 0
1503695378276,-2, 1, 1, -1, -2, -1, -1, -2
1503695378299,1, -7, -3, -3, -1, -2, -2, -3
1503695378319,-1, 3, 0, -2, -2, 2, -2, 1
1503695378326,-3, -15, -12, -1, -2, -3, -1, 1
1503695378349,-1, 0, 0, 3, -1, -1, 0, -3
1503695378365,1, 6, 3, -2, 2, 1, 1, 1
1503695378386,0, 6, 4, -1, -2, 0, -1, 0
1503695378409,0, -1, -3, -2, -1, 0, 0, 0
1503695378425,0, 10, 4, -1, -2, -2, -4, 0
1503695378446,-2, -2, -1, 0, 1, 0, 2, 0
1503695378469,-1, -5, -2, -2, 0, 0, -1, -3
1503695378484,1, -1, 0, 0, 1, -2, -1, -1
1503695378506,-2, -3, 0, 0, -1, -1, 0, 0
1503695378531,-4, -3, 0, 0, 0, -1, -1, -4
1503695378544,0, -10, -9, -4, -3, -2, -3, -1
1503695378567,-1, 5, 1, 2, 0, -1, -1, 1
1503695378589,0, -2, 0, 0, 1, -2, 1, 1
1503695378605,1, 19, 10, -3, 1, -2, -1, -1
1503695378626,0, -5, -5, -1, -1, 1, 0, 0
1503695378649,2, 0, -1, 0, -3, 0, -1, -3
1503695378665,-3, -8, -7, -3, 0, -1, -1, -1
1503695378686,-1, -7, -3, -1, -1, 0, -2, 0
1503695378695,0, -11, -6, -2, 0, -2, -2, 0
1503695378717,-2, -5, -4, -1, -3, -1, -1, 1
1503695378740,0, -1, -5, -4, -2, 0, 1, -1
1503695378755,0, 2, 3, 0, 1, -1, 0, -2
1503695378777,-1, 0, -4, -2, -1, 0, -1, 0
1503695378800,-3, 0, 3, 1, 0, -3, -1, -2
1503695378814,-7, -5, -1, -1, -1, -1, 0, -4
1503695378837,-1, 1, 1, 1, 0, -1, -2, -2
1503695378859,-1, -3, 0, -1, -1, -2, 1, -1
1503695378868,1, -1, 1, 0, 0, 0, -2, 0
1503695378890,-2, -1, 3, -2, -1, -1, 0, -5
1503695378913,0, 0, 0, 0, 0, -2, -1, 0
1503695378928,1, 0, -3, 0, -2, 0, 0, -1
1503695378950,4, 15, 4, -1, -8, -3, -3, 2
1503695378972,-4, -7, -4, -1, -6, -5, -2, -6
1503695378988,1, 11, 5, 0, -2, 1, 2, -1
1503695379010,-2, -1, 2, -2, 0, -1, -3, -4
1503695379035,-2, -8, -8, -4, 0, 1, -2, -1
1503695379055,0, 1, 1, 5, 9, 1, 0, -1
1503695379070,-3, -7, -1, -4, 1, -3, -2, 0
1503695379093,-16, -5, 3, 5, 3, -1, -2, -3
1503695379115,-1, -11, -11, -4, -2, -1, -2, -2
1503695379130,9, 7, 6, -2, -1, 0, 0, 4
1503695379153,-2, 15, 12, 1, -13, -1, -1, -4
1503695379170,0, -12, -8, -5, 1, -1, 2, 5
1503695379195,9, 4, 2, 5, 6, -2, -2, 4
1503695379213,0, -14, -13, 6, 13, 2, -2, -2
1503695379238,-1, -10, -6, -1, 2, 1, -4, -8
1503695379242,2, -5, 6, 8, 8, 1, 1, 0
1503695379257,0, -1, -5, -1, 5, -1, -1, 0
1503695379280,-2, -7, -3, -9, -19, -3, -3, -6
1503695379303,-3, -8, -7, -5, 5, -1, -3, -1
1503695379317,2, 1, -1, -3, -8, -3, -3, -1
1503695379340,2, 1, -3, 0, -14, -2, -1, -2
1503695379355,0, -2, 3, 3, 4, 3, 1, 1
1503695379371,-1, 1, 8, 3, 0, -4, -3, -6
1503695379395,5, -4, -17, -7, -11, -2, -1, -2
1503695379408,-2, 17, 10, -3, -6, -2, -1, -3
1503695379430,-8, -5, 1, 2, -8, -1, -2, -5
1503695379453,10, 8, 1, 3, -3, 1, 0, 4
1503695379475,-3, -7, -6, 7, 18, 7, 1, 1
1503695379490,-6, -24, -18, -13, -15, -6, -3, -3
1503695379513,4, 10, 6, 3, -8, -4, -1, 1
1503695379520,1, -5, -5, -1, 0, 3, 1, -1
1503695379546,0, 2, 0, -2, -2, -1, 1, -1
1503695379557,1, -6, -9, -6, -4, -1, -2, -1
1503695379581,4, 5, 6, 7, 21, 3, 0, -1
1503695379604,-1, -8, -2, -5, -21, -5, -3, -6
1503695379617,1, 1, 2, 0, -9, -4, -2, -1
1503695379640,-14, -3, -5, -6, -6, -3, -4, -2
1503695379662,18, 11, 3, 8, 1, 2, 3, 4
1503695379678,-11, -6, -6, -3, 1, -3, 1, 1
1503695379700,8, 0, -4, -4, -3, 2, -4, 2
1503695379722,-3, -1, -6, 0, 1, 1, 2, 0
1503695379739,-3, -11, -12, -4, -5, -5, -3, -5
1503695379760,-1, 2, 7, 0, -7, -3, -1, -2
1503695379782,9, 21, 0, -3, -7, -2, 0, -1
1503695379807,-10, -20, -3, -2, -7, -3, -4, -5
1503695379820,-6, -7, -2, 0, 3, -1, -2, 0
1503695379843,7, 4, -1, -2, 2, -1, 2, 2
1503695379865,-1, 2, 4, 2, 6, 3, -2, 4
1503695379880,-8, -3, 3, 0, -6, -4, -2, -1
1503695379902,-2, 5, 2, -1, 7, -1, 2, -3
1503695379925,2, 4, 1, -1, -2, 1, 2, 1
1503695379941,4, 7, 2, -3, 5, 0, -1, 2
1503695379962,-9, -12, 0, 2, -15, -4, -2, -2
1503695379985,0, -6, -5, 2, 28, 7, -1, -1
1503695380000,-2, 3, -3, -6, -11, -3, -2, -1
1503695380016,1, 1, -1, -4, -7, -2, -1, 1
1503695380030,-1, 0, 1, 1, 5, 2, 0, 1
1503695380053,-10, -6, -6, -5, -14, -5, -3, -2
1503695380075,4, 6, 0, -2, -3, -1, -2, -2
1503695380091,-3, 1, 9, -1, 0, -1, -1, 0
1503695380113,-1, -1, 0, 1, 12, 5, 0, 0
1503695380135,-3, -3, -3, -4, -8, -4, 0, -1
1503695380150,-1, 1, -3, 2, 0, -6, 1, 1
1503695380176,3, -10, -9, -6, -11, -2, -1, -1
1503695380195,0, -3, -4, 3, 8, 0, -2, -1
1503695380211,-2, 4, 5, 2, 1, -2, -1, -5
1503695380233,-2, 0, 1, -1, 0, 1, 2, 25
1503695380255,5, 1, 1, 3, -1, 1, 0, -3
1503695380270,-1, 22, 17, 1, -3, -4, -4, -20
1503695380293,-15, -15, -10, -2, -2, 1, -2, 4
1503695380316,4, 8, 12, 5, 0, 1, -3, -7
1503695380330,7, -14, -9, -4, -2, -2, -1, -3
1503695380353,-8, -3, -6, -2, 2, -2, -3, -3
1503695380382,8, 2, 1, 3, 9, 5, 4, 4
1503695380405,-7, -10, -2, -5, 13, 0, -7, 9
1503695380420,-9, -9, -9, -8, -10, -3, 0, -3
1503695380444,-6, -9, -6, 0, -4, 2, 4, -4
1503695380465,8, -2, -2, -8, -15, -5, -3, 1
1503695380480,-1, -5, -2, 1, -2, -1, 0, -3
1503695380502,-3, -1, 1, 4, 6, 0, 0, -6
1503695380525,9, 4, 5, 5, -3, 0, -1, -1
1503695380540,-2, 4, 4, 3, 5, 1, -1, 1
1503695380562,-1, 2, -3, -4, -8, -3, 0, -3
1503695380585,-3, 1, 3, 0, -2, -4, 2, 4
1503695380600,-4, 0, 3, 0, 3, 0, -3, -3
1503695380622,-5, -5, -3, -4, -7, -3, -4, -9
1503695380645,-1, -3, -1, -6, -3, -3, -3, 0
1503695380660,-1, 0, -3, 0, -2, -3, -2, 0
1503695380682,-4, -3, 0, 0, 2, 1, -4, -7
1503695380705,2, -10, -7, -4, -2, -1, -4, 5
1503695380727,12, 4, 3, 5, 5, 2, 6, 31
1503695380742,-6, 10, 6, 3, 0, 1, -6, -44
1503695380764,1, -8, -11, -3, -1, -2, 1, 35
1503695380794,-6, -15, -8, -6, -5, -4, -2, 5
1503695380796,1, -5, -6, 0, 8, 1, 0, 11
1503695380817,-5, 1, -3, -4, -2, -2, -3, -15
1503695380833,-2, 10, 1, -3, -6, -4, -5, 0
1503695380855,2, 7, 5, 0, -3, -4, 0, 12
1503695380877,-3, 4, 8, 1, -4, 1, -4, -5
1503695380893,3, -4, -2, 0, -2, 0, -3, -2
1503695380916,7, 11, 12, 0, -10, -3, -2, 7
1503695380937,-9, 1, -2, -1, 4, 0, -2, -4
1503695380945,4, -5, -3, -8, -21, -7, 2, 11
1503695380967,-1, 3, 0, -2, -8, -4, 2, 6
1503695380987,0, 2, 2, 2, 3, -2, -1, -2
1503695381004,6, 2, 2, 1, 12, 1, 0, 3
1503695381027,-2, -4, -1, 3, -1, 2, -2, -6
1503695381042,-3, -4, -7, -2, 4, 0, -2, 0
1503695381064,-6, -7, -8, -10, -10, -4, 0, -3
1503695381087,-2, 6, 5, 5, 11, -1, -3, -4
1503695381102,-1, -1, 3, 3, 0, 0, 1, 2
1503695381125,0, -4, -3, -2, 1, 1, 0, -1
1503695381151,-3, -6, -3, -9, -7, -2, 0, 1
1503695381156,-1, -3, -1, 2, 0, 1, 2, -1
1503695381177,1, -4, -1, 3, 13, -1, 0, -3
1503695381193,9, 3, -1, -5, -12, -3, -1, 4
1503695381218,0, -3, -3, -4, -8, -4, 2, 9
1503695381237,-5, -5, -2, -2, -4, 1, 0, -5
1503695381245,2, 4, 0, -1, -4, -3, -6, 4
1503695381267,8, -1, -3, -8, -17, -4, 3, 5
1503695381284,1, 1, 0, 3, -4, -1, 1, -4
1503695381304,1, 4, 7, 0, 1, -3, -6, -3
1503695381327,-6, -4, -2, -2, -2, -1, 1, 2
1503695381342,-9, -7, -8, 1, 1, 3, 2, -5
1503695381364,0, -1, -4, -1, -2, -2, -5, -7
1503695381388,-4, 1, 2, 1, 12, 2, 3, 3
1503695381402,-5, -5, 1, 1, 0, -2, -1, 6
1503695381426,1, 0, 1, -3, -6, -1, 3, 7
1503695381447,-8, -3, -2, -4, -3, -4, -3, -19
1503695381462,-7, 0, 0, 0, -2, 2, 0, 0
1503695381485,8, -2, -6, -4, -2, -2, -2, 1
1503695381507,-1, -3, -5, -3, -1, 0, 6, -15
1503695381520,-1, -1, -2, 0, -6, -4, 3, -5
1503695381537,7, 3, 2, -2, 1, 0, 0, -1
1503695381553,1, -1, 1, 2, 4, 2, 1, 11
1503695381576,-8, -9, -7, -2, 2, -1, 1, -3
1503695381597,4, -2, -1, 15, 16, 5, 3, 2
1503695381613,-4, -6, -9, -10, -3, -2, -1, 0
1503695381636,5, 6, 9, -3, -10, -4, -2, 8
1503695381657,-5, -11, -12, -3, 1, -1, 1, -5
1503695381680,1, 1, 3, 2, -6, -2, -1, -5
1503695381697,-9, 4, 7, -4, -5, -3, -1, -6
1503695381721,7, -5, -13, -2, 2, 2, 3, 1
1503695381740,-1, -5, -2, -2, 9, 3, -2, 7
1503695381755,0, -4, -10, 0, -5, -2, -8, -8
1503695381777,1, 1, 1, 8, 8, 3, 3, 6
1503695381800,2, 6, 10, 2, 5, 2, 1, -3
1503695381816,-3, -6, -5, -2, -2, -3, -2, -11
1503695381837,4, 8, 6, -8, -4, -1, 1, 4
1503695381860,2, 9, -3, -7, -1, -2, 0, -7
1503695381875,-7, -7, -2, -5, -10, -1, -1, -9
1503695381897,-3, 1, -2, 1, -3, -2, -6, -7
1503695381923,1, -6, 1, -5, 0, -2, 0, 9
1503695381935,-10, 14, 9, 5, 1, 0, 1, -10
1503695381961,4, -7, -5, 2, -2, 0, 1, 8
1503695381979,0, 1, -2, -9, -5, -3, -4, 1
1503695381989,-3, 1, -7, -3, 2, 0, -2, -1
1503695382009,-7, 2, -5, -9, -5, 0, 0, -9
1503695382025,-1, -1, -4, 1, 0, 0, 1, 4
1503695382047,4, 4, 5, 0, -2, 1, 0, 1
1503695382069,3, 6, 16, 20, 6, -2, -1, 6
1503695382092,12, 5, 3, 0, -2, 0, 6, 25
1503695382114,1, -7, -5, -3, -2, -3, -5, -3
1503695382129,8, 10, 14, 12, 4, 2, 2, -1
1503695382144,-5, -6, -14, -14, -3, 1, 2, 3
1503695382167,-3, 4, -3, 0, -1, -2, -4, 3
1503695382190,-2, 3, 1, -3, 0, -2, -5, -13
1503695382204,0, -1, 5, 0, 0, 0, -1, -7
1503695382227,-3, 5, 14, 29, 4, -1, -2, -4
1503695382249,0, 9, 14, -6, -2, 1, 0, 2
1503695382265,4, -9, -9, -7, -1, -1, 2, 13
1503695382287,-16, -1, -10, -9, -4, -1, -1, -17
1503695382309,6, -11, -5, -5, -3, -1, -1, -3
1503695382325,4, -11, -10, -5, 0, 1, 5, -2
1503695382347,-2, -9, -8, -3, -2, -2, -3, -1
1503695382369,-4, -14, -5, 0, 2, -2, 1, -1
1503695382385,-4, 4, 0, -3, -2, 1, -3, -5
1503695382407,-3, -5, -9, -4, -2, -1, -2, -3
1503695382429,-3, -7, -1, -9, 3, 0, -1, 1
1503695382444,2, 19, 2, 3, -2, -4, -1, -3
1503695382467,-1, -4, -2, -1, -4, 0, 0, 2
1503695382492,-1, 0, 1, 0, -1, -3, -1, -1
1503695382505,-4, -3, 5, 2, 0, 0, 2, 0
1503695382529,1, -2, -3, 0, -1, -1, -4, -1
1503695382549,2, 7, 7, 2, 1, 2, 2, 2
1503695382565,1, 0, -4, 1, 2, -2, -2, 1
1503695382587,-2, -6, -5, -5, -4, 0, 1, -2
1503695382609,1, -3, 0, 1, -4, -3, -1, -1
1503695382631,-1, -4, -3, 4, 5, 5, 4, 3
1503695382647,0, -1, 1, -3, -4, -4, -2, 0
1503695382670,-2, 5, 4, -2, 13, 0, 0, -2
1503695382693,-3, -5, -4, -1, -2, -2, -1, 0
1503695382707,1, 3, -3, -2, -9, -2, -6, -4
1503695382729,-2, -7, -5, -6, 4, 0, -1, -1
1503695382752,1, -1, -1, -1, -8, -1, -1, -1
1503695382767,-1, 2, -1, -1, 3, 0, -1, 0
1503695382790,-1, 0, 5, 1, -13, -1, 0, 1
1503695382811,-3, -4, -1, -1, -6, 0, -2, 0
1503695382828,2, 0, 0, 3, 7, 0, -1, -1
1503695382849,0, 0, -5, 3, 3, 1, 1, 0
1503695382871,-4, 0, -5, -10, -14, -6, -1, -4
1503695382887,-2, -8, -5, 0, 5, -2, -4, -4
1503695382909,-1, -4, -1, -1, -3, -1, 1, -1
1503695382918,1, -5, -4, -8, -5, -3, 0, -2
1503695382940,0, -1, -2, 4, 4, -4, -3, -3
1503695382968,-1, -3, 2, 10, 17, 2, 1, -3
1503695382977,-3, -8, -5, -4, -4, -1, 1, 2
1503695383000,1, -4, -2, 1, 0, -1, -2, 1
1503695383022,-1, 3, 2, 2, -4, 0, 1, 1
1503695383038,1, -4, -5, -11, -4, -2, -2, -1
1503695383061,-1, -1, -2, -2, -1, -1, -2, 0
1503695383082,-2, -2, -1, -1, 0, -1, 1, -2
1503695383097,2, 1, 1, 1, 0, 0, -3, 2
1503695383119,0, -3, -2, 1, -2, -3, 0, -2
1503695383129,-1, 0, 3, 5, 1, -1, -1, -4
1503695383149,-1, 7, 3, -7, 1, 0, 1, 0
1503695383172,-2, -14, -9, -2, 2, 1, 0, -3
1503695383187,-4, -6, -5, -5, -2, 0, -3, -1
1503695383210,0, 1, 2, 2, 0, 1, -2, -1
1503695383231,-2, -3, -2, -2, -3, -1, -1, 0
1503695383247,3, 7, 7, 2, 0, 0, 1, 1
1503695383266,-1, -7, -11, -4, -2, -3, -2, 0
1503695383277,1, 3, 4, 1, 1, 0, -1, -3
1503695383307,-2, -1, -2, 0, -1, -2, -4, -2
1503695383322,1, -1, 2, -2, -2, -1, -1, 5
1503695383339,-1, 0, -3, -1, 0, -2, -2, 2
1503695383359,0, 1, 1, 0, 0, -1, 0, -4
1503695383382,-6, -1, 2, -1, 0, 0, -1, -16
1503695383405,3, 4, 7, 1, -1, -1, 1, 4
1503695383419,2, -2, -1, -1, -1, 0, 2, 12
1503695383442,-2, -2, -1, -3, -1, -3, -4, -9
1503695383457,0, 1, 3, -1, -3, 0, -1, -6
1503695383479,-4, 0, -3, -1, -1, 1, -2, 0
1503695383504,3, 4, 1, 1, 0, 0, 1, -1
1503695383510,-2, -3, 0, -2, -1, -1, -1, -3
1503695383532,-1, -12, -7, -2, 0, -2, 0, 1
1503695383555,-2, 1, 2, -1, -4, 0, -1, -1
1503695383572,-3, -1, 0, -2, 0, -2, -1, -5
1503695383591,-4, 2, -1, -1, 0, 2, -1, 0
1503695383614,2, 3, 8, 1, 0, 1, -2, -9
1503695383629,2, 3, -2, -1, -2, -2, -1, 0
1503695383651,-1, -7, -2, -2, 1, 0, -2, -3
1503695383674,1, -4, -6, 2, -1, -1, -1, 0
1503695383691,-2, -6, -6, -2, -1, -1, 0, 1
1503695383711,0, 6, 1, 1, -2, -3, -1, -2
1503695383734,-1, -1, 5, -1, -2, 0, -1, -3
1503695383749,-1, 1, 0, 0, 0, -2, -1, -1
1503695383766,-1, -1, -1, -1, -1, -2, 0, -2
1503695383780,1, 5, 6, 0, -2, -2, 1, 0
1503695383803,1, 6, -1, 1, 2, -1, -1, 4
1503695383824,-1, -7, -4, -2, -1, 0, -1, 0
1503695383840,-4, -10, -7, -4, 0, -1, -2, -5
1503695383862,1, -4, -5, -1, 1, -2, -1, 1
1503695383885,-2, -2, -3, -2, -2, 0, 0, -1
1503695383901,-1, 3, 5, 0, -2, -1, -1, -1
1503695383922,-1, 0, -1, 1, -1, -1, -1, -3
1503695383945,1, -3, -5, -4, -1, 0, 0, 0
1503695383960,1, 0, 2, -1, 2, 0, 0, -1
1503695383985,0, -1, 3, 2, -2, 0, 1, 2
1503695384005,-2, -3, -7, -5, -2, -1, -1, -2
1503695384020,0, 1, 2, -1, 3, -2, -1, 1
1503695384042,-1, -3, -5, 0, -2, 0, -1, -1
1503695384064,-1, 3, 3, -3, -1, -2, -2, -1
1503695384080,0, -1, 0, 0, -2, -2, -2, -3
1503695384103,-1, -7, -6, -2, 2, -1, -2, 0
1503695384124,-1, 4, 7, 2, 0, -1, -1, -1
1503695384140,0, 0, -2, -1, -4, 2, 0, 0
1503695384162,0, -2, 1, 0, 0, -3, -1, 2
1503695384185,2, -6, -5, -2, 1, -1, -2, -1
1503695384199,-1, -1, 3, 0, -1, 0, -1, 0
1503695384215,0, -2, -2, -1, -1, -1, -1, 2
1503695384239,-1, 2, 1, 0, -1, 1, 0, -1
1503695384252,1, 0, -2, 0, 0, -1, 0, 1
1503695384275,-1, 1, -1, 0, -1, -3, -1, -2
1503695384297,-3, -2, -2, -2, 0, -2, -2, -2
1503695384313,0, 1, 1, -1, -2, -1, 1, -2
1503695384336,1, -1, -3, -4, 2, -2, -1, 0
1503695384357,-2, 4, 7, -1, -1, 1, 0, -2
1503695384372,0, -2, -4, -1, -1, 1, 0, -1
1503695384395,0, 3, -1, -3, 0, -3, -2, -1
1503695384417,-2, -3, -2, 2, -3, -2, -2, -1
1503695384432,-2, -4, -4, 0, -1, 0, -1, -1
1503695384455,-1, -7, -4, -1, -2, -3, -1, -1
1503695384477,0, 0, 0, -5, -2, 1, -2, 1
1503695384494,-1, -3, -2, 1, 2, 0, -3, -3
1503695384516,-2, 0, -3, -1, -1, -1, -2, -1
1503695384540,1, 0, 5, 2, 0, 0, 1, -1
1503695384552,1, -3, -4, 0, -1, 2, 1, -1
1503695384577,1, 6, 2, 1, 0, -1, 0, -2
1503695384597,-1, -4, -3, -2, -1, 0, -1, 0
1503695384609,-1, -9, -6, -3, -1, -2, -3, -2
1503695384627,-2, -3, -4, -1, -3, -1, -2, -1
1503695384643,-1, -9, -7, -4, 0, -2, -1, -1
1503695384664,0, 2, -1, 0, 0, 1, -1, 0
1503695384687,-3, -5, -1, 1, -2, 1, 0, -1
1503695384702,-2, -1, 3, 0, -1, -2, 0, -2
1503695384725,0, -1, -3, -2, 1, -2, -3, -1
1503695384750,1, 6, 0, 1, -1, 1, 0, -1
1503695384762,-2, -2, -6, 0, 0, -1, -1, -2
1503695384785,1, 0, -1, -2, 2, 0, -1, 1
1503695384809,1, -2, -1, 3, 0, -1, -2, -1
1503695384822,-4, -12, -8, -2, -4, 0, 0, -3
1503695384845,-1, 2, 2, 1, 0, -3, -1, 0
1503695384867,-1, 3, 4, -1, 2, -1, -1, -2
1503695384882,-1, 8, 10, -1, 1, 0, -3, 0
1503695384898,0, -1, -5, -2, -2, 0, -1, -1
1503695384914,-1, -8, -5, 0, -2, -3, -1, -2
1503695384935,0, 1, -2, -4, 1, 0, 2, 1
1503695384957,1, 3, 8, 3, -3, -1, -3, -1
1503695384972,0, 1, 4, 3, 0, -1, 0, 1
1503695384996,-5, 2, 2, 0, -1, 0, -1, -3
1503695385018,-2, 0, -3, 0, -1, -1, -2, 2
1503695385032,2, 2, 4, 0, -1, 0, -2, -1
1503695385056,-1, -8, -4, -2, -2, -1, -2, -1
1503695385078,-2, 1, -5, -1, -1, -2, 3, 0
1503695385093,0, -3, -5, -4, -1, -2, -2, -3
1503695385115,-1, 5, 4, -1, 2, 1, -1, -2
1503695385137,-2, -3, -3, -2, 0, -3, 0, -2
1503695385153,-4, -3, -1, -1, -3, -1, -2, 1
1503695385177,0, 3, 4, 1, 0, 0, -1, -1
1503695385182,-2, 1, 1, -2, -2, -1, -2, -3
1503695385204,-2, 4, 3, -1, 0, -1, -1, 1
1503695385227,1, -1, 1, 0, 0, 0, -1, 1
1503695385250,1, 5, 2, 0, -1, -1, -1, 0
1503695385264,0, 4, 2, -1, -3, 1, -1, -1
1503695385287,0, 5, 9, 5, 0, -1, -1, 0
1503695385302,-3, -10, -8, -5, 0, 1, -2, -3
1503695385325,-4, -3, -1, -2, 0, -2, -1, 0
1503695385347,1, 0, -1, 2, -1, 0, -1, 0
1503695385362,1, 2, -2, -3, -1, -2, -1, -1
1503695385385,0, 2, 0, 0, -2, 0, 0, 1
1503695385407,0, 3, 3, 2, 2, 1, 0, 0
1503695385429,-1, -9, -8, -1, -3, -2, -2, -2
1503695385445,-2, 0, -5, -2, -2, 0, 0, 1
1503695385467,0, 0, 3, -2, -1, -3, 0, -1
1503695385478,0, -1, -3, 0, -1, 1, -1, 1
1503695385497,0, 3, 1, 0, -4, -2, 1, -1
1503695385520,1, 1, 1, 0, 0, -1, -1, -1
1503695385536,-2, -2, 0, -1, -2, 1, 0, 0
1503695385557,0, 0, 2, 1, 2, -2, 0, -1
1503695385580,-1, -5, -7, -3, -2, -1, -3, 0
1503695385595,0, 3, -1, 0, -1, -1, 1, 0
1503695385617,0, -5, -3, -2, -1, -2, -2, 0
1503695385639,-3, -4, -2, -2, -1, 1, -1, 0
1503695385655,-1, 0, -2, -3, -1, -2, 0, -1
1503695385680,0, -1, 1, 0, -1, -1, -1, -1
1503695385699,-2, -1, 0, -2, -1, 1, -1, -2
1503695385716,1, 10, 11, 3, 0, -1, -1, 0
1503695385730,-1, -5, -2, -2, -2, -1, 0, -1
1503695385744,-3, -1, -2, 0, -2, -4, -2, -2
1503695385767,0, 3, 0, -1, -1, -1, -2, -1
1503695385790,-2, -1, -2, 0, 1, 1, -1, -2
1503695385804,-1, -2, -1, 1, 0, 0, 2, 1
1503695385827,2, 4, 0, -1, -3, 0, 0, 1
1503695385850,-1, -4, 0, -1, 2, -2, -2, -2
1503695385864,-3, -4, -3, -2, -2, -3, -2, -1
1503695385887,-2, -5, -3, -1, -1, 0, -2, 0
1503695385910,-3, -3, 0, -2, 0, 2, 0, -1
1503695385927,1, -2, -3, -2, -2, -2, 0, -3
1503695385949,3, 3, -1, -2, -2, 1, -2, -3
1503695385969,-1, -4, -3, -1, 0, 0, -3, 2
1503695385986,1, 0, 0, 1, -1, 0, 1, 1
1503695386000,-4, -9, 0, 0, -2, -2, -1, 0
1503695386019,-3, -7, -1, 2, -1, 1, -1, -2
1503695386037,5, 9, 3, -2, 3, 0, 0, -1
1503695386059,0, 9, 8, 2, -1, -3, -1, 1
1503695386067,-1, 1, -1, 0, -2, 0, -1, 0
1503695386089,3, 1, -2, -6, -7, -3, 0, 0
1503695386097,-6, -1, 1, -7, -11, -3, 0, -3
1503695386120,-5, -13, -6, -7, -14, -7, -6, -3
1503695386135,-1, -4, -4, -1, 2, 3, 3, 4
1503695386151,2, 1, 3, 0, 7, 2, 0, 1
1503695386164,5, 17, 10, 1, -10, -7, -3, -1
1503695386187,4, 0, -6, 5, 10, 2, 1, 0
1503695386195,-1, -4, 1, 2, 6, 3, 0, 0
1503695386219,-1, 5, 1, -2, 2, -2, 2, 0
1503695386239,-2, -3, -1, 10, 5, 1, -2, -3
1503695386259,7, 14, 5, 6, 1, -3, -2, 2
1503695386277,-1, -6, -4, -3, 2, 2, 6, -1
1503695386299,-9, -11, 0, 13, 13, 3, -1, 1
1503695386322,-1, -1, 1, -1, 7, -4, -2, 2
1503695386337,5, 7, 1, -1, -4, 1, -1, -1
1503695386353,5, 1, 2, -5, -8, -3, 2, 2
1503695386367,-1, 11, 8, -2, -16, 0, 1, -4
1503695386390,-5, -12, -4, 3, 29, 2, -1, 0
1503695386412,-1, -5, -9, -15, -30, -6, -1, 2
1503695386428,-4, -10, -6, 1, 2, -4, -8, -2
1503695386449,2, -3, -3, -14, -40, -14, -3, -2
1503695386472,9, 0, 0, 21, 31, 9, 7, 7
1503695386487,1, 6, 5, 1, 16, 4, 2, -6
1503695386509,0, 0, 3, 3, 16, 0, -1, -1
1503695386532,-5, -6, -6, 0, 23, 2, -1, -2
1503695386547,0, -2, 0, 11, 10, 5, 5, 2
1503695386569,-14, 24, 26, -11, -43, -8, -5, -1
1503695386592,6, 1, -3, -5, 8, -2, 0, 0
1503695386607,6, -6, -8, -15, -25, -6, -6, -2
1503695386630,-8, -10, -5, -4, 4, -2, -5, -8
1503695386655,8, 8, -1, 1, 1, -1, -2, -4
1503695386667,0, -2, 0, 16, 24, 6, 5, 1
1503695386690,-9, -2, -9, -5, -3, 0, 0, 2
1503695386712,2, -1, 8, 4, -11, 1, 4, 2
1503695386729,5, 7, -3, -11, -16, 0, -1, -1
1503695386749,-11, -12, -4, 10, 5, 4, -4, -5
1503695386771,-7, -11, -9, -15, -10, -9, -4, -7
1503695386789,6, 10, -1, -5, -6, 1, 4, 4
1503695386809,-7, -18, -14, 3, 12, -1, -8, -6
1503695386831,5, -10, -1, -4, -17, -5, -3, 1
1503695386847,1, -1, -2, 7, 9, 3, 2, 4
1503695386864,3, 14, 11, -2, 4, -2, 1, 5
1503695386877,3, 10, 9, -3, -2, 0, -1, 0
1503695386899,2, 17, 19, 4, -8, -5, 2, 6
1503695386923,-3, -3, -11, 9, 21, 0, 0, -1
1503695386937,-10, 4, 1, 2, 3, 2, -6, -3
1503695386960,-5, -16, -12, 3, -2, -3, -2, -1
1503695386982,-5, -4, -5, 2, 14, 1, -5, -11
1503695386999,-4, -4, -1, -8, -17, -7, -1, 2
1503695387011,1, -13, -8, -1, 11, 3, -3, -5
1503695387027,0, -2, 12, 7, 5, 2, 5, -1
1503695387049,-4, -2, -13, -8, -3, -4, -10, -12
1503695387072,4, -5, -9, -1, 6, -3, -2, -1
1503695387087,1, 6, 8, 4, 11, 1, -4, 1
1503695387109,0, -2, -3, -1, -11, 1, 8, 6
1503695387133,-16, 3, 6, 11, 22, 5, 0, -2
1503695387147,1, 2, -1, -10, -15, -9, 0, 0
1503695387169,0, 0, 5, -1, -12, -4, -3, 0
1503695387193,0, -4, -9, -7, -8, -5, -2, 1
1503695387208,14, 5, 0, -3, -5, 0, 1, 5
1503695387230,-2, 5, 5, -1, 11, 1, 0, -7
1503695387251,-8, 18, 29, 7, 3, 0, -11, -10
1503695387260,0, 8, 9, 10, 14, 1, 3, 6
1503695387282,6, -10, -4, -2, -10, -1, -16, -10
1503695387304,-6, -6, -14, -10, -6, -4, 7, 7
1503695387320,-5, -3, -1, -1, -2, 0, -6, -15
1503695387342,13, 2, 1, 7, 12, 4, 4, 7
1503695387365,-6, -11, -12, -14, -23, -8, 1, -5
1503695387380,-3, -7, -2, -7, -16, -6, -8, -1
1503695387402,7, 15, 18, 15, 14, 4, 2, -2
1503695387426,1, -8, -4, -3, -12, 0, 6, 7
1503695387432,-12, 21, 21, 1, -10, -5, -8, -6
1503695387454,-1, -16, -20, -7, 1, -1, -5, -8
1503695387469,14, -3, 2, 16, 39, 6, -1, 1
1503695387493,-5, -3, -6, -1, -10, -1, -4, -5
1503695387514,-1, -8, -6, -17, -36, -8, -6, 2
1503695387530,-1, 9, 20, 5, -5, -4, 4, -3
1503695387552,6, -7, -12, 6, 28, 2, 0, 12
1503695387574,-2, 6, 7, -1, -7, -4, 1, -5
1503695387589,-3, -8, -13, -2, 2, 1, -6, -3
1503695387605,9, 8, 4, -3, -3, 0, 6, 10
1503695387620,-8, 1, -9, -5, -6, -5, -2, -3
1503695387642,7, 26, 9, 4, 0, 0, -8, -6
1503695387666,5, -8, -7, -5, 0, -2, -3, -1
1503695387680,4, 9, 12, 0, -2, 0, 3, -3
1503695387703,-1, -2, 3, -6, -10, -3, 1, 0
1503695387710,-9, -9, 13, 18, 7, 2, -1, -8
1503695387732,-4, -4, -5, -5, -6, -3, 4, 1
1503695387753,4, 8, 9, 6, 12, -5, -3, -9
1503695387762,-9, 6, -2, -4, -12, -4, 1, 3
1503695387784,2, -4, -1, 2, 6, -3, -2, -3
1503695387800,1, -5, -5, -1, 6, 0, -2, -2
1503695387822,-4, 1, -6, -4, -3, 0, 10, 3
1503695387844,1, -30, -26, -9, -6, -3, -2, 13
1503695387862,-20, -14, -11, -3, 1, 0, -11, -8
1503695387882,0, -11, -4, -3, -2, -1, 2, 6
1503695387904,-18, -15, -10, -7, -7, -2, 5, 1
1503695387912,-26, -28, -14, -8, 1, 1, 5, -2
1503695387934,3, -1, 2, 1, 5, 3, 4, 6
1503695387949,-4, 6, -3, -2, -2, -1, -15, -27
1503695387972,2, 11, 7, 1, 2, -1, -11, -16
1503695387994,5, 3, -3, -3, -5, -1, 2, 25
1503695388009,15, 27, 25, 8, 1, 1, 2, 15
1503695388032,8, 0, -1, -3, -2, -4, 1, 3
1503695388053,7, 1, -2, 17, 32, 8, 7, 14
1503695388069,-5, 1, 2, -7, -10, -4, -13, -13
1503695388092,-5, -29, -22, -9, -5, -4, -4, -4
1503695388114,-9, -6, -2, -10, -12, -4, 1, -10
1503695388132,2, 5, 4, 3, -2, -2, 3, 23
1503695388145,1, 11, 7, 1, -3, 0, 2, -7
1503695388160,7, -8, -6, 4, 3, 1, 5, 28
1503695388182,4, 13, 8, -4, 0, 1, 2, -3
1503695388204,3, 25, 23, 3, -2, 0, -3, -10
1503695388227,-7, -22, -13, -5, -4, -2, 1, -16
1503695388242,-4, -4, 0, -1, 3, 0, 2, 7
1503695388266,-20, -2, 1, -1, -2, 1, -1, -9
1503695388287,6, -6, -12, -4, -2, 0, 0, -14
1503695388303,-5, -2, 0, 2, 4, 3, 10, 4
1503695388324,-18, -8, 6, 3, -4, 0, -6, -14
1503695388347,5, 12, -4, -7, -5, -4, -3, 9
1503695388362,-4, 0, -1, 1, 1, 2, -1, 4
1503695388384,23, -12, -9, -6, 2, -5, -4, -4
1503695388407,-8, -25, -9, 0, -11, -2, -7, 8
1503695388422,6, 3, -5, -5, -3, -4, 0, -1
1503695388437,-13, -2, -3, -6, -9, -5, -3, -7
1503695388452,3, 19, 10, -4, -3, 2, 14, 15
1503695388482,2, 9, 9, 2, -3, -3, -5, 4
1503695388496,-6, -4, 2, 9, 14, 3, 0, 0
1503695388512,8, 2, 2, -4, -7, -3, -2, 10
1503695388535,-14, -9, -10, -8, -8, -2, -1, -7
1503695388556,18, -7, -8, -3, -3, -1, 3, 3
1503695388572,-1, 31, 5, -4, -5, -3, 2, 10
1503695388593,-21, -10, -10, -12, -4, 1, -5, -24
1503695388616,14, 4, -1, 0, -3, -4, -8, 1
1503695388636,-10, -3, 4, 1, 1, -1, 0, -6
1503695388653,1, -8, 3, 4, 0, 0, -3, 4
1503695388676,5, -11, -1, 11, 1, 0, -2, 1
1503695388692,2, 0, 5, 7, 1, 1, -3, -1
1503695388713,3, 8, -1, -5, -4, 0, 5, 6
1503695388736,12, -8, -5, -5, -2, -2, 2, 20
1503695388751,-9, 9, 6, 4, -2, -2, 1, 0
1503695388770,26, 8, 6, 8, 3, 3, 5, 21
1503695388782,-8, -4, 19, 20, 8, -1, -1, -24
1503695388805,-10, -13, -7, -1, -1, -3, -8, 3
1503695388827,-2, 1, -2, -7, -4, 1, 0, -2
1503695388842,6, 15, 10, 9, 2, 1, 0, 6
1503695388864,2, -18, -16, -8, -6, -3, -4, -8
1503695388887,0, -5, 0, -4, -3, 1, 0, 24
1503695388904,-8, 10, 3, 2, 4, 2, 4, 8
1503695388924,20, -6, -7, -6, 1, -3, 1, 12
1503695388947,-10, 9, 0, 0, -2, -4, -7, -27
1503695388962,-12, -13, -8, -3, -1, -2, 6, -3
1503695388984,27, 2, 4, -1, -2, -2, 1, 15
1503695389007,12, 25, 10, 3, 0, 3, 2, 3
1503695389022,-7, -6, -5, -3, -3, -3, -7, -27
1503695389045,-18, -7, 0, -2, -1, 0, -6, -33
1503695389067,18, 30, 26, 7, 3, 1, 4, 24
1503695389082,-11, -35, -26, -9, -5, 0, 0, 8
1503695389106,-1, -5, -2, 0, 3, -3, -1, 3
1503695389127,-5, -6, -10, 1, -1, -2, 0, 6
1503695389149,-9, -5, 0, 0, -4, -1, 0, -5
1503695389164,-1, -5, -6, -7, -3, -4, -5, -11
1503695389187,0, 2, 4, -1, 4, 0, -3, -3
1503695389209,15, 15, 9, -1, -3, 2, 2, 5
1503695389224,-14, -11, -14, -5, -1, -4, -1, -3
1503695389247,2, -4, 0, -1, -1, 0, 1, 2
1503695389272,-5, -5, -3, 3, 1, -1, -1, 3
1503695389284,-4, 11, 13, 1, -2, 1, 2, 3
1503695389307,-6, -15, -13, -5, -4, -1, -3, -3
1503695389329,-2, 2, 3, -3, -6, -2, -2, -2
1503695389344,0, 0, 0, -6, -8, -1, 0, 2
1503695389367,-2, -4, -2, -6, 4, -1, 0, 0
1503695389389,-6, -6, -6, 4, -9, -2, 1, -1
1503695389406,0, -9, -5, 0, 1, 1, -1, -1
1503695389427,0, 3, 5, 0, 3, 0, 1, 1
1503695389449,-5, -4, -5, 4, -1, -3, -3, -3
1503695389464,1, -1, 2, 5, 1, 2, -3, -2
1503695389487,-2, -1, -2, -3, -2, -1, -3, -1
1503695389509,-1, 0, -4, -4, 4, 1, -1, 0
1503695389524,3, 15, 15, 5, 3, -1, 1, 2
1503695389547,-2, -4, 0, -8, -2, -2, -1, -4
1503695389569,2, 3, -1, -3, 3, 0, -1, -1
1503695389584,0, 2, 4, 6, 2, 3, 1, 0
1503695389608,0, -6, 1, 11, -2, 0, 1, 0
1503695389629,-3, -3, -5, 4, -2, 1, -2, 1
1503695389645,2, -5, -5, -11, -2, -2, 0, 0
1503695389667,-4, 0, 10, 11, 6, -1, -2, -4
1503695389689,-1, -2, -8, -6, -2, -1, -2, 0
1503695389704,-3, -2, -6, -4, 3, -1, -3, -1
1503695389726,-2, -3, 5, 7, 4, 1, 1, 0
1503695389743,0, -2, 0, -1, 4, -2, -3, -2
1503695389750,0, -6, -5, -3, -4, 0, 1, 0
1503695389765,0, -2, -2, 0, -3, -2, -1, 0
1503695389787,1, 8, 6, -1, 0, 0, -2, 2
1503695389810,1, -1, -2, -2, 0, -1, 1, 0
1503695389824,-1, 0, -3, -3, -2, -1, 0, 0
1503695389847,-3, 4, 1, 1, -2, 0, 1, -4
1503695389869,-2, -8, -7, -4, 0, -3, -3, -3
1503695389884,-1, 0, -1, 0, -1, 0, 0, -2
1503695389907,0, -5, -1, 0, -1, -1, -3, 0
1503695389929,2, 4, 2, 3, -2, -2, 1, 0
1503695389944,-3, -3, -6, -3, -2, -1, 1, -1
1503695389967,0, -2, -2, -2, 0, 0, -2, 1
1503695389989,-1, 2, -1, 2, -2, 0, -1, -1
1503695390012,-2, 0, -3, -2, -2, 1, 0, -3
1503695390027,4, 21, 18, 4, 1, 2, 0, 0
1503695390049,-3, -6, -6, -1, 0, -4, -2, -1
1503695390072,-3, -10, -7, 1, -1, -4, -4, -3
1503695390087,0, -3, 0, 0, -1, 1, 0, -1
1503695390112,0, -1, 3, -2, 2, 0, 0, 1
1503695390132,-3, -3, -3, 0, 0, -2, -1, -1
1503695390147,1, 21, 8, 1, -3, -2, -2, -3
1503695390162,-1, 0, -2, 0, -1, -1, -1, -1
1503695390180,-1, -1, 1, 0, -3, 0, -2, -3
1503695390200,0, 7, 5, 0, -1, -2, -1, 0
1503695390207,-2, -4, -1, 0, -1, -1, -1, 1
1503695390229,-1, -3, 1, 0, 1, 1, -1, -1
1503695390252,0, 3, 1, 0, -2, 0, 2, -1
1503695390266,-1, -2, -4, -3, -1, -1, -1, -2
1503695390289,3, -2, -2, 0, 2, 0, 0, 3
1503695390313,-1, -2, 2, 2, -3, -1, -2, -2
1503695390326,1, 2, 5, -2, -3, -4, -1, 2
1503695390342,-4, -7, -10, -1, -1, 0, -4, -9
1503695390357,1, 6, 8, 1, 0, 0, 0, 3
1503695390383,-4, -7, -5, -2, -1, 1, -1, -2
1503695390402,0, 4, 4, 0, 2, 0, -2, 1
1503695390417,-4, -5, -4, 1, 1, -3, -3, 0
1503695390440,0, -6, -8, -1, -1, 0, 1, -2
1503695390462,0, -3, -3, 0, -2, -2, -4, 0
1503695390477,0, -2, 1, -1, -3, -1, 1, 1
1503695390500,-2, -5, -9, -7, 1, -1, 0, -2
1503695390522,-2, 5, 6, 1, 1, -1, 0, 0
1503695390537,2, 7, 6, 3, -2, -1, 1, 0
1503695390560,-3, -4, -2, -1, -2, 0, -3, -3
1503695390582,-1, -3, -3, 0, -2, 0, 0, -1
1503695390590,-2, -2, -3, 0, 1, -1, -1, -2
1503695390612,-1, 3, 1, 0, -1, -2, -4, -3
1503695390627,-3, -2, -1, -1, -2, 0, -1, 1
1503695390650,1, 0, 0, 0, 0, -1, -1, 0
1503695390672,-2, 3, 2, 3, -2, 0, 0, 0
1503695390687,0, 0, -3, -4, 1, -1, -1, 0
1503695390709,-1, 1, 5, -1, 1, -1, 0, -1
1503695390732,-1, -1, 0, 0, 0, 2, -3, -2
1503695390749,0, 0, -1, -1, 1, 0, 1, -1
1503695390769,2, 14, 10, 3, 0, -1, -2, 0
1503695390792,-4, -5, -6, -3, -2, 0, -1, -2
1503695390809,0, -2, 0, -1, -2, -1, -4, 0
1503695390840,-3, -3, -1, 0, 1, 0, 0, 2
1503695390861,-1, 1, 0, -1, -1, 1, -1, -2
1503695390885,-3, 1, 5, 1, -1, -2, 0, -2
1503695390897,1, 7, 5, 1, -1, -1, -1, 0
1503695390912,-1, -1, -1, 1, -2, 0, 1, 1
1503695390929,-1, -2, -2, -1, -2, -1, -3, -1
1503695390942,0, 3, 4, -2, -2, 0, 1, 1
1503695390959,-1, 1, -3, -2, -1, -2, -3, -4
1503695390972,-2, -5, -3, -3, -4, 0, -2, -2
1503695390995,-2, -5, -3, 1, 0, -1, 0, 0
1503695391009,-2, 7, 10, 1, 2, -1, -2, -2
1503695391041,-3, -1, 0, -3, -2, 1, -2, -2
1503695391085,-2, -5, -4, 0, 0, -1, 0, -3
1503695391092,0, 4, 4, 1, -1, 0, 0, 1
1503695391114,-2, -5, -5, -2, 1, -3, 0, -2
1503695391129,0, -2, 0, 1, -3, 0, -3, -2
1503695391152,-2, -7, -7, -6, 0, 0, 0, -1
1503695391174,0, 0, -4, 0, 0, -2, 1, 2
1503695391182,-2, -2, 0, -3, -2, -3, 0, -1
1503695391204,0, -2, -2, -4, -3, -3, -1, -1
1503695391220,-2, 1, 1, -1, 0, 1, -1, -3
1503695391242,2, 3, -2, 0, -1, 1, -3, -3
1503695391265,0, -2, 3, -2, 0, -1, 0, -1
1503695391280,-1, -5, -5, -4, -2, -1, 0, 1
1503695391302,-4, -15, -12, -2, -1, -3, -2, 2
1503695391324,0, 2, 1, 0, -1, -3, 1, -3
1503695391340,0, -6, -4, -2, -1, 2, -1, -2
1503695391355,1, 6, 5, -1, 1, 0, -2, -1
1503695391369,-2, -1, -3, 0, -2, 0, 3, -2
1503695391392,-2, -4, -2, 1, -1, 0, -1, 2
1503695391414,0, 0, 0, -1, -1, 0, -1, -2
1503695391430,-2, 0, -3, 0, -1, -1, -1, -2
1503695391454,0, 1, 1, -1, -2, -2, 1, 1
1503695391474,-2, -1, 1, 0, 0, 1, -2, 1
1503695391490,1, -1, -1, -1, 1, -1, 0, 0
1503695391512,-2, 6, 4, -1, -2, -1, 0, 1
1503695391534,1, -3, -4, 1, 0, -1, -2, -1
1503695391549,-1, -6, -5, -3, -2, -2, -2, -1
1503695391571,-5, -7, -4, -2, 0, -1, 1, -2
1503695391580,0, -1, -2, -1, -2, 1, -1, -3
1503695391602,-1, -5, -4, -2, 1, 0, -2, 1
1503695391626,0, -1, -4, -1, -2, -3, -1, 0
1503695391640,-2, 0, 0, 1, 2, 0, 0, -2
1503695391662,-2, -1, -2, -2, 0, -1, 1, 0
1503695391684,-1, 0, 2, -2, -4, 1, -2, -2
1503695391700,0, 1, 1, 1, 1, -2, 1, 1
1503695391729,-2, -2, -6, -2, -3, -1, -3, -3
1503695391744,-2, -4, 2, 3, -3, 2, 2, -1
1503695391762,3, -2, -4, -3, 0, -1, -2, 2
1503695391784,-4, -9, -7, -5, -1, -2, -1, 0
1503695391804,0, -2, -1, 0, -1, -2, 0, -2
1503695391841,2, 3, -1, -1, 2, -1, 0, 0
1503695391850,0, 2, -3, 1, -2, -1, 0, 0
1503695391865,-4, 0, 2, 0, -1, -1, -2, -1
1503695391880,3, 7, 11, 1, -1, -2, 0, 0
1503695391904,-3, -7, -8, -3, -1, -2, -1, -1
1503695391925,-3, 0, -1, -4, 0, -1, 0, -2
1503695391949,0, 0, 0, -1, 0, 0, -2, -1
1503695391963,0, -2, -4, 0, -1, 0, 0, -1
1503695391984,0, 2, 1, -2, -3, -2, -3, -2
1503695392007,1, 0, 1, -2, -4, -1, -1, -1
1503695392024,-2, 8, 8, 2, 2, 0, 0, -3
1503695392044,-2, -3, -3, -1, -2, 1, -1, 1
1503695392067,1, 3, 7, 2, 2, 1, 0, -2
1503695392082,-2, -5, -7, 0, 0, -3, -1, -1
1503695392104,0, -4, -6, -4, -4, 0, 0, 1
1503695392127,0, -4, -3, 0, 0, -1, -1, -2
1503695392134,-1, 1, 2, -2, -3, 2, 0, 0
1503695392156,1, 6, 1, -1, -1, 0, 1, -2
1503695392165,-2, -3, -4, -1, -3, -1, -1, 0
1503695392187,0, 3, 3, -2, -1, 0, -1, 0
1503695392202,0, 12, 17, 1, 1, -1, -1, -1
1503695392227,0, -7, -12, -5, -1, 2, -1, -1
1503695392247,1, -4, -3, 2, -1, 1, -1, -1
1503695392263,-4, 0, -2, 1, -1, -1, -1, 0
1503695392284,0, -1, -4, -2, 0, -2, 0, 0
1503695392307,-4, -8, -5, -2, -1, -2, -2, -1
1503695392323,1, -1, -2, 0, 1, -1, -2, -1
1503695392344,0, -2, -4, -1, -2, 0, -2, -1
1503695392373,0, -4, -1, -3, -2, 0, 0, 0
1503695392382,-3, 4, 5, -1, 3, 0, 0, -1
1503695392404,0, -1, -2, -1, -4, -4, -1, 1
1503695392430,-1, 0, -2, 4, 0, -1, -1, -2
1503695392435,0, 0, 4, 1, -3, 0, 0, -1
1503695392456,-1, -2, -5, -4, 0, 2, -4, -2
1503695392471,-1, -5, -6, -1, -2, -1, 0, -3
1503695392487,-1, 1, 0, -1, -4, -2, -1, -2
1503695392503,2, 6, 2, 1, -3, -1, -2, 1
1503695392524,-1, -5, -3, 0, 1, 0, 0, -1
1503695392546,-2, -7, -2, -1, -1, -1, -2, -2
1503695392562,0, 1, 1, -1, -2, 0, -2, -2
1503695392584,0, 3, -1, -1, 1, 0, -1, -1
1503695392607,-3, -3, 1, 1, 0, -2, -3, -2
1503695392622,0, -1, 3, 3, -1, -1, -1, -1
1503695392644,-2, 0, -2, -3, 0, -2, -2, -1
1503695392651,0, 8, 2, -2, 1, 0, -2, 1
1503695392674,1, -4, -5, 1, -2, -1, 0, 0
1503695392697,-1, 0, 0, -2, 2, -2, -2, 0
1503695392712,0, 4, 5, 2, -2, 1, 0, -1
1503695392734,-2, -5, -4, -3, -1, -1, 1, -1
1503695392756,0, -6, -8, -3, -1, -1, -1, 0
1503695392772,-1, -3, 0, -2, -2, 1, 0, 0
1503695392796,-3, -3, 3, 3, 0, 0, -2, -1
1503695392816,0, 13, 9, -1, -1, -1, 0, -1
1503695392832,-1, -5, -5, -5, 0, 0, 1, -1
1503695392855,-1, 1, 1, 1, 1, -4, -1, 0
1503695392876,2, 6, 1, 1, -2, -1, -2, -1
1503695392899,0, -4, -2, -1, -1, -2, -2, 0
1503695392914,1, 0, 1, 2, 0, 0, -2, -2
1503695392936,-2, -4, -4, -1, -1, 0, -1, 0
1503695392958,-1, -1, -2, 0, 0, 1, -1, -2
1503695392974,-3, -4, -4, -1, -4, -2, 0, -1
1503695392999,-1, -1, -1, 0, 0, 0, -1, -2
1503695393018,-2, -3, -1, -1, -1, -2, 0, -2
1503695393034,0, -2, -1, -2, -1, 0, -2, 0
1503695393056,-2, -2, 2, -2, 2, 0, 2, -2
1503695393079,0, -2, -6, 1, -1, -1, -1, -1
1503695393094,-2, -2, -1, -3, -3, 0, 1, 1
1503695393116,0, -2, -2, 0, -2, -2, -2, -1
1503695393138,1, 11, 10, 1, -2, 1, -1, 0
1503695393154,-4, -4, -3, 1, 1, -2, 0, 0
1503695393176,-1, -3, -3, -3, 0, -2, -1, -2
1503695393200,-1, -3, -2, 0, 1, -1, 0, -1
1503695393214,-3, -6, -6, -3, -2, 0, -2, 0
1503695393238,0, -3, -1, 1, -2, 1, -3, -1
1503695393258,0, -1, 2, -3, -1, -1, 2, -1
1503695393275,1, -3, -3, -2, -1, -3, -2, 1
1503695393290,-3, -1, -1, 1, 1, -2, 0, 0
1503695393305,-3, -1, 0, -3, -1, -1, -2, -3
1503695393319,0, 1, 1, 3, -2, 0, 1, 0
1503695393334,-1, -2, 0, -2, 2, -1, -4, -1
1503695393349,-1, -3, 1, 0, -3, 0, 1, 0
1503695393365,2, -2, -2, 0, -9, 1, 2, 0
1503695393379,0, -1, -2, -2, 3, 2, 0, 1
1503695393394,1, 2, 1, -1, -1, -2, 0, -1
1503695393417,-1, -2, -1, -4, -3, -4, -3, -1
1503695393440,-2, -3, -1, -8, -20, -4, -4, 0
1503695393454,1, -2, -3, -5, 2, 1, 0, 0
1503695393477,-2, 0, 0, 0, -2, -3, -1, -1
1503695393498,-2, -1, 0, -4, 1, -1, -5, -3
1503695393514,8, 4, 0, 8, 14, 4, 5, 6
1503695393537,-5, -1, -2, -5, -8, -4, -2, -5
1503695393558,9, 10, 1, 1, -6, 1, 0, 5
1503695393570,-6, -1, -2, -1, 2, 1, -3, -5
1503695393590,0, 0, -7, -2, -8, -2, 2, 14
1503695393613,-1, 0, 4, 0, -4, -2, -4, -4
1503695393628,-4, -7, -8, -2, 1, -1, 2, 7
1503695393649,-1, -7, -5, 2, 11, 0, -3, -4
1503695393664,17, 9, -2, -3, -2, 0, 2, 9
1503695393679,-4, 0, -3, 1, 1, -1, 0, -8
1503695393694,-1, 6, 2, -1, 0, -1, -1, -1
1503695393717,2, -1, 4, 5, 2, 0, 3, 14
1503695393739,8, -12, -13, -9, -7, -3, -1, 7
1503695393755,-3, -11, -8, -2, -13, -1, 0, 0
1503695393777,-4, -5, 2, -1, -3, -1, -2, -4
1503695393798,6, 1, -7, -2, -1, 0, 0, -2
1503695393821,5, -11, 8, 1, 3, -1, -2, 7
1503695393837,-6, -12, -14, -4, 0, -3, -6, -1
1503695393858,-8, 8, 4, -2, -7, 0, -2, -7
1503695393889,-2, 7, -1, -1, -2, -1, 2, -5
1503695393922,5, 2, -5, -3, 0, 1, 0, 10
1503695393941,-14, -12, -16, -6, 5, -1, -4, -16
1503695393960,-5, -20, -14, -7, 0, -2, 3, 3
1503695393972,6, -18, -5, -3, -5, -2, 2, 25
1503695393983,-12, -11, -11, -4, -2, 1, -4, -22
1503695394001,-11, 1, 1, -2, 0, -2, 0, -1
1503695394017,2, -14, -11, -1, 0, -3, -2, 7
1503695394039,-2, -9, -7, -2, 0, -2, -8, -11
1503695394061,1, -1, -4, -3, 0, 1, 3, -14
1503695394077,5, 0, 1, 3, 1, -1, -2, -4
1503695394123,-18, 5, 0, -1, 1, 1, -4, -29
1503695394139,-9, 5, 14, 6, 0, -1, -2, 4
1503695394159,0, 14, 24, 10, 4, 0, 0, -16
1503695394181,3, 13, -2, 0, -1, -1, 0, 9
1503695394197,29, 9, -6, -4, -5, 0, -2, 24
1503695394218,-3, -13, -7, -2, -2, -4, -3, 16
1503695394241,21, -1, -2, -3, 0, 2, 6, 21
1503695394257,-9, -8, -2, -2, -2, 0, 1, 21
1503695394278,-34, -2, 7, 8, 1, 3, -1, -50
1503695394301,-4, -23, -12, -6, -1, -4, -9, -41
1503695394317,-15, -2, -8, -2, 1, -2, -6, -23
1503695394341,7, 5, -2, -3, -1, -3, -3, 4
1503695394361,10, 12, 11, -4, -6, -1, 7, 17
1503695394377,-3, 13, 8, 3, 3, -1, -3, -18
1503695394398,-26, -7, 0, 1, -3, -7, -15, -12
1503695394421,1, -11, -14, -4, 4, 8, 13, 27
1503695394436,-21, 18, 3, 5, 3, -5, -17, -69
1503695394453,-25, 30, 34, 11, 6, 4, -3, -50
1503695394466,11, -14, -12, -7, -2, -1, -5, 3
1503695394482,2, 5, 1, -1, 0, 3, 4, 12
1503695394504,5, -3, -8, -5, -6, -6, -8, -15
1503695394520,-6, -4, 3, 2, -2, 1, -5, -44
1503695394543,13, 20, 36, 10, 1, 3, 4, 53
1503695394565,-14, -13, -14, -6, -1, -7, -15, -11
1503695394580,-1, 18, 4, 2, -2, 1, 12, 38
1503695394602,6, -31, -22, -7, -4, 0, -1, 10
1503695394625,-7, -29, -20, -6, -2, -5, -12, -45
1503695394639,-9, -14, -7, -4, -5, -4, -2, 39
1503695394648,-24, -8, -3, 1, 2, 3, -2, -28
1503695394669,1, 9, 5, 1, -2, -2, 1, -12
1503695394692,0, -16, -13, 1, 3, 2, 8, 5
1503695394714,-10, -11, -9, -3, 0, 1, -3, 6
1503695394729,11, 0, -6, -2, -3, -3, -8, 19
1503695394752,-6, 2, 2, -1, -5, -5, 0, -4
1503695394775,2, 13, 9, 0, -2, 0, 6, -8
1503695394782,6, 8, 1, -5, -1, -1, 7, 17
1503695394804,1, -2, 0, 2, -1, 1, 4, 6
1503695394819,-12, -2, 2, 8, 2, 1, 2, -3
1503695394845,3, -3, 0, -3, -1, -1, -7, 4
1503695394864,16, 7, 4, -3, -1, 0, -4, -7
1503695394887,21, 0, 5, 2, -1, 6, 18, 79
1503695394912,1, -22, -15, -13, -13, -3, -1, 13
1503695394931,-9, 0, 4, 3, 1, 0, 0, -8
1503695394954,9, 5, 11, 1, 1, 0, 3, 11
1503695394969,0, -18, -15, -4, 1, -1, -3, 1
1503695394986,-1, -13, -11, -4, -3, -2, -6, -27
1503695394999,-6, -9, -5, 0, 0, 0, -10, -25
1503695395022,-15, 6, -3, -2, 0, 0, -3, -47
1503695395046,24, 9, 6, 2, 2, 4, 18, 30
1503695395059,10, 14, 11, 0, -1, 0, -4, -14
1503695395082,-1, -16, -13, -2, -5, -5, -7, 17
1503695395104,-1, -4, 0, -3, -8, -2, 2, -3
1503695395120,4, 8, -4, -2, 0, 0, -1, 16
1503695395142,16, 1, 5, 4, 4, 3, 2, 0
1503695395150,7, 2, 9, 6, 0, -4, -8, -9
1503695395171,9, 14, 8, 2, 4, 2, 4, 6
1503695395195,-11, -22, -14, -2, 1, -3, -8, -33
1503695395209,-12, -6, -6, -8, -5, -3, 0, 5
1503695395231,-17, -14, -10, -3, 0, 2, 5, -2
1503695395254,12, 4, 2, 2, 1, 3, -6, -23
1503695395262,-6, 4, 15, 8, 3, -1, -3, -1
1503695395285,-5, -16, -13, -7, -5, -4, 2, 6
1503695395306,-6, -7, -13, -3, -2, -1, 7, 17
1503695395315,-2, 1, -8, -3, -2, -2, -1, -19
1503695395329,3, -8, -14, -9, -2, 0, 3, 23
1503695395352,10, 14, 3, 2, 2, 1, -4, 20
1503695395374,-11, -7, 3, 4, 1, 1, -1, -4
1503695395390,-2, 4, 1, -3, -7, -4, 2, 13
1503695395418,1, 2, 2, 1, 0, 1, 0, -27
1503695395434,-17, 1, 3, -2, -2, -2, -7, 2
1503695395449,8, 10, 12, 5, 1, 1, 1, -2
1503695395472,22, 6, 3, 1, 1, 2, 3, 17
1503695395494,15, 6, 9, 4, 0, 0, -5, 4
1503695395509,-6, -7, -10, -9, -4, -1, 5, 3
1503695395531,15, -5, -8, -6, -3, -2, 1, -1
1503695395554,-10, -3, 4, 6, -1, 3, 8, 6
1503695395569,9, -3, -3, -1, 0, -2, -6, 3
1503695395592,-8, 5, -10, -8, -4, -3, 0, -1
1503695395616,-8, -8, 1, 3, 2, -2, -7, -2
1503695395629,-1, -3, -3, -5, -2, -2, -12, -13
1503695395652,-16, -9, -3, -7, -2, -1, 0, -6
1503695395674,0, 0, 1, -2, -8, -3, 0, -3
1503695395697,2, -5, -4, 4, 5, 1, -4, 2
1503695395713,3, 2, 3, -2, -6, -3, 0, 1
1503695395727,4, 13, 7, 0, 1, -1, 3, -4
1503695395742,-1, 0, -8, -5, -2, -3, -5, 0
1503695395764,2, 4, 0, 4, 7, 2, -2, 0
1503695395787,3, 25, 13, 11, 13, 1, -1, -5
1503695395802,-1, 0, -1, 0, -3, 0, -1, -3
1503695395824,0, -9, -11, -3, 1, -3, 0, 2
1503695395846,1, -1, 0, -2, 1, 0, -1, -2
1503695395863,1, 1, 1, -4, -5, -1, -4, 0
1503695395877,1, 2, 2, 2, 4, 0, -3, 0
1503695395888,-2, -4, -1, 1, -2, -2, 0, 0
1503695395906,-3, -5, -1, -6, -2, 2, -2, -1
1503695395922,0, -5, -5, -1, 3, -2, 0, 1
1503695395944,-4, -8, -9, -7, -7, -2, -2, -2
1503695395966,4, 19, 11, 2, 2, 1, 1, -1
1503695395982,2, -5, -1, -3, -2, -1, -1, -1
1503695396004,3, 6, 5, -2, -7, -2, 0, 1
1503695396027,-3, -6, -8, -7, -3, -1, -1, -4
1503695396042,7, 2, 2, 3, 1, 0, -1, -1
1503695396064,2, -1, -3, -3, 2, 0, -1, -2
1503695396089,-8, -4, -5, 3, 9, 0, -3, -4
1503695396102,-4, -11, 0, 3, 5, 1, -1, -2
1503695396126,-5, 3, 1, 7, 5, 0, -3, -2
1503695396132,-2, -2, 4, 1, -5, -3, -1, -1
1503695396162,-1, -1, 3, 11, 10, 3, 0, 1
1503695396176,2, 0, -9, -16, -10, -2, 1, 1
1503695396191,-3, -9, -7, -6, -7, -4, -1, -2
1503695396207,-2, -2, -5, -7, 0, -2, -3, 0
1503695396222,-1, 1, 1, -3, -2, -1, 0, 1
1503695396244,-2, -3, -1, 3, -1, -3, -2, -1
1503695396267,0, -2, 0, 3, 2, 1, 1, 1
1503695396282,2, 7, 3, -1, -2, 0, 0, -1
1503695396297,-4, -2, -5, -1, 2, 1, -2, -2
1503695396311,-5, -9, -9, -9, -2, -2, -4, -1
1503695396334,-1, 3, 2, 1, 1, 0, 2, -2
1503695396357,1, -1, -7, -3, 0, -1, -1, 0
1503695396371,0, 1, -2, 0, 1, -3, -2, -1
1503695396394,0, -4, 0, 1, 4, -1, 0, -1
1503695396416,-2, 0, -2, -2, -2, 0, -1, -1
1503695396431,0, -1, 0, 0, 0, -3, -2, -2
1503695396456,-3, 0, -3, -4, -2, -2, 2, -1
1503695396476,0, 6, 2, 2, 0, 0, -1, -2
1503695396484,0, 8, 9, 4, 0, -2, -1, 1
1503695396507,0, 4, 1, 0, 1, -1, -2, -1
1503695396524,-1, -7, -4, -2, 0, 1, 1, -1
1503695396545,0, -2, 0, 0, 1, 0, -1, -1
1503695396567,1, -4, -7, -2, -4, -3, 0, 0
1503695396590,-1, -4, -4, 2, -1, -2, 1, 1
1503695396604,-3, 0, 4, -2, 1, -2, -4, 0
1503695396627,3, 6, -2, 1, -1, 1, 2, 2
1503695396649,-1, -1, -1, 2, 0, -1, -2, -4
1503695396665,-1, 1, -1, -4, -1, -1, -2, -2
1503695396687,-3, -2, -2, -1, -3, 0, 0, -2
1503695396709,-1, -1, -3, -1, 0, 2, -2, 2
1503695396730,-1, 3, 4, -2, -1, -1, 2, 0
1503695396746,0, -2, -3, -1, 0, -1, -4, -3
1503695396757,1, 3, -2, 0, -1, -1, 6, 0
1503695396776,-2, 2, 4, -4, -1, -3, -2, 2
1503695396800,0, 1, -3, 1, 0, 0, -1, -2
1503695396814,0, -3, -1, 0, 0, -1, -2, -1
1503695396836,-1, -5, -5, -2, -4, -2, -1, 1
1503695396858,0, -3, -3, -1, -2, 0, 0, -2
1503695396874,1, 0, 0, -3, -1, -1, -1, -2
1503695396892,-1, 4, 5, -2, 1, -1, -3, 1
1503695396904,-1, 0, -3, -2, -2, -1, -1, -1
1503695396926,-1, -1, 0, 0, 1, -2, 2, -1
1503695396949,0, 0, 3, 1, -2, 0, 0, 1
1503695396965,-2, -4, -4, -3, -2, -1, -1, -2
1503695396987,-1, -2, -4, -4, -2, 0, 0, -3
1503695397009,-1, -3, 0, -1, 0, -1, 0, -1
1503695397026,1, 2, 6, 1, 1, -2, 1, 0
1503695397038,-4, -3, -3, 0, -1, 2, -1, -1
1503695397054,0, -5, -7, -5, -2, -2, -3, -1
1503695397076,1, -3, -2, 2, -1, -1, -2, 1
1503695397098,-2, 2, 3, -3, 1, 1, 1, 1
1503695397114,-3, 0, 1, 0, -1, -1, 0, -3
1503695397137,0, 0, 1, 1, 1, 0, -2, 0
1503695397161,2, 3, 0, 0, -1, -2, -1, -2
1503695397174,-1, -4, -4, -3, -1, -1, 0, -2
1503695397196,0, 1, 0, -2, -1, -3, 0, -1
1503695397204,-1, -1, -2, -2, -2, 2, -1, -2
1503695397228,-1, -2, -3, -2, 0, -2, -1, -2
1503695397234,-2, -1, -2, 0, -1, -2, -1, 0
1503695397257,-1, 2, 1, -1, -2, 0, -1, -1
1503695397279,0, -7, -8, -1, -2, -2, -3, 2
1503695397295,-4, -6, -3, -1, -1, 1, -1, -2
1503695397316,0, 2, 1, 2, 0, 1, 0, -1
1503695397339,1, 5, 3, 1, -2, -1, 0, -1
1503695397356,-1, -1, -3, -3, -1, -2, 0, -1
1503695397376,0, -3, -1, 0, 0, 0, 1, -1
1503695397399,-1, -1, 0, -4, 1, -3, 0, -2
1503695397414,1, 1, 2, -2, -2, -1, -2, 0
1503695397437,-1, 4, 3, -1, 1, 0, -1, -1
1503695397459,0, 2, 6, 1, -1, 1, 1, 1
1503695397474,0, -1, -4, -3, 0, 0, 1, -1
1503695397498,-1, -3, -5, 0, 0, -1, 0, -1
1503695397519,3, 8, 8, 2, -1, 0, 1, -1
1503695397541,-3, -4, -4, -2, -2, -2, -2, -3
1503695397557,-1, -5, -5, 1, 1, -1, -2, -1
1503695397579,1, 1, -2, -1, -2, -1, -1, 0
1503695397605,0, 0, 4, 2, 0, 0, -1, 0
1503695397616,-3, -2, -5, -5, -3, -3, -2, -3
1503695397641,-2, -4, -2, -2, 0, 0, 1, 1
1503695397662,-3, -1, -2, 0, -2, 0, -1, -1
1503695397677,0, 3, -1, 1, 0, 0, -1, -2
1503695397700,-2, -4, 1, -2, 1, -2, 0, 0
1503695397721,-2, -1, -3, -3, -2, 0, -1, 0
1503695397737,0, 3, 1, 1, -3, 1, -1, -1
1503695397752,-1, 1, 1, 0, 0, 1, 0, 1
1503695397767,0, -3, -2, 0, -2, -4, -1, -1
1503695397790,-4, -4, -5, 0, -2, -1, 0, 0
1503695397812,0, 0, -1, -4, 0, -1, -1, -1
1503695397827,1, 4, 3, -1, -1, 1, -1, -2
1503695397850,-1, -2, 0, -1, -2, -1, 1, 0
1503695397857,-1, -3, -1, 1, -1, -2, -1, -1
1503695397879,-1, -3, -1, -4, 1, -2, 0, 0
1503695397902,2, 7, 6, 5, 0, 0, -1, 2
1503695397917,-2, -4, -5, -1, -2, -1, -2, -1
1503695397942,-1, -2, -4, -5, 0, 0, 2, -2
1503695397970,-1, -4, -1, -2, -2, -1, -1, -1
1503695397977,1, -1, -4, -1, -2, -1, -3, -3
1503695398000,-1, 1, -1, -1, -2, -2, -2, -1
1503695398021,-1, -5, -3, -1, -4, -1, -1, -2
1503695398038,-1, -1, -4, -2, 1, -1, -1, 0
1503695398059,-3, 4, 2, 0, 1, -2, -1, -1
1503695398082,0, -3, -2, 0, 0, -1, -1, -2
1503695398096,-1, 3, 0, 1, -1, 1, -1, 1
1503695398119,1, -1, -1, -1, -2, -3, 1, 1
1503695398142,-2, -3, -2, -3, -1, 0, -1, -2
1503695398163,0, -1, -1, -1, 1, 1, 0, 0
1503695398179,0, -3, -4, 0, -1, -2, -1, 1
1503695398207,-2, -1, 2, 0, 1, 0, 1, -2
1503695398216,-1, 1, -1, 0, 0, -1, 0, -2
1503695398239,0, -1, -2, -2, -3, -1, -1, 0
1503695398261,2, 1, 4, 2, 0, 0, 1, 0
1503695398277,-1, -4, -3, 0, 1, -2, -2, 0
1503695398299,-1, 2, 1, 2, -1, 0, -1, 0
1503695398321,-2, -4, -4, -4, -3, -1, -1, -2
1503695398336,-2, -1, -2, -2, -1, -3, -1, 0
1503695398359,2, 1, 4, 0, 1, 2, 1, 1
1503695398381,0, 0, 0, -2, 1, 0, -3, -1
1503695398396,-3, -3, -3, 0, -2, -1, -1, -1
1503695398419,0, 2, 0, -3, 0, 0, 1, -1
1503695398441,-1, -2, -2, -1, -1, -4, 0, -1
1503695398463,-4, -4, -4, 2, 0, 1, -2, -2
1503695398479,-1, -3, -7, -3, -1, -2, -1, -2
1503695398503,-1, -3, -1, 0, 1, 0, -1, -3
1503695398523,-2, 1, 1, -2, -2, -1, 0, 1
1503695398539,0, 2, 8, 2, -1, 1, 0, 0
1503695398561,-1, -2, 0, -4, -3, -2, 0, -2
1503695398583,1, 1, -2, 0, 0, -1, -1, 1
1503695398599,0, -3, -2, -1, 2, -1, -2, -1
1503695398621,0, 6, 3, -1, -3, -1, -1, 0
1503695398644,-2, 1, -2, -1, -2, 0, -1, 0
1503695398659,-1, -4, 0, -2, 2, 0, -1, -3
1503695398681,-1, 0, -3, -3, -1, -1, 0, 0
1503695398705,0, -3, -4, -2, -1, -2, -1, 0
1503695398726,-1, -3, 3, 0, 1, 0, 1, -1
1503695398741,-2, 2, -2, 1, -1, -1, -1, -2
1503695398763,0, 0, -2, -3, 0, 0, -1, -1
1503695398779,-1, 0, 0, 2, -3, 0, -3, 2
1503695398801,0, 2, 0, -3, -1, -1, -2, -2
1503695398823,0, 0, -2, -1, -2, -1, 0, -1
1503695398840,-1, -2, -1, -1, -1, -1, 0, 0
1503695398860,0, 2, 4, -1, -2, -1, -3, -1
1503695398883,-1, 1, 3, 2, -1, 0, 2, -1
1503695398899,-1, -4, -5, -3, 0, -3, 1, 0
1503695398920,0, 0, -2, 1, 1, -1, 0, -2
1503695398945,1, -3, -4, -2, 1, -1, -3, -1
1503695398959,-3, -3, 0, 0, 2, 0, -1, -2
1503695398982,0, 5, 4, 0, -3, 0, 0, 0
1503695399003,3, 0, -4, -2, -3, 0, -2, -2
1503695399020,-3, -3, -1, -1, 0, 0, 1, -1
1503695399042,-3, -3, -4, 2, 1, -1, -2, 0
1503695399063,-1, -2, -2, -1, -1, 0, -2, 1
1503695399080,2, -1, -3, -3, -1, -1, 0, -1
1503695399100,-6, -5, -1, -2, -2, -1, -2, -3
1503695399123,3, -4, -1, 0, -1, -2, -3, -1
1503695399141,0, 5, 5, -2, -3, 1, 1, -1
1503695399160,-1, -3, -2, 0, 0, -4, -2, -1
1503695399183,1, 3, -1, -2, 0, -1, 0, -1
1503695399199,0, 5, 1, -1, -2, 2, 1, 0
1503695399221,-4, -4, -3, 0, -3, 0, -2, 1
1503695399244,1, 0, -5, 0, -1, 0, -1, -1
1503695399259,4, 3, -1, 1, 0, -3, -2, -1
1503695399281,-5, -5, 0, -3, 1, 0, 0, -1
1503695399303,-2, -1, 0, -1, 0, 0, -1, -3
1503695399319,0, -2, 1, 3, -3, -1, 0, 0
1503695399350,0, -1, -1, 2, 2, 0, 0, -1
1503695399363,-1, -5, -3, -4, -4, -2, -2, -2
1503695399386,-3, -3, -2, -6, -6, 1, 0, 1
1503695399400,0, -2, -1, 0, 1, -3, 1, -2
1503695399424,-2, 0, -3, -5, -4, -1, 0, 1
1503695399446,0, -4, 1, 11, 9, -1, -1, 0
1503695399460,-1, 4, -2, -3, -8, -3, 0, 0
1503695399483,1, 0, 4, 1, 2, 1, 0, -1
1503695399506,-1, -1, 2, -1, -4, -3, -1, -2
1503695399521,-2, -5, -5, -2, -3, -3, -3, -5
1503695399544,-2, 2, -1, -3, 0, -2, -3, 1
1503695399566,0, 0, 0, 1, 2, 2, -1, 0
1503695399581,1, -2, -1, -2, 1, -1, -2, 0
1503695399603,-2, 2, 2, -4, 1, -1, 2, 0
1503695399626,2, 2, -1, 3, -2, 0, -3, 0
1503695399641,0, 3, 4, -1, -1, -1, 0, -1
1503695399663,-3, -4, -4, 2, -3, -1, -2, -4
1503695399686,-3, -5, -2, -3, 0, 0, 0, 1
1503695399713,2, 6, 3, 1, 1, 0, 0, -1
1503695399724,-1, -2, -3, 3, 2, 1, 0, 0
1503695399747,0, 0, 1, -4, -3, -2, 0, -1
1503695399769,0, -2, -1, -4, -10, -1, 0, -2
1503695399784,-2, -1, 0, -1, 3, -4, -1, 0
1503695399807,0, -1, -5, -1, 0, 1, -2, -2
1503695399829,-1, 1, -2, 0, -1, 0, 0, -1
1503695399846,-6, -6, -2, 1, 3, -1, -1, -4
1503695399867,0, 1, 0, -2, 1, 0, -1, -1
1503695399893,0, 1, 3, 4, 5, 1, -1, 0
1503695399904,-2, -4, -5, -3, -6, -1, -1, -2
1503695399927,0, -4, -1, -3, -1, -1, 1, 0
1503695399949,-1, -3, -1, -2, -1, 0, -2, 1
1503695399964,0, 1, -7, -11, -14, -4, -3, -3
1503695399987,1, 0, 0, 1, -1, -1, 0, 0
1503695400009,4, 5, 2, 1, -5, -2, -2, -1
1503695400032,0, -1, 2, 4, 2, 0, -3, 0
1503695400048,-5, -3, -3, -1, 0, -1, -1, -2
1503695400069,-1, -5, -4, -3, 0, -3, 0, -4
1503695400089,-1, 2, -1, -3, -9, -4, 0, -2
1503695400107,-3, -2, -1, 6, 6, 3, -1, -1
1503695400129,2, 0, -2, -3, -1, 1, -1, 1
1503695400144,4, 12, 14, 0, 1, 1, 2, 2
1503695400152,0, -2, -4, -5, -6, -2, -1, 0
1503695400174,-2, 6, 13, 1, -1, -3, -4, -1
1503695400196,-5, -3, -7, -4, -11, 0, 0, -2
1503695400211,0, 4, 4, -3, -4, -2, 1, 0
1503695400234,1, -1, 6, 0, 3, 0, -1, 1
1503695400257,1, -1, -4, 1, 3, -1, -1, -2
1503695400271,2, 1, 2, 5, 8, 4, 1, 1
1503695400294,0, -2, -2, -4, -3, -5, 0, 2
1503695400317,-4, -5, -5, -4, -6, 0, -3, -2
1503695400339,-2, 5, 3, -1, -2, -2, 4, -4
1503695400354,-2, -2, 2, -1, 1, 0, -4, 0
1503695400376,7, 5, 6, 8, -3, 4, 0, -5
1503695400399,-3, -2, -5, -5, -9, -4, -2, -2
1503695400418,2, 4, -2, -1, 20, 2, -1, 2
1503695400436,-5, -5, 2, -1, -8, -1, 0, -1
1503695400460,1, -4, -4, -1, -9, -4, -9, -2
1503695400474,-2, -3, -7, 0, 2, -1, -1, 1
1503695400498,-1, 5, 6, 1, -1, 1, 1, 1
1503695400522,1, -3, -5, -7, -9, -1, 2, 0
1503695400536,2, 3, -1, -2, 2, 1, -1, 0
1503695400556,-4, -14, -10, -7, -11, -5, -2, -5
1503695400564,-1, 5, 15, 5, 2, 1, 5, 4
1503695400588,-2, 0, 4, 3, 10, 0, 4, 0
1503695400609,3, 2, 7, 16, 17, 3, 2, 0
1503695400625,-3, -6, -8, -7, 0, -3, 2, 5
1503695400647,-2, -14, -9, -6, -5, -4, -3, -5
1503695400669,-1, 0, 4, 3, -2, -1, -5, -4
1503695400685,-7, -10, -9, -4, 3, 2, -1, -12
1503695400707,3, 7, 4, -1, -7, 0, 2, 1
1503695400729,0, -4, -3, 7, 10, 2, -4, 4
1503695400744,2, 11, 7, -5, -10, -2, -2, 2
1503695400767,1, -7, -17, -5, -4, 0, 5, 0
1503695400790,4, 7, 2, -5, -8, -1, -7, -2
1503695400804,6, 8, -8, -6, -17, -6, 0, -1
1503695400827,3, -7, -7, 2, 9, -1, 1, 7
1503695400849,-18, -1, 9, 5, 6, 3, -2, -2
1503695400864,-4, 0, 9, 1, -3, -3, -2, -5
1503695400887,3, -3, 0, 3, 2, -2, -1, 0
1503695400909,-1, 3, 2, -1, -5, 0, 1, 0
1503695400925,-2, 0, 2, -3, -10, -2, -2, -3
1503695400947,4, -3, 1, 0, -3, -1, 0, -1
1503695400972,-7, -2, -3, -1, 1, 2, 2, 9
1503695400993,3, 13, 19, 6, 4, 1, 1, -3
1503695401014,-11, -7, -1, -8, -8, -3, -6, -8
1503695401059,-5, 0, 0, 4, 17, 2, 3, 2
1503695401081,0, 2, 1, 4, 0, 2, 8, 9
1503695401100,-3, -4, -1, 0, 2, -2, -4, -2
1503695401124,-3, -3, -8, -2, -6, -1, 1, 2
1503695401134,1, 3, -4, -3, 4, -1, 2, 6
1503695401151,-1, -2, 6, -2, -11, -2, 0, 1
1503695401165,3, -12, -6, -2, -5, -4, -5, -8
1503695401193,-3, 7, 6, 2, -6, -1, 2, 1
1503695401210,5, -18, -8, 3, 21, 1, 3, 11
1503695401231,-5, -4, -6, -11, -24, -5, -5, -3
1503695401247,-6, -16, -13, -2, -5, -2, -3, -13
1503695401269,4, 16, 18, 7, -2, 0, 1, 4
1503695401292,-9, -1, -4, 3, 3, 1, -3, -5
1503695401315,-1, 20, 9, 1, 3, -1, -2, -2
1503695401329,-5, -11, -5, -7, -13, 1, 1, 3
1503695401354,5, 6, 9, -1, -6, 0, 3, 9
1503695401368,7, -1, -5, 0, 11, 1, -2, 2
1503695401392,-3, 2, 2, 0, -5, 0, -2, -6
1503695401411,13, 8, 9, 3, 3, 0, 1, 6
1503695401429,-5, -9, -8, -2, 15, -1, -5, -11
1503695401449,-5, -11, -9, -6, -10, -6, -1, -7
1503695401471,6, 5, 2, 1, 8, -1, 0, 4
1503695401487,-4, -3, -3, 5, -6, 5, -3, -9
1503695401509,-6, -8, -5, 2, 10, 2, 3, 2
1503695401532,-5, 3, 0, -3, -17, -3, -2, -4
1503695401547,-8, -3, -2, -5, -15, -4, -3, -6
1503695401569,0, -4, -1, -2, -4, -4, -2, 0
1503695401593,8, 5, -4, 1, 0, 2, 2, 6
1503695401607,2, 2, 3, -1, 4, -1, -3, 1
1503695401630,-4, 2, 10, 4, 5, 1, 1, 3
1503695401651,1, 0, -5, -6, -7, -5, -3, -13
1503695401668,-16, -12, -9, -6, 1, 0, 3, -5
1503695401689,1, 2, 3, 6, 8, 2, -6, -7
1503695401711,0, 3, -4, -3, 3, 2, 1, -4
1503695401727,7, 1, 1, -1, -4, 1, 4, 7
1503695401749,0, -3, -3, 3, 5, 1, -3, 7
1503695401771,9, 1, 4, 0, 1, -5, 5, 9
1503695401787,4, -1, -5, 0, 2, -3, -4, 1
1503695401809,-13, -4, 0, -4, -9, 2, -2, -9
1503695401831,8, 6, 2, -6, -17, -2, -1, 12
1503695401847,-4, 0, 0, 2, 9, 1, -4, -11
1503695401869,-10, -8, -11, -5, -3, -1, 0, 11
1503695401893,-7, -6, -2, -3, 0, 0, -1, -21
1503695401907,13, 6, 2, 1, -5, 0, 5, 18
1503695401929,6, 2, 2, 2, -3, -3, -7, -9
1503695401951,20, -1, -3, -3, -2, -1, 4, 17
1503695401967,-2, -7, -11, -8, -4, -3, 0, -3
1503695401989,-21, 8, 17, 5, -2, -3, -7, -24
1503695402011,11, 18, 14, 0, 4, 2, 0, 13
1503695402028,-7, -15, -16, 0, 5, -3, -1, 2
1503695402049,-4, -6, -4, -3, 1, 0, 1, -9
1503695402071,-8, 4, 3, -1, -2, 2, -2, 4
1503695402087,-7, -10, -6, 0, 3, 0, -3, -1
1503695402109,-3, -5, -5, -2, 1, -2, -2, -4
1503695402132,-5, -2, -1, 1, 0, -2, 2, -14
1503695402147,-7, 0, -6, -2, 0, -4, -6, -2
1503695402170,6, 15, 23, 10, 16, 4, 4, 12
1503695402191,4, -14, -2, 2, -4, 0, 2, -1
1503695402213,-3, -8, -10, -7, -17, -6, -5, -11
1503695402231,0, -1, -4, -4, -13, -2, 0, 4
1503695402251,0, 2, -1, 0, -3, 0, -3, -4
1503695402274,-9, -4, 2, 0, 1, -2, -1, -10
1503695402289,3, 1, 7, 3, 3, -2, -1, 2
1503695402311,5, 6, 4, 2, 2, 1, 1, 2
1503695402335,-10, -12, -9, -1, 6, 3, -1, -6
1503695402349,0, 5, -6, 3, 6, 0, -5, -4
1503695402372,-5, 8, 10, 0, 0, 1, -1, -3
1503695402394,6, -5, -5, -6, -23, -7, -1, 2
1503695402409,2, -2, -6, -3, -1, -3, 0, 7
1503695402431,-1, -3, -9, -2, 2, 2, 2, 4
1503695402454,-12, -5, 2, 2, 3, -1, -2, -3
1503695402469,12, 22, 10, 2, 6, 1, 1, 0
1503695402491,-19, -34, -22, -5, 9, 3, 3, 0
1503695402514,10, 14, 12, -3, -3, -1, 4, 5
1503695402531,3, 13, 14, 2, -5, 2, 1, 1
1503695402551,2, -2, -1, 0, -8, -4, 0, 8
1503695402574,-8, -10, -7, -6, -4, -3, 1, 0
1503695402590,31, -21, -45, -13, -2, 0, 3, 17
1503695402611,-6, -10, 0, 1, 5, 0, -2, -9
1503695402634,17, 31, 44, 14, 1, 1, 2, 0
1503695402649,-9, -5, -8, -4, 0, 1, -2, 0
1503695402673,0, 10, 4, -3, -9, 12, -5, 0
1503695402694,-9, 0, -6, 2, -12, -4, 0, -4
1503695402709,6, -32, -21, -6, 10, 0, -4, 2
1503695402733,-24, -29, -22, -11, -5, -8, -6, -12
1503695402754,-6, 1, 1, -2, 18, -2, 1, 3
1503695402770,0, 5, 2, -6, -10, -7, -6, -13
1503695402792,3, -7, -6, -3, 2, -3, 1, 0
1503695402814,-19, -11, -7, -15, -43, -10, -2, -9
1503695402829,19, 20, 12, -8, -35, -9, 22, 38
1503695402852,-6, -1, 0, 5, 10, 3, -18, -18
1503695402874,-19, -11, -14, -9, -1, -7, -11, -10
1503695402889,70, 123, 84, 43, 17, 8, 10, 20
1503695402913,-7, -11, 5, -5, 12, 4, 8, 3
1503695402936,-17, -31, -29, -21, -34, -12, -16, -26
1503695402949,8, -18, -14, 15, 81, 12, 6, 11
1503695402972,1, 9, 11, 2, -20, 4, 14, 13
1503695402994,-41, -26, -8, -6, -11, 0, -7, -37
1503695403010,-46, -67, -48, -13, 5, -11, -14, -7
1503695403032,16, 16, 16, 8, 7, 2, -8, -7
1503695403054,-15, -11, -8, -1, -3, -2, -4, -6
1503695403070,6, 23, 6, 10, -2, 7, -1, 4
1503695403092,7, -41, -28, -15, 0, 2, 3, 7
1503695403114,13, 34, 36, 44, 54, 14, -1, 0
1503695403137,0, 5, -5, 0, 11, 39, -16, -7
1503695403152,-3, -3, -3, -15, -35, -16, 7, 1
1503695403174,-14, 0, -24, -13, -13, -7, -3, -6
1503695403196,19, 9, -6, -8, -8, -8, 6, 10
1503695403212,-2, -18, -9, -13, -9, -9, -5, -4
1503695403236,-21, -16, -17, -6, -7, -11, -2, -12
1503695403256,-1, -5, 2, -6, -10, -1, 17, 3
1503695403272,16, 20, 20, 2, -14, -3, -11, 17
1503695403293,0, 5, 9, 8, 4, -3, -4, 5
1503695403316,-4, -7, 3, 3, 5, -3, -4, -8
1503695403331,32, 57, 29, 9, -3, -3, 0, 12
1503695403360,-13, -18, -2, 0, 3, 1, 5, -7
1503695403376,-5, -2, -1, -12, -15, -2, -1, -4
1503695403392,-8, -5, 0, 0, 4, 0, 2, 0
1503695403414,8, -11, -16, -5, -5, -1, 1, 4
1503695403438,-7, -1, -1, 1, 1, -3, -4, -8
1503695403452,3, -1, -15, 2, -19, -4, 3, 1
1503695403474,-12, -18, -11, -4, 0, 1, -3, -6
1503695403496,-1, 14, 7, 0, 10, 0, -2, -1
1503695403512,6, 7, 9, 14, 30, 11, 5, 1
1503695403533,10, 10, 7, -4, -30, -6, -3, -1
1503695403556,-5, -11, -3, -3, -3, -2, 2, 9
1503695403575,-5, -22, -28, -8, 17, 5, 4, 4
1503695403593,-6, -12, -1, 5, 24, 4, -1, -4
1503695403616,-5, 3, 10, 3, -15, -4, -2, -7
1503695403631,2, -14, -26, -15, -20, -6, 2, 4
1503695403646,2, 13, 22, 4, -3, -1, 2, 3
1503695403661,6, -4, -7, 18, 65, 17, 6, 7
1503695403683,-5, 22, 0, -17, -31, -14, -11, -12
1503695403707,-13, -10, -8, -7, -11, -3, -3, -4
1503695403721,-2, 16, 5, 2, -1, 3, 2, -4
1503695403744,-8, -13, -9, 2, 11, 3, 2, 2
1503695403774,2, -16, -14, -10, -26, -7, -6, 4
1503695403782,8, -3, -10, -8, -9, -4, -2, -1
1503695403803,2, 7, 16, 0, 0, -1, -1, -3
1503695403825,7, -5, -5, -8, -6, -1, -2, 3
1503695403849,0, -1, 1, 4, 3, 4, -4, -7
1503695403878,-12, -13, -10, -3, 0, -1, 6, -5
1503695403885,32, 14, 14, 7, 7, 0, 5, 33
1503695403901,40, 7, 1, 4, -6, -5, 3, 47
1503695403917,19, -2, -3, 0, 7, 0, -7, 18
1503695403932,-4, 11, 0, 4, 5, 12, 4, -5
1503695403954,-20, -5, -4, -2, 4, -8, -9, -20
1503695403976,10, 10, 5, 2, -3, 2, 5, 24
1503695403992,6, 3, 6, 6, 2, 0, 7, -6
1503695404014,-22, -26, -4, -1, 3, -1, -8, -5
1503695404036,-8, 1, 0, -7, 1, -9, -5, -6
1503695404059,6, 6, -7, -7, -7, -1, -3, -20
1503695404076,-43, -17, -8, 0, 0, 1, 3, -10
1503695404096,10, 12, 3, -1, 2, -1, -1, -1
1503695404119,4, 5, 1, 3, -2, 0, 3, 14
1503695404133,-7, -17, -18, -7, 0, 0, -3, 3
1503695404156,4, 1, 1, -1, 2, 0, -1, -3
1503695404179,39, 46, 16, 11, -1, 3, 4, -1
1503695404195,6, -6, 2, 12, 10, 4, -1, 19
1503695404216,8, 4, 7, -8, -15, 2, -46, -13
1503695404239,19, -4, 0, 5, 20, -2, 23, 19
1503695404254,-6, -22, -9, -7, -9, -4, -7, 6
1503695404277,-16, -20, -15, -3, -7, -2, 8, 2
1503695404299,-10, 2, 1, -4, -8, -7, -7, -43
1503695404317,-5, 17, 16, 7, -13, -4, 10, -14
1503695404336,60, 0, -2, 0, 1, 9, 14, 92
1503695404358,-24, -8, 0, -2, 2, -5, -5, -15
1503695404374,-7, 10, 5, 0, -1, 2, 4, -15
1503695404396,-8, 17, 13, 11, 20, 5, 3, 18
1503695404419,-30, -19, -8, -1, -6, -7, -6, -34
1503695404433,16, -27, -20, -12, -4, -3, -1, -22
1503695404456,-6, -7, -3, -2, 6, -3, -1, 9
1503695404479,4, 5, 0, -3, -1, 6, -3, -8
1503695404493,5, 9, -2, 2, -2, 1, -2, -3
1503695404517,2, -1, 2, -8, -17, -3, 2, 17
1503695404539,5, 6, -4, -8, -21, -3, -5, -7
1503695404554,-3, 4, 7, -1, -6, -4, 0, 10
1503695404576,-19, -12, -4, -4, 0, -4, -5, -8
1503695404585,-7, 5, 3, -3, -11, -3, -2, 0
1503695404605,-3, -5, -4, -9, -9, -2, -8, -18
1503695404628,-9, -3, 3, 10, 26, 6, -1, -6
1503695404646,-9, -7, -2, -4, -14, -8, -7, 7
1503695404665,-9, -7, 0, 4, 5, 0, -2, -4
1503695404689,-12, 20, 4, -2, -7, 1, 9, 10
1503695404703,6, 7, 3, -1, -2, 0, 3, 15
1503695404725,0, 1, -2, -10, -4, -5, -4, -9
1503695404749,-2, -10, -12, -5, -6, -2, -3, -3
1503695404764,25, 3, 2, 1, 4, 3, 9, 20
1503695404785,21, 17, 14, 7, -6, -4, -3, -9
1503695404808,-12, -5, -5, -3, -7, -4, -6, -6
1503695404824,12, -7, 2, 20, 4, 3, 7, 28
1503695404848,2, -1, 0, -2, 14, 0, 0, 6
1503695404868,-7, -11, 0, 1, 9, -1, -2, -3
1503695404884,6, -14, -12, -14, -10, -5, -11, 10
1503695404907,-9, 2, -4, 1, -6, 0, 1, -18
1503695404929,-5, -5, -4, -4, -2, -1, -2, -16
1503695404952,19, 21, 15, 8, -1, 1, 2, 12
1503695404966,-16, -21, -13, -10, -1, 2, -2, -18
1503695404990,-5, -6, -1, -11, -8, -5, 4, 17
1503695405011,-17, 1, -4, 10, -4, -5, -8, -20
1503695405026,-7, 9, -5, -16, -8, 0, -1, -1
1503695405049,-6, -5, -2, 5, 9, 0, -1, -28
1503695405071,-14, -2, 0, -3, 3, -2, 0, -14
1503695405087,11, -5, 4, -3, 2, 3, 4, 1
1503695405117,1, -2, -2, -4, -1, 1, 4, -2
1503695405139,6, 0, -2, 1, -1, -1, -2, 2
1503695405161,1, 11, 5, 1, -2, -1, -1, 4
1503695405176,7, 2, 0, -2, 3, 2, 4, 11
1503695405198,-3, -3, 2, -2, -4, -3, -2, 3
1503695405221,3, -4, -2, -4, -6, -4, -7, -13
1503695405229,15, 6, -1, -4, -5, -1, 3, 26
1503695405251,1, 1, 1, -6, -10, -2, -2, -10
1503695405273,-2, 9, 2, 4, 1, -1, -2, -10
1503695405289,1, 1, 3, 2, 8, -3, -3, -5
1503695405312,8, 0, -3, 3, 2, -1, -2, 6
1503695405333,-5, -2, -2, -5, 10, 3, 3, 0
1503695405351,-2, -1, 1, 1, -6, -2, -2, -3
1503695405371,-6, -5, -2, -2, -5, -1, -2, -4
1503695405394,-3, -5, -7, -2, -1, -2, -1, -1
1503695405410,-7, -9, -7, -5, -2, 0, 1, -5
1503695405419,0, -6, -4, -7, -5, -3, 1, -2
1503695405446,3, -1, 3, 3, -1, 2, 2, -1
1503695405461,-3, 3, -2, 8, -3, 0, -1, -1
1503695405478,2, 3, 6, 3, -2, -3, -4, 0
1503695405491,-3, -2, 0, -1, -4, -2, 0, 1
1503695405514,2, 4, 1, 2, 0, -3, -2, -1
1503695405529,-3, 3, 1, 14, 19, 7, 0, -1
1503695405554,0, -1, 0, -3, -4, -1, -1, 0
1503695405574,4, -7, -2, -5, -18, -5, -1, 0
1503695405590,0, 3, -2, -5, -1, 3, 2, 0
1503695405612,-2, -4, -2, 0, -7, -6, -1, 0
1503695405634,2, 9, 6, -6, -11, -3, -1, -1
1503695405649,-1, 5, 1, -3, -9, -3, 1, 0
1503695405671,-1, -4, -3, 6, 8, 0, 2, 0
1503695405696,1, -2, -2, -1, 1, -1, 1, -1
1503695405709,-5, -7, -11, -4, -1, 1, -1, -4
1503695405731,1, -6, -4, -4, 2, -1, -2, -2
1503695405756,0, 3, 3, 5, 9, 0, -3, -1
1503695405769,0, 4, 3, -2, 2, -2, 0, 0
1503695405791,-2, -4, -2, -3, -5, 0, -2, 1
1503695405814,-2, -19, -10, -2, 2, 0, 0, -2
1503695405829,-2, -3, -1, -2, -6, 0, -2, 1
1503695405851,-2, -1, -1, -3, -2, -1, -1, -3
1503695405859,2, 13, 11, 4, 2, -1, -1, 0
1503695405881,0, -3, -2, 1, 1, -1, -2, 0
1503695405903,-4, -12, -4, -2, -2, -4, -1, -2
1503695405911,-1, 7, -2, 1, 0, -1, -3, -4
1503695405934,1, 6, 1, -3, -13, -2, -3, -2
1503695405949,0, 3, -1, -1, 4, 2, 1, 1
1503695405964,-2, -5, -2, 0, 4, 2, -1, -4
1503695405988,-4, -8, -5, -5, 4, -3, -2, 0
1503695406001,1, 1, -1, 1, 3, -1, 0, 0
1503695406024,2, 0, -2, 2, 1, 0, -1, -1
1503695406032,-2, -3, -5, -7, -10, -2, -1, -1
1503695406039,-1, -1, 1, 8, 5, -2, -1, -1
1503695406061,0, 15, 3, -4, -5, 0, -1, -1
1503695406083,-1, -3, 6, 0, 0, 1, 0, -2
1503695406099,-2, -10, -13, -3, -2, 0, 1, 0
1503695406123,-2, 1, 2, 0, 8, 0, -3, -2
1503695406144,-1, -6, -6, -1, -1, 0, -2, 0
1503695406159,2, 3, -3, 2, 2, 0, 0, 1
1503695406181,-2, 4, 6, 1, -1, 1, 1, 0
1503695406204,-1, -6, -2, -3, -2, -1, -1, -2
1503695406218,2, 5, 4, -3, -2, 0, 0, -1
1503695406241,-2, -4, -1, 0, 2, -4, 1, 0
1503695406264,-1, -2, -4, -1, -3, -1, -1, 0
1503695406279,-2, 0, -1, -1, 3, -2, -2, -1
1503695406301,0, 0, 3, -3, -1, 0, -2, 0
1503695406324,1, -1, -3, -1, -3, 0, 1, 0
1503695406339,-2, -5, -3, -1, -2, 0, -2, 0
1503695406361,1, -7, -2, -4, -2, -3, 1, -4
1503695406401,-5, -2, -3, 0, 0, -1, -3, -1
1503695406414,-2, -3, 0, 1, 0, 2, -7, -3
1503695406431,1, 11, 1, 0, 0, -1, 2, -1
1503695406451,-1, -6, 1, -1, -2, -1, -1, 0
1503695406475,0, 1, 1, 1, 3, 1, -1, 0
1503695406489,0, 1, 6, 1, -2, 1, 0, -1
1503695406512,0, -1, -7, -2, -1, 0, 2, -1
1503695406535,0, 9, 5, -1, -1, -1, 1, 1
1503695406549,-4, -9, -6, -2, 0, -1, -4, -1
1503695406571,0, -11, -7, -1, -4, -2, 2, 1
1503695406594,-2, -4, -4, -1, -1, -1, -3, -1
1503695406609,-3, -9, -1, -2, 0, -1, 0, -2
1503695406632,-1, -4, -2, 0, 0, -2, 1, 1
1503695406653,7, 32, 9, 2, -1, 0, 0, 1
1503695406670,-4, -5, -5, 0, 0, 0, 0, -2
1503695406696,-1, 0, -1, -2, -1, -2, -2, -1
1503695406699,-7, -34, -12, -1, -2, -1, -2, 0
1503695406721,-2, -1, -3, -2, -3, -1, -2, -2
1503695406744,-2, 1, -1, -3, -2, -2, 0, -3
1503695406761,-2, -5, -2, 1, -2, 0, 2, -1
1503695406781,-2, -3, -6, -2, 0, -2, -2, -1
1503695406803,1, 5, 5, 0, 0, -1, -1, -1
1503695406819,-1, -2, 0, 0, -1, 0, -3, 0
1503695406841,1, 2, 1, 0, 0, 0, -1, -1
1503695406865,1, 12, 5, 1, 1, 1, 2, 1
1503695406885,-1, -12, -7, -4, 0, -2, -2, -2
1503695406908,-3, 0, 2, 2, -3, 0, -2, 1
1503695406923,-1, -4, -6, 0, 1, -1, -2, 0
1503695406945,2, 13, 12, -3, 2, -1, -1, -2
1503695406962,-3, -16, -10, -4, -4, -2, -2, -2
1503695406983,-3, -11, -7, -3, -1, 2, -1, -2
1503695407005,0, 13, 8, 2, -1, 0, 1, 0
1503695407021,-3, 0, -2, 0, -1, -1, -1, -1
1503695407043,0, 0, -4, -2, 3, -2, -1, 0
1503695407066,0, 2, 3, 1, -1, 0, 0, -1
1503695407081,1, -11, -15, -3, -4, 0, -2, -1
1503695407103,2, -2, -2, -3, -3, -1, -1, 0
1503695407126,-5, -14, -8, 0, -1, -3, 0, -1
1503695407141,-1, 0, -1, -2, 1, -2, -2, -1
1503695407164,2, 6, 3, 1, -1, 2, 0, 2
1503695407186,0, 4, 3, 0, 0, -1, 0, 0
1503695407201,-4, -4, -3, 0, -3, -1, 2, -1
1503695407223,1, 5, 4, 2, -1, -1, -2, 1
1503695407246,0, 0, -2, -2, 0, 1, -2, 0
1503695407261,6, 18, 1, 0, 2, -2, -1, -2
1503695407283,-3, -10, -4, 0, -2, -3, 0, -2
1503695407306,-2, -4, 5, 1, -1, 0, 1, -3
1503695407321,0, -1, 3, 1, -1, 2, -1, 1
1503695407343,-2, -4, -4, -6, -1, -2, -3, -1
1503695407351,-3, -4, 2, -2, -3, -2, -1, -2
1503695407374,6, 16, 11, 2, 0, 0, 3, 2
1503695407398,-6, -1, -1, 0, -2, -1, -3, -4
1503695407411,6, 3, 2, 3, -3, -3, 2, 1
1503695407435,-4, -15, -11, -6, -1, 0, -3, 0
1503695407456,-3, -8, -4, -1, -2, -2, -3, -2
1503695407471,0, -8, -6, -2, -1, -1, -4, -2
1503695407486,-2, 2, -2, -2, -6, -2, -1, -3
1503695407501,10, 20, 9, 3, 0, -1, 1, 4
1503695407523,-4, -5, -1, 0, -2, 0, -2, -4
1503695407546,-8, -9, -3, -2, -1, 0, -3, -2
1503695407561,0, -1, 2, 1, 1, 0, -1, -1
1503695407583,-11, -11, -6, -3, -1, -2, 0, -5
1503695407606,3, 4, 3, 0, 0, 0, -1, -2
1503695407621,3, 16, 12, 4, 0, -2, 1, 2
1503695407644,-8, 0, -5, -4, -2, 0, -1, -2
1503695407667,3, -3, -5, -1, -4, -5, -1, 1
1503695407682,2, -6, -6, -5, -6, -3, 1, 0
1503695407704,2, -2, -2, 2, 2, 0, 0, -2
1503695407726,-1, -10, -9, -3, 0, 1, -2, -1
1503695407741,0, 16, 10, 3, 2, 2, 5, -4
1503695407763,3, -8, -6, -2, 0, 1, -1, 16
1503695407786,-3, 0, 1, -2, 0, -2, -2, -10
1503695407808,-3, -7, -4, -3, -5, -2, -3, 1
1503695407823,0, -2, -4, 0, 3, -1, -2, -5
1503695407846,-2, 2, -1, 1, -1, 2, -2, -2
1503695407869,0, -3, -2, -3, -1, 0, -1, 2
1503695407884,-2, -1, 2, 0, -2, 0, 0, -1
1503695407906,3, 3, 3, 1, 0, -1, 0, 4
1503695407928,0, 11, 1, 0, 3, -3, -3, -6
1503695407944,0, -12, -7, -2, -4, -2, -1, 0
1503695407959,1, 0, -3, -4, -2, -2, 0, -2
1503695407974,3, -1, -5, -2, -1, -2, 0, 0
1503695407996,-2, 3, 5, 2, 2, -1, -2, -2
1503695408018,-2, 5, 7, 4, -2, -2, -1, -2
1503695408040,0, -7, -8, -7, -3, -1, 1, 1
1503695408056,-3, -10, -4, 1, 1, 0, 2, -1
1503695408079,7, 19, 16, 5, 1, 2, 1, 1
1503695408094,8, -8, -6, -4, -1, 2, 1, 4
1503695408116,6, 6, -11, -3, 0, -2, 0, 2
1503695408141,-13, 0, 4, 1, 1, -3, -5, -5
1503695408154,4, -11, -10, -3, -2, -2, -2, 11
1503695408178,-6, -4, -3, -1, 0, -1, -4, -7
1503695408231,-2, -5, 1, 2, 0, 0, -1, -9
1503695408248,7, 0, -7, -1, -1, -2, -4, 8
1503695408266,-7, 9, 10, 5, 1, -2, 0, -12
1503695408288,-8, -12, -5, -4, -2, -1, 0, -2
1503695408306,0, 10, -1, -3, -2, -3, -4, 6
1503695408319,-11, -1, -1, -3, -4, -4, -1, -2
1503695408335,23, -3, 1, 0, -2, -1, 4, 25
1503695408356,12, -6, 3, 6, 0, 0, 2, 4
