1503612421078,-2, -4, -1, 0, -1, 0, 0, -1
1503612421101,-1, -3, -1, -1, 0, -2, 0, 0
1503612421124,0, -1, -3, -3, 0, -1, -2, -4
1503612421143,-1, -3, 1, 1, -1, 0, -1, -1
1503612421162,0, -1, -2, -2, -1, 0, -2, -5
1503612421184,-1, -2, 0, -1, -1, -2, 0, -1
1503612421199,1, 0, -2, -1, -2, -1, 0, 2
1503612421222,-3, -2, 2, -1, 0, -2, -1, -1
1503612421251,0, -1, -2, -2, -1, -2, -1, -1
1503612421260,1, 0, -2, -2, -2, 2, -1, 1
1503612421282,-2, -1, 0, 0, 1, 0, -1, -1
1503612421304,1, -2, -3, -1, -2, -3, -1, 1
1503612421327,-2, 3, -1, -1, -1, -3, -2, -4
1503612421350,-2, -2, -4, -4, -3, -2, -2, -1
1503612421372,3, 3, -1, 1, 0, 1, -1, -1
1503612421387,-1, -1, 1, -1, 0, -1, 1, 1
1503612421409,-2, -3, -2, -2, -1, 1, -2, -3
1503612421431,-2, -1, 0, 0, -1, -1, 0, 0
1503612421448,1, 0, 1, -1, -1, -3, 1, 1
1503612421469,0, -1, -2, 0, 0, -1, 0, 0
1503612421493,-2, -5, -5, -2, 0, 1, -2, 0
1503612421506,-3, -3, 1, 0, -1, 0, -4, -3
1503612421529,3, 6, 1, 0, 0, -2, -2, -3
1503612421551,-3, -1, 1, 2, 0, 1, 0, -4
1503612421574,-1, -1, -1, -1, -1, 0, 2, 1
1503612421589,1, 1, -1, -3, -1, -2, -2, -1
1503612421611,-2, -5, -1, -1, 0, -1, -1, 0
1503612421634,1, -2, -1, -1, -1, -1, 0, -4
1503612421649,-1, -2, -4, -1, -1, -1, -1, 0
1503612421672,1, 7, -1, -1, -3, -1, 0, -1
1503612421694,1, 2, 1, 2, -1, -1, 0, 0
1503612421709,-2, -1, -1, -2, -3, -2, 1, 0
1503612421731,1, 0, -1, 0, 1, 0, -1, 0
1503612421754,2, 2, 0, -2, -1, 0, 0, 1
1503612421769,-1, -3, -1, -2, -2, -1, -2, -2
1503612421791,-3, -1, -3, -2, -3, -2, -2, 2
1503612421814,2, -4, -3, 0, 1, 0, 2, 0
1503612421829,-2, -2, 1, 2, 0, -1, -2, 0
1503612421851,-2, -2, 0, -1, -2, 0, -2, -3
1503612421874,-4, 2, 1, 0, 1, 1, -1, -3
1503612421889,-1, -1, -1, -2, -1, -1, -1, -1
1503612421911,0, -5, -1, -1, -1, 0, -1, 0
1503612421934,1, 0, -2, -1, 0, -1, -1, -1
1503612421951,-1, -1, -1, -1, 1, -3, -1, -2
1503612421971,-4, 3, 0, -1, -1, -1, 2, 0
1503612421994,0, -4, -3, 0, 1, 0, -1, -1
1503612422008,-4, 4, -1, -1, -1, -1, -2, -2
1503612422031,1, 1, -1, -2, -1, 0, -1, -1
1503612422056,-1, 2, 0, 1, -1, 0, 1, 0
1503612422069,0, -1, -1, -3, -1, -1, -1, -2
1503612422091,1, -2, -2, 0, 1, 0, -1, -2
1503612422113,0, -2, -1, -3, -1, 1, 0, 3
1503612422129,1, -1, -1, 0, -3, 0, 0, 1
1503612422153,-4, -1, 1, 0, -1, -2, -1, -1
1503612422174,-3, 2, -1, 0, 0, -2, -1, -1
1503612422189,0, 1, -2, -2, -1, -1, -2, -3
1503612422211,0, 1, 0, -1, -1, -1, -1, 0
1503612422234,-1, -2, -1, -1, -1, 0, -1, -1
1503612422249,2, 6, 3, 0, 1, -1, -2, -2
1503612422271,-3, -2, -2, -1, -2, -1, -1, -2
1503612422295,1, -1, -2, -1, 0, -2, 1, 2
1503612422309,-2, -3, 0, 1, 0, 0, 1, -1
1503612422331,-4, -4, -2, -2, 0, -1, 0, 0
1503612422354,2, 2, -2, -2, 1, -1, -1, -2
1503612422369,-1, -3, -1, 0, -3, -2, -2, 0
1503612422386,2, -1, 0, -1, -1, 0, -1, 0
1503612422407,-3, 1, -1, -2, 0, 1, 1, -4
1503612422414,2, 2, 0, 0, -1, 1, -2, -1
1503612422429,-6, -5, -1, -1, -1, 2, 1, -1
1503612422451,1, -1, -1, 0, -1, -1, -2, -1
1503612422474,0, 1, 0, 0, 0, 0, -1, -3
1503612422491,1, 6, 1, 0, -2, -1, 0, -3
1503612422511,-2, -6, 1, -1, -1, -1, -3, -2
1503612422521,-1, -2, -1, -5, -2, -1, 1, 0
1503612422542,-2, -1, 0, -1, 2, 0, 0, 0
1503612422564,-1, 4, -3, 0, -2, -3, 0, 2
1503612422586,0, 0, 0, -2, -2, -1, -2, 0
1503612422602,-3, -4, -3, -1, 1, -2, 0, -1
1503612422625,2, -2, 0, 2, 1, 0, 0, -1
1503612422647,2, 2, 2, 0, 0, 0, -1, -1
1503612422662,0, -2, -2, -1, -3, -2, -2, -2
1503612422684,-1, 1, 0, -2, -3, 0, 1, -3
1503612422706,0, -5, 0, 0, -2, 0, -2, -4
1503612422727,-1, 2, 0, -1, -1, -2, -1, 3
1503612422744,-2, -2, 0, 0, 0, 0, -1, -1
1503612422766,1, -3, -2, 0, 0, 0, 1, 2
1503612422782,3, -2, -2, 0, 0, -1, 1, -2
1503612422804,-4, -6, -4, 2, 0, 1, -1, 0
1503612422827,3, -1, 1, -3, -1, -3, -1, -5
1503612422842,-1, -1, -2, -1, -1, 0, -1, -1
1503612422864,1, -1, -1, 0, -2, -1, -2, -2
1503612422886,-3, 2, 0, -1, 0, 0, -1, 2
1503612422902,-2, 0, 0, -2, 0, 0, -4, -4
1503612422926,0, -1, 0, 1, -1, -1, 0, 1
1503612422946,-4, 3, -1, -1, -3, -1, 0, 0
1503612422962,1, 5, -1, -3, -2, -2, 0, 0
1503612422984,-1, -2, 0, 1, -3, 0, -1, -1
1503612423006,0, -1, -3, -3, -2, -2, -1, 0
1503612423022,0, -2, 1, 1, 0, -2, 1, 3
1503612423044,1, 6, 3, 1, 1, 0, 1, -3
1503612423067,-1, -5, -4, -1, 1, -2, 1, 1
1503612423082,-3, -1, -1, 0, 0, -1, 0, 0
1503612423104,2, -1, -1, 0, -2, 0, -2, -3
1503612423127,-2, 0, 0, -1, -1, 0, -2, -4
1503612423143,-2, -4, -3, 0, -1, 1, -3, -3
1503612423164,1, -1, -1, -3, -2, -2, -2, -2
1503612423186,2, 0, -1, 0, -1, -1, 2, 1
1503612423203,-4, -4, 0, 0, -1, 0, -2, -1
1503612423226,1, 10, 6, 2, 2, 1, -3, -2
1503612423246,-1, -3, -5, -2, -1, -1, -1, -4
1503612423263,-3, 0, -1, -2, -2, -1, -2, -3
1503612423284,0, -1, 0, -1, -3, -2, 1, 1
1503612423306,-1, -8, -4, 0, -1, -2, -1, -3
1503612423322,-3, 3, 0, -3, -1, -3, 0, -1
1503612423345,-1, -1, -1, -1, 0, 1, -2, 0
1503612423367,2, -3, 1, -1, 1, 2, 1, 2
1503612423382,-3, -4, -2, 0, -1, -2, -3, 0
1503612423404,-3, -3, -1, -1, -1, -3, -1, -3
1503612423432,1, 2, -1, -1, -3, -2, 0, 1
1503612423442,-2, -1, -2, -3, 0, -1, 0, 1
1503612423464,-1, -3, -4, 1, 0, 0, 0, 3
1503612423486,-2, -1, -2, -1, 0, 0, -1, 2
1503612423509,-1, -5, -1, 0, -1, 0, 0, 0
1503612423524,1, 3, -1, 0, -1, -2, -1, -4
1503612423546,-2, 0, 2, -1, 0, 0, -1, -7
1503612423569,1, -1, -1, 0, -1, 0, 0, 0
1503612423584,0, 5, -2, -1, -1, 1, 0, -3
1503612423606,0, 1, -1, 1, 0, 0, 1, 3
1503612423631,2, 5, -1, -1, -2, -1, 0, 5
1503612423645,-1, -2, -2, 0, 2, -1, -3, -1
1503612423666,-3, 2, 0, -1, -2, -2, 1, 2
1503612423689,2, -2, -2, -1, 0, -3, -1, 0
1503612423705,-2, 0, -1, -2, -2, 0, -1, -1
1503612423726,-4, -2, -1, -1, -1, 0, -3, -3
1503612423748,0, 0, 2, 0, -3, 1, -2, -2
1503612423764,-1, -4, -2, -2, -1, -2, -3, 0
1503612423786,4, 7, -1, -1, 0, -2, -1, -1
1503612423794,0, -3, -2, 0, 0, -1, -1, -3
1503612423816,-1, -1, -2, -2, -1, -3, -2, -4
1503612423839,1, 0, -3, -1, -1, -1, -1, -3
1503612423854,-1, -3, -1, 0, -2, 1, -3, -6
1503612423883,-1, -1, -1, -1, 0, 1, -1, -2
1503612423898,-3, -1, 0, -1, 1, -2, -2, -3
1503612423914,-1, 0, -2, 1, 2, 1, -1, 2
1503612423936,-2, 0, -2, 0, -1, 0, 3, 4
1503612423958,-1, -6, -3, -1, 0, -2, -1, -2
1503612423974,0, -1, 1, 0, 0, -2, -1, 1
1503612423998,-1, -1, -3, 0, -4, 0, -4, -3
1503612424018,1, -1, -2, -5, -4, 1, -1, -1
1503612424034,1, 0, -1, 0, 0, -2, -1, -2
1503612424056,-2, -3, -1, -2, 2, -1, -2, -3
1503612424078,1, -2, 0, 0, -2, 1, -1, -4
1503612424094,0, -1, 1, -2, -1, 0, 0, 4
1503612424116,-1, -2, -2, 1, 0, -1, 1, 3
1503612424138,0, 1, -1, -3, 1, -1, -1, -1
1503612424153,-1, 3, 0, 0, -1, -1, -1, -1
1503612424176,1, 3, 0, 0, 0, -2, 0, -1
1503612424201,-4, 0, -2, 1, 0, 0, 1, -1
1503612424213,0, -4, 0, -1, -1, -1, -2, -1
1503612424236,-2, -3, -1, -1, -1, -1, -1, -3
1503612424258,-1, -3, -4, -1, 0, 0, -1, -1
1503612424277,-2, 2, 0, -2, -2, -2, -2, 0
1503612424296,2, -3, 1, 1, 0, 0, -1, 0
1503612424318,-2, 3, 0, -2, -4, 0, -1, -3
1503612424334,-2, 7, 0, 3, 1, -2, -1, -2
1503612424356,2, 0, -2, -3, 0, 0, 0, -1
1503612424387,0, -3, -3, 0, 0, -1, -2, 0
1503612424409,-2, -1, 0, -1, 0, -1, 0, 2
1503612424431,1, -1, -2, 0, 0, -1, -1, 1
1503612424446,-4, 0, -3, -3, -3, 0, -1, 0
1503612424469,1, -1, 0, -2, -4, -2, 0, -1
1503612424491,-2, -3, -1, -1, 0, 0, -1, 1
1503612424506,-1, 2, 2, -1, -1, -2, 0, 1
1503612424528,1, 6, 0, 0, -2, -2, -2, -4
1503612424551,-1, -4, -1, -1, 2, 0, -1, -3
1503612424566,1, 1, 0, -2, 0, -1, -1, 1
1503612424588,0, -3, -1, 1, -2, -1, -1, -2
1503612424611,0, 3, -2, 0, -2, 1, 0, -1
1503612424626,-1, -4, 0, 0, 2, 0, 0, -1
1503612424648,-1, -3, -1, 0, -2, -2, -2, -4
1503612424671,3, 2, -1, -1, 0, 0, 0, -2
1503612424686,-3, 0, 0, 0, -1, -2, -1, 0
1503612424709,-1, 0, -1, 0, -1, 1, -3, -1
1503612424731,2, -1, -1, 0, 0, -1, -1, -1
1503612424747,-2, -6, -1, -3, 0, -1, -1, -1
1503612424771,0, 3, -2, 0, -3, 0, 2, 1
1503612424791,-1, -4, -2, -3, -1, -1, -3, -3
1503612424807,-1, 0, 0, -1, -1, -1, 1, 1
1503612424828,-3, -1, -1, -1, -1, -2, -2, 0
1503612424851,4, 8, 1, 1, 1, 0, 1, 2
1503612424866,-2, 0, 0, -1, 0, 0, -2, -2
1503612424888,-2, 0, -1, 0, -3, 0, -1, -1
1503612424911,-1, -5, -3, -3, 0, -2, -2, -2
1503612424919,-2, -1, 3, 0, 0, -1, -1, 1
1503612424941,-2, 1, 0, -2, -2, -1, 0, -1
1503612424956,1, 0, -1, 2, -1, -1, -2, -4
1503612424979,-1, 1, -1, 0, 1, -1, 0, 1
1503612425000,-1, -4, -4, 0, 1, 0, -1, -1
1503612425016,1, -5, -4, -2, 0, 1, 1, -1
1503612425039,-2, -3, -1, -1, -1, -2, -3, -2
1503612425060,-1, -1, 1, 0, 0, 1, 1, 2
1503612425076,-2, 4, 6, 0, -1, -1, -3, -2
1503612425098,1, -2, -3, -2, -4, -3, -2, -1
1503612425120,0, -2, -2, -1, -3, -1, 0, -2
1503612425136,0, -1, -4, -3, -2, -3, -3, -3
1503612425159,0, 5, 1, -1, 0, -1, 2, 4
1503612425181,-1, 4, -1, 0, 0, 0, 0, 0
1503612425196,0, -3, 0, -1, 1, -1, -2, -2
1503612425225,0, 0, -1, 0, -2, -1, -1, -1
1503612425240,2, -6, -5, 1, -1, -2, -2, -2
1503612425256,-4, -8, -2, -1, 0, 0, -3, -5
1503612425278,-3, 2, 1, 0, 0, 0, -3, -4
1503612425300,1, 3, -1, 0, 0, 0, 3, 1
1503612425316,-2, -1, 0, 0, -3, 0, 1, 1
1503612425339,0, -1, 0, -1, 0, -1, -1, 0
1503612425360,0, 0, -2, -1, 0, -1, 1, 3
1503612425383,-2, -1, 0, -1, -1, -1, -1, 1
1503612425398,0, 2, 0, -1, -1, -1, -1, -2
1503612425420,0, 0, -2, 0, -1, 0, -2, -2
1503612425443,0, -2, 1, -2, -3, -1, -1, -2
1503612425458,-2, -4, -3, 1, 2, -1, -1, 0
1503612425480,-2, 0, -1, 2, -3, -1, 1, 1
1503612425503,3, 2, 4, 0, 0, 0, 1, 0
1503612425518,0, 1, -2, -1, 1, -1, 0, 2
1503612425543,-1, -3, -2, 0, -3, 0, -2, -1
1503612425563,-2, 5, 3, -2, 1, -1, -1, 1
1503612425579,-3, 5, 2, 0, 1, 0, -1, -2
1503612425600,1, -4, -4, -3, -1, -1, -3, 1
1503612425623,1, -2, -4, -2, -1, -3, -1, -2
1503612425638,-4, -3, -1, -2, -1, 0, 0, 1
1503612425660,0, 0, -1, 0, -1, -1, -3, -2
1503612425683,-1, -1, -2, -1, -1, -1, 0, -2
1503612425699,1, 7, 1, 0, 1, 0, 0, 1
1503612425720,0, 0, 0, -1, -1, -2, -3, -3
1503612425746,-3, -4, -1, -2, 0, 0, 1, -2
1503612425758,-2, 0, 0, 0, -1, -4, -2, -4
1503612425781,1, -2, -1, 0, 0, 0, 0, 0
1503612425803,0, -2, -2, -1, -4, -1, -1, -1
1503612425819,-1, -5, -1, -2, -3, 2, 0, 2
1503612425849,-1, 4, -1, -1, 1, 0, 1, 2
1503612425863,-1, 4, 2, 1, 1, 1, -1, -1
1503612425879,1, -4, -2, 1, 0, 0, -2, -4
1503612425900,-3, -3, -1, -1, 0, -1, -1, -1
1503612425923,-1, 0, 3, -1, 0, -1, -1, -4
1503612425938,-4, -2, -4, -2, -3, -2, -2, -2
1503612425960,-4, -4, -3, -3, -4, -1, -1, -2
1503612425983,2, -2, -1, -1, 1, 0, -2, -1
1503612425998,1, 0, 0, 0, -2, -1, 0, 2
1503612426021,0, -2, 1, -3, -4, -2, 1, -1
1503612426043,1, -1, -1, -2, -1, -1, -1, -2
1503612426058,1, 4, 0, 0, 1, 0, 1, 2
1503612426080,-2, 0, -2, -2, 1, -1, -2, -2
1503612426103,-2, -1, 0, 1, -3, -3, -2, -1
1503612426133,1, 6, 2, -1, -1, 0, -1, 0
1503612426149,-2, -2, -3, -3, 0, 1, 1, 1
1503612426171,-4, 3, 0, 1, -2, 0, -1, -3
1503612426193,1, 1, -1, 0, 0, -1, -2, -4
1503612426208,-3, 0, 1, 0, -1, -2, 0, 2
1503612426231,0, -3, -2, -3, -2, -2, 1, 0
1503612426256,-3, -1, 1, 0, -1, 0, -2, -2
1503612426268,0, 3, 1, -1, 1, -1, -2, 0
1503612426291,0, 2, 0, -1, -1, -1, -3, -2
1503612426315,1, -2, -3, 1, 1, -1, -3, -4
1503612426336,0, -2, -3, -2, -1, -1, 2, -1
1503612426351,0, 0, 0, -3, -4, -1, -1, -1
1503612426373,0, -2, 1, -2, 1, -3, -4, -3
1503612426396,-1, -3, -1, 2, -3, -1, 0, 0
1503612426411,-1, -2, -3, -2, -1, -2, 0, -3
1503612426433,1, -5, -1, -2, -2, 0, 0, 1
1503612426456,-1, -2, -2, 0, 0, -2, 2, 4
1503612426472,-2, 0, -1, 0, -2, 0, 1, 2
1503612426493,-2, 2, 2, 0, -1, -1, -1, 1
1503612426516,-1, 2, -2, -1, -1, 2, -2, -3
1503612426531,-1, 0, 2, 1, -2, -1, -1, 0
1503612426553,-4, -3, -1, 0, 0, 1, 0, 1
1503612426576,0, -1, -1, -1, 1, -1, -2, -2
1503612426591,0, -2, 0, -2, -1, 0, 0, 1
1503612426613,1, 1, -2, -1, 0, -2, -3, -5
1503612426636,0, -2, -3, -2, -2, 1, -1, -4
1503612426651,1, -2, -1, -2, 0, -2, 0, -1
1503612426673,-2, 3, -1, 2, 0, -1, -2, 1
1503612426696,1, 1, 2, -1, -1, 0, 2, 0
1503612426711,-1, 7, 1, -2, -3, -1, -1, -1
1503612426733,-2, 3, 0, -2, -1, 0, -1, 1
1503612426756,-1, -5, -2, -2, -1, -2, -1, -3
1503612426771,-2, -6, -4, -2, -1, -1, -3, 0
1503612426793,-3, -6, -2, 0, 0, 0, -1, -4
1503612426820,2, -4, -2, 1, -1, -3, 1, 2
1503612426831,2, -2, -1, 0, 2, 1, -1, -4
1503612426856,-2, -2, -1, -1, -2, -1, -1, 2
1503612426876,-5, -4, -2, -2, -2, 0, 0, 1
1503612426891,-2, 1, 1, 0, -2, -1, 0, -1
1503612426913,1, 6, 1, 1, -3, -3, -2, -2
1503612426936,2, -4, -2, 1, 2, 0, 0, -1
1503612426954,0, 0, -1, -1, 0, -1, -1, -2
1503612426973,0, 0, 0, -3, -1, 0, 0, 1
1503612426997,-1, -2, 1, 0, 1, -2, 0, 1
1503612427011,-1, -3, -1, -1, 0, 0, 2, 2
1503612427033,1, 0, -1, 1, -3, -1, 0, 2
1503612427056,-1, 2, -1, 0, 0, 0, -1, -1
1503612427071,-1, -3, -4, -2, -1, -1, -1, -2
1503612427094,-4, 0, -1, -3, 1, -2, -1, -1
1503612427116,-1, 1, 1, 1, -1, 0, -2, 0
1503612427131,1, -4, -2, -2, -6, -2, -1, 1
1503612427155,-2, -2, -2, 0, 0, -1, -1, -5
1503612427176,0, 1, -1, 0, 0, 0, 0, 3
1503612427191,0, -3, -1, 0, -1, -2, -2, -3
1503612427213,-1, -2, -1, 0, 2, 0, -3, -5
1503612427236,-2, 0, 0, -1, 1, 0, -1, -4
1503612427259,2, -1, -4, -2, 3, 1, 0, 1
1503612427273,-4, -2, 1, -1, -2, 0, 0, 1
1503612427297,0, -5, -2, -4, 0, 1, -3, -4
1503612427318,1, -1, 2, 0, 0, -2, 0, 0
1503612427333,-3, 6, -1, 1, -2, 1, -1, -3
1503612427356,2, 1, -1, 0, -2, -2, 0, 1
1503612427378,-3, -4, 0, -2, -1, -1, 0, -2
1503612427394,0, 2, 0, 0, -3, -1, -1, -2
1503612427416,0, -6, -6, -1, 0, -2, -2, 0
1503612427438,-2, -5, -2, -2, -1, -1, 0, 2
1503612427455,0, -1, -1, 1, 1, -3, -2, -4
1503612427476,0, -1, -3, -1, -4, -1, -3, -5
1503612427498,2, 5, 2, -1, -1, -2, 1, 0
1503612427513,-1, -4, 2, 0, -1, 1, 1, 1
1503612427536,0, 0, -3, -2, 0, 2, 1, 0
1503612427560,0, 3, 1, 0, 1, -1, 1, 1
1503612427573,-1, 3, 0, 0, 2, 0, -1, 0
1503612427596,-2, 4, -1, -3, -1, -2, -3, -1
1503612427618,13, -2, -2, -2, -1, 1, 2, 3
1503612427633,12, 6, 6, 1, 5, 3, 2, 7
1503612427658,12, 6, 1, 1, -2, -1, 0, 6
1503612427678,2, 18, 31, 5, 1, 1, 2, 6
1503612427693,-6, -7, -8, 4, 15, 5, 7, 2
1503612427716,-13, -26, -50, -20, -14, -7, -6, -8
1503612427738,-2, 8, 4, 0, 8, -1, -4, -7
1503612427754,-15, -1, -10, -24, -23, -13, -5, -4
1503612427776,-5, -26, 9, 25, 4, -5, 5, 4
1503612427798,3, 4, 10, 3, -2, 6, 4, 0
1503612427813,-23, -10, -11, 3, 21, 3, 8, -2
1503612427836,17, 68, 57, 5, 6, 0, -10, -1
1503612427862,-10, -43, -36, -16, -16, -1, -17, -21
1503612427873,-12, -19, 0, 0, -5, -18, -27, 8
1503612427897,8, -17, -2, 9, -14, -7, -14, 5
1503612427918,-37, -28, -16, -3, -10, 1, 9, -29
1503612427935,2, 17, -3, -20, -4, 14, 30, 15
1503612427956,26, -2, -14, 6, 6, 14, 18, 12
1503612427978,-3, -20, -18, -21, -35, 6, -5, -18
1503612427994,-1, 41, -7, -10, -16, -3, -10, -12
1503612428016,22, -5, -3, 7, -1, -4, -1, 13
1503612428038,8, 34, 22, 14, -16, 0, -13, 1
1503612428053,-36, 62, 34, -10, 103, 81, 24, -21
1503612428076,3, -59, -27, -19, 55, 16, 9, 2
1503612428098,92, -85, -63, 34, -31, -61, -18, 27
1503612428113,-31, 24, 19, 8, -7, -31, -24, -44
1503612428130,8, -64, -26, -16, 52, 37, 16, 4
1503612428151,1, -57, -7, 29, 45, 32, -24, -33
1503612428166,13, 82, 23, -37, 93, 66, -34, 48
1503612428189,63, 49, 47, 81, -90, -97, -25, 64
1503612428211,-53, -60, -20, -14, -96, -24, 4, -78
1503612428232,-98, 73, 32, 46, 103, 98, 50, -12
1503612428249,10, -46, -53, -67, 26, -38, -37, -17
1503612428271,-63, -55, -26, -62, -60, -93, -49, 17
1503612428286,8, 14, 16, -30, -34, 82, 21, 11
1503612428309,39, -27, 13, 10, -96, -52, 34, 14
1503612428331,6, -12, -8, -18, 49, 36, 3, -24
1503612428339,-26, -97, -47, -102, -6, 3, 23, -22
1503612428362,8, 12, 2, -4, 35, 28, 13, -18
1503612428376,-4, 24, 19, -1, 33, 5, -9, -11
1503612428400,0, 60, 13, 20, 17, 7, -3, -95
1503612428421,25, 24, 9, 12, 22, 10, -19, 38
1503612428437,5, 2, 0, 9, 21, 18, 7, -65
1503612428458,-4, -13, -9, -9, 9, 2, 1, 18
1503612428481,-12, 13, 7, 7, 8, 0, 10, -82
1503612428500,-18, 0, 4, 7, 2, 0, -3, -63
1503612428518,6, 0, -4, 2, 8, 5, 6, 60
1503612428541,10, 6, 5, 2, 5, 5, 8, 72
1503612428556,5, 1, 0, 2, 5, 5, 3, -17
1503612428578,-6, -9, -6, -4, 0, 0, 1, 15
1503612428602,2, -10, -5, 0, 0, 0, 1, 29
1503612428616,-2, -3, -4, -1, -1, -1, 2, 15
1503612428639,1, 9, 1, 2, -2, 0, -3, 23
1503612428661,-19, -1, -1, -1, -1, 0, 0, 6
1503612428676,3, 4, 0, 0, 1, 2, 1, -2
1503612428699,4, 2, -1, -3, 1, 0, 2, 13
1503612428721,2, -1, -2, -1, 0, 0, 0, 51
1503612428736,2, 2, 2, 0, -2, -9, -2, -20
1503612428758,2, -1, -4, 0, 0, 7, 3, -19
1503612428781,6, 12, 2, 3, -1, -1, -2, 4
1503612428796,2, -5, -2, -1, 0, 0, 3, 25
1503612428818,-4, -2, -2, -11, -6, -11, -1, 3
1503612428841,-4, -2, 0, -4, -1, 2, -6, -8
1503612428856,45, 4, 0, 3, -1, -1, 0, 15
1503612428879,-19, -10, -4, 3, 3, 5, 3, -9
1503612428901,11, -6, -2, 0, 0, 1, 2, -6
1503612428916,22, 4, -1, -2, -1, -16, -16, -30
1503612428938,-11, -10, -5, 8, 1, 10, -1, -5
1503612428962,-10, 2, 0, -12, -6, 6, 7, 17
1503612428976,7, 6, 4, 0, 0, -4, -2, 7
1503612429002,-13, -8, -5, 2, 0, -3, -2, -6
1503612429021,-8, 4, 1, 1, -2, -1, 4, -13
1503612429036,-14, -6, -10, -25, -12, 0, 5, -5
1503612429058,-7, -2, -1, 1, -2, -7, -6, -13
1503612429081,3, 3, 4, 2, 3, 0, -4, 30
1503612429103,-10, 0, 1, 1, -10, -6, -6, 55
1503612429118,-18, 3, 1, 6, 4, 1, 0, -30
1503612429142,-32, -14, 1, 8, 3, -4, -5, -6
1503612429163,33, 0, -2, 2, 3, 1, 2, 23
1503612429178,13, -4, -2, -2, 1, 1, -2, -2
1503612429202,-12, -14, -10, -3, 5, 3, -21, 2
1503612429223,6, -6, -6, 0, 0, 2, 11, 2
1503612429239,18, 9, -1, -3, 3, -2, -11, -29
1503612429261,13, 18, 4, 0, 2, -1, 5, -12
1503612429283,-9, -4, 0, 1, 0, -4, 8, 1
1503612429298,-8, 2, 3, 2, -1, 10, 13, -8
1503612429321,-8, -1, 1, -3, -2, 1, 1, -7
1503612429343,-11, -3, 5, 3, 0, 0, 1, 0
1503612429359,15, -5, -7, 0, -1, -2, 3, 24
1503612429381,-2, -2, 2, 0, -1, -2, -1, -2
1503612429404,-50, -8, -4, -6, -2, -10, -7, -20
1503612429418,12, 0, -2, 2, -2, -1, -2, 2
1503612429441,8, 6, 0, -2, 0, -6, 11, -10
1503612429462,3, -13, -3, -2, 0, 2, -2, 28
1503612429478,5, 9, 1, 0, -1, 1, -3, 1
1503612429504,1, 4, 0, -2, -1, -1, 1, -8
1503612429523,4, 6, 4, 4, 3, -1, -2, -1
1503612429538,10, 0, -4, -3, -3, -6, -6, -6
1503612429561,5, -2, -1, -2, -3, 0, -4, -1
1503612429583,-6, 2, 2, -3, 10, 13, 3, 6
1503612429598,-4, -11, -1, -1, -24, -4, 28, -4
1503612429621,-8, 6, 1, 4, 33, 29, 9, -2
1503612429643,8, 12, 3, -1, -6, -14, -11, 5
1503612429658,-8, -9, 0, 1, 1, -7, -16, -11
1503612429681,9, -2, 1, 2, 6, 6, -3, 3
1503612429703,-3, 0, -4, -2, -10, 11, -1, -14
1503612429718,-18, -4, -1, -1, -8, -11, 3, 10
1503612429741,-9, 15, 12, 2, 2, -3, -1, -35
1503612429763,5, -6, -6, -2, -35, -22, -11, -6
1503612429780,-3, -3, -3, -1, -4, 5, 10, 12
1503612429801,-43, -11, -4, -1, -2, -6, -7, -5
1503612429822,-12, -16, -4, -1, 6, -3, -7, -2
1503612429839,88, 4, -4, -1, 18, 9, 5, 8
1503612429861,-13, 39, 9, 1, 9, 3, 0, 5
1503612429883,-19, -11, 6, 3, -6, 1, 1, 5
1503612429898,22, -7, -6, -4, -2, -10, -12, 12
1503612429921,48, -23, -28, -12, -10, -9, -1, 27
1503612429943,-12, 5, 5, 1, 4, -1, -11, -84
1503612429958,-25, 8, 1, -1, 8, 2, -1, -1
1503612429981,-62, -1, 7, 5, 2, 10, 18, 25
1503612430003,126, 13, 1, -3, -15, -20, -4, 34
1503612430025,-16, -21, -8, -4, -2, 5, -4, -10
1503612430041,-66, -12, -4, -7, -6, -5, -11, 1
1503612430063,-1, 6, 4, 11, 29, 27, 16, 10
1503612430085,-16, 49, 13, -1, -7, -8, 0, 0
1503612430101,-25, -6, 8, 0, -2, 4, -5, -11
1503612430130,5, -1, -8, -2, 3, -2, 11, 14
1503612430148,-4, 17, 8, 3, -9, -12, -11, -7
1503612430161,71, -11, -7, -6, -10, 2, -1, 22
1503612430183,-35, -16, -8, -4, -4, -4, -4, -18
1503612430205,-51, 30, 7, 4, -3, 9, 8, -7
1503612430221,14, 15, 14, 5, 6, 3, 0, -1
1503612430243,-21, -18, -4, 0, 14, -3, -9, -13
1503612430265,34, -7, -7, -1, 0, -8, -2, 3
1503612430288,6, -5, -4, -5, -5, 2, -2, -3
1503612430314,10, 4, 2, 3, 5, 1, 6, 21
1503612430320,-32, 3, 5, 2, 7, 4, -4, 4
1503612430333,16, 5, -3, -5, -4, -4, 5, 12
1503612430356,13, 5, -2, -6, 14, 0, -7, 6
1503612430372,11, 2, -1, 0, 22, 15, -6, 47
1503612430393,12, 4, 3, 3, -17, -6, 4, 5
1503612430416,-18, -1, -3, 0, -16, -13, 2, -9
1503612430431,2, 3, 2, -5, -15, -7, 6, -9
1503612430453,-2, 2, 0, -4, -11, -10, -1, -2
1503612430480,-1, -13, -5, -1, 4, -1, -3, -26
1503612430491,17, 3, -1, -2, 4, 4, -5, -2
1503612430514,-17, 0, 0, -5, -18, 0, 2, -3
1503612430536,3, -5, -3, -3, -14, 3, -1, -27
1503612430552,10, 26, 10, 4, -2, -1, 4, 39
1503612430573,-22, -6, -1, 1, 8, 2, 5, 12
1503612430596,-2, -8, -6, -3, -4, 1, -14, -39
1503612430613,-3, -1, 0, 2, 1, 2, 1, 8
1503612430633,12, -2, -4, -1, -10, -11, -3, -15
1503612430656,3, -9, -6, -5, 28, 3, 4, 9
1503612430671,-14, -1, 1, 1, -9, -6, -4, -10
1503612430693,-1, -4, -1, -2, -1, 8, -1, -12
1503612430716,15, 6, 0, 1, 12, 10, 15, 16
1503612430731,11, 0, 0, 0, -9, -5, 1, 11
1503612430754,-5, -3, 0, 4, 3, -1, -3, -14
1503612430776,7, 3, 1, -1, 4, 3, 7, 21
1503612430791,-24, -5, 1, -1, -10, -4, -6, -10
1503612430813,-14, -3, -4, -9, -2, -18, -14, -5
1503612430836,-5, -1, -1, 0, 0, -1, 4, -7
1503612430851,16, 3, -1, 0, -13, 3, -1, -6
1503612430873,34, 10, -2, -4, -10, -8, -2, 5
1503612430895,-5, -7, 6, 1, -17, 3, -6, 7
1503612430903,2, 11, 8, -1, -4, -4, -11, 11
1503612430925,1, -7, -2, -3, -12, 7, 19, 4
1503612430948,-3, -3, -3, -2, 0, -8, -11, -6
1503612430963,3, -6, -2, 1, 9, 3, 3, -10
1503612430985,-7, -5, -5, -5, -26, 4, -2, 0
1503612431007,-5, -8, -7, 0, -1, -5, -8, -5
1503612431023,2, 10, 11, 3, 14, -5, 3, 14
1503612431048,-4, -12, -7, 4, 34, 17, 3, -6
1503612431067,-4, -7, 1, -3, -9, -11, -2, 0
1503612431084,15, 13, 9, -1, -6, -3, -1, 4
1503612431105,-4, 1, 1, -1, -4, 0, 4, -3
1503612431128,1, 3, -3, 3, 4, -2, -7, 3
1503612431144,-2, -1, 8, 2, 14, 4, 4, 8
1503612431159,22, -5, -9, -4, 0, 4, -8, -26
1503612431173,-2, 17, 13, 13, 0, -11, 0, -4
1503612431196,1, 1, -6, -5, 14, -3, 9, 9
1503612431218,-4, -2, -3, -2, -3, 1, 9, 17
1503612431233,0, 0, 1, -1, 9, 15, -7, 7
1503612431256,-1, 8, 4, -2, -9, -2, -2, 18
1503612431279,-7, -7, -1, -1, -4, -6, 6, -9
1503612431293,-9, 12, 4, 0, -2, 2, 9, -67
1503612431316,0, -3, -4, 0, 2, 2, -2, 14
1503612431338,-6, 0, -3, -2, -7, -3, -4, 7
1503612431353,7, -8, 1, 1, -5, 0, -14, 31
1503612431376,1, -4, -4, -2, -7, -1, 6, -5
1503612431398,-3, -1, -5, -3, 1, -1, 0, -7
1503612431413,-9, 4, 8, 3, 1, 1, -1, 3
1503612431436,4, 14, 0, -4, 1, 0, 1, 4
1503612431459,5, -1, 1, 0, 2, 1, 6, -6
1503612431473,-8, -4, -2, -2, -5, -1, 7, 3
1503612431496,3, -9, -3, -1, -2, -5, -4, 11
1503612431519,-6, -23, -8, -4, -5, 0, -1, -1
1503612431533,2, 1, 0, -1, -3, -5, 2, 1
1503612431556,0, -9, -5, -2, -3, -2, -3, 0
1503612431578,1, 3, 2, 0, 0, 1, -1, -5
1503612431594,-9, 7, 4, 1, 2, 1, 5, -22
1503612431617,9, -4, -5, -3, -3, -3, -4, 12
1503612431638,8, 4, -1, -2, 1, 1, -1, 8
1503612431654,5, 5, 2, 1, 1, 1, -3, 23
1503612431676,-13, -6, -2, -2, -3, 0, -2, 5
1503612431698,-5, -3, 2, 0, -1, -4, -5, -25
1503612431713,0, -2, -5, -4, -2, 0, 0, -27
1503612431736,-9, -3, -1, -1, -4, -5, -1, 6
1503612431758,5, 17, 2, 2, 1, 1, 1, -2
1503612431774,7, 23, 7, 2, 0, 0, -1, 6
1503612431796,2, -16, -1, 0, 2, -6, -1, 12
1503612431820,-21, -9, 0, -3, -9, 1, 3, -8
1503612431841,-3, -3, -2, -1, -1, 0, -2, -1
1503612431856,5, 7, -2, 0, 3, 2, -2, -1
1503612431878,-4, -12, -4, 0, 0, -3, 0, -5
1503612431901,5, 14, 0, -1, 2, 2, 0, 3
1503612431917,3, -21, -6, -2, -19, -1, -6, -11
1503612431938,-7, 1, 5, 1, 1, -2, 1, -7
1503612431961,12, -3, -2, 0, 4, 1, -4, 5
1503612431976,-2, -4, -5, -2, 5, -2, -2, 0
1503612431998,1, -3, 0, 2, 6, 1, 3, 5
1503612432021,-1, 7, 2, 0, 2, 0, 2, -9
1503612432036,1, 11, 2, -2, 1, 0, -3, -6
1503612432058,-4, -2, -3, 1, -1, -1, 1, 6
1503612432081,1, -5, -1, 0, 0, 1, 1, 12
1503612432097,11, -2, -5, -3, 0, -3, -4, 4
1503612432118,-12, -9, -5, -3, -4, 2, 2, -7
1503612432141,1, 10, 5, 1, 0, -2, 1, 5
1503612432158,-10, -6, -6, -6, -4, 0, 0, -27
1503612432178,8, 13, -3, -4, -2, -1, 3, 6
1503612432201,0, 8, 7, 6, 3, -1, -8, 0
1503612432216,-14, -2, -1, -3, -4, -3, 0, 6
1503612432238,-4, -11, -4, -2, 1, -2, -5, 4
1503612432261,10, 3, 4, 2, 1, -2, 2, -1
1503612432276,-8, -2, 3, 1, -1, 2, 0, -7
1503612432293,7, -5, 3, 6, 3, -2, 2, 24
1503612432313,-1, -5, 1, -3, -1, -2, -1, 7
1503612432329,-2, 3, 3, 3, -1, 1, -2, 15
1503612432351,2, -2, -3, -4, -2, -4, -6, 14
1503612432374,2, 5, 2, 2, 0, -3, -4, -8
1503612432392,2, 31, 12, 6, 0, -1, -1, 0
1503612432411,2, -7, -5, -3, 0, 0, -8, -36
1503612432434,-3, -7, -3, 3, 2, 0, 1, 39
1503612432449,-7, -15, -6, -3, -2, -1, 5, 33
1503612432471,4, -3, -1, -3, -2, -2, -7, 106
1503612432495,-5, -5, -2, -1, -1, -1, -2, -27
1503612432509,-4, -5, -9, -6, -2, 4, 8, -15
1503612432531,8, 8, -3, -4, -3, -4, 0, -80
1503612432554,-8, -4, -5, -5, -1, 2, 1, -50
1503612432569,-1, 0, -2, -4, -2, -4, -2, -33
1503612432592,-5, 2, -1, 1, 0, -2, -2, -1
1503612432614,-2, 6, 4, 2, 0, -2, -2, 17
1503612432630,0, 4, -2, 4, 2, 1, -3, 18
1503612432651,3, -6, -7, -5, -2, 5, -1, -21
1503612432674,-2, -10, -4, -3, -4, -3, 2, -31
1503612432688,-9, -8, 0, 1, 1, 0, 4, -25
1503612432711,2, 6, 2, -1, -4, -2, -1, 30
1503612432733,-2, -9, -6, -1, -1, 1, -4, 21
1503612432740,-3, -2, -1, 0, 2, 1, 0, 13
1503612432756,3, 8, 4, 1, 0, 1, 0, 26
1503612432778,2, 6, 1, -1, -2, 1, -1, 10
1503612432801,7, 6, 6, 3, 0, -3, -3, -7
1503612432823,-8, 8, 3, 0, -2, 0, 4, -22
1503612432839,0, 0, -1, -2, -1, -1, -2, -11
1503612432854,2, -10, -3, -2, -2, 0, -3, -19
1503612432869,0, 5, 4, 1, 0, 0, -5, -14
1503612432899,-12, -8, -1, -3, -3, 0, -1, 0
1503612432920,2, 1, -1, -1, -1, 2, 3, 9
1503612432943,14, 4, 1, 1, 1, -1, 1, 9
1503612432960,14, -2, -2, -2, -2, -2, -2, 14
1503612432980,6, -2, -2, 1, 0, 0, 1, 41
1503612433003,-6, 5, 1, -1, 0, 1, -1, -42
1503612433018,-5, 1, 0, 0, 0, -3, -6, -27
1503612433041,6, -6, -6, -4, -3, -1, -1, -16
1503612433064,-17, -14, -5, -2, -2, -3, 0, 13
1503612433078,14, -15, -3, 0, 5, 3, 0, 19
1503612433102,-8, 1, 0, -1, -2, -1, -6, -11
1503612433123,-9, -3, -1, 0, -1, -4, -4, -6
1503612433138,-39, 2, 2, 1, 1, -2, 3, -17
1503612433162,1, 21, 4, 0, -1, -1, 4, 25
1503612433183,5, 1, 1, -1, -1, -7, -4, -19
1503612433199,21, 1, -1, -2, -3, 0, 2, 17
1503612433221,-34, -8, -4, -2, -3, 2, -3, -32
1503612433243,4, 18, 9, 3, 2, 2, 3, -1
1503612433258,26, -3, -2, -1, 0, -6, -3, 7
1503612433289,-10, 53, 14, 4, -1, -3, -6, 36
1503612433311,-2, -23, -10, -4, -3, 2, 2, 5
1503612433334,-10, -5, 0, 0, -3, 2, 1, -15
1503612433349,-15, -6, -2, -3, 3, 0, -6, -99
1503612433372,-13, -6, -1, -3, -1, 4, 16, 110
1503612433394,21, -8, -2, -2, 2, -1, -9, 53
1503612433402,3, 1, -2, -2, -1, 2, 4, 37
1503612433423,-22, -7, -2, -5, -6, -6, 3, -3
1503612433439,7, -5, -5, -1, 1, 3, -2, -13
1503612433461,23, 4, 3, -1, -2, 2, 1, 99
1503612433483,-24, -5, -1, 0, 5, 16, 3, -12
1503612433505,-3, -4, -3, 1, 13, 10, 3, -94
1503612433521,11, 1, -4, -1, -6, -8, -8, -59
1503612433543,-102, -11, -5, -2, -3, -4, -5, 40
1503612433558,-30, -3, 1, -1, -5, -8, -3, 33
1503612433581,18, 13, 4, 2, -10, -4, -2, 4
1503612433603,22, 5, 1, 2, -2, 0, 3, -7
1503612433618,18, -4, -1, -4, 1, 0, -4, 5
1503612433649,6, 0, 1, -1, 1, 0, -1, 40
1503612433672,0, 2, 3, 2, -10, -2, 11, 13
1503612433693,1, 3, 0, 0, 0, -1, -16, 10
1503612433702,11, -2, -2, -3, -6, -3, 2, 33
1503612433723,-4, -10, -3, -2, -2, -4, -11, -21
1503612433739,-7, -6, -4, -2, -1, -3, -4, -20
1503612433761,-3, -6, -1, -2, -4, 0, 4, -5
1503612433790,17, 20, 13, 3, 4, 0, 0, 5
1503612433805,-4, -15, -7, -2, 8, 4, -2, 4
1503612433821,2, 1, -2, -3, -3, 0, 1, 8
1503612433843,-1, -5, -4, -1, -1, -2, -2, -5
1503612433867,-14, -5, -5, 0, 1, -3, -4, -16
1503612433880,-9, -6, -3, 0, -2, -2, 1, -10
1503612433903,30, 0, 2, -2, -2, -2, 1, 17
1503612433926,-4, -7, -4, -3, -6, -1, -6, -13
1503612433941,-2, 1, -4, -1, 0, 0, 1, -6
1503612433956,-5, -4, -3, -1, -4, 1, 1, -4
1503612433971,3, 0, -2, -1, -1, 0, 4, 9
1503612433993,24, 17, 6, 1, 0, 1, -7, -1
1503612434015,-38, -11, -4, -1, -2, -1, -3, -14
1503612434031,11, -5, -5, -3, 0, -2, -1, -113
1503612434054,17, 5, -1, 1, 1, 1, 8, 72
1503612434076,-12, 0, 3, -2, -9, 2, 4, 28
1503612434091,-7, -4, -6, -2, 1, -1, -4, 19
1503612434121,-3, 0, -2, 1, 2, -1, -5, 10
1503612434137,15, 4, 1, 0, -1, -1, -1, 15
1503612434144,-4, 2, -3, -4, -2, -1, -13, -27
1503612434166,4, -2, -2, -1, -8, 0, 6, 5
1503612434175,1, 0, 7, 5, 11, -3, -6, -15
1503612434196,13, 8, -1, -2, -4, -1, 4, 22
1503612434211,-14, 21, 5, -3, -1, -4, -19, -28
1503612434234,3, -13, -9, -2, -2, -3, 3, -5
1503612434256,-1, -6, -4, -1, 1, 2, 17, 3
1503612434272,0, 8, 8, 1, 1, 2, -4, 1
1503612434294,-9, 0, 1, -1, -2, 0, -2, -5
1503612434316,-9, -12, -7, -5, -11, 0, 10, 7
1503612434331,0, -7, -2, 0, -2, 0, -7, 5
1503612434354,-25, -6, -5, -1, 1, -1, -5, 5
1503612434376,1, -2, 0, 1, 6, 0, -1, -6
1503612434391,-5, -9, -4, -2, -2, -1, 3, -12
1503612434414,26, -6, -3, -2, 0, -1, -2, 10
1503612434438,-6, 9, -1, -2, -2, -1, -3, -17
1503612434451,12, -27, -7, -2, 2, 1, 10, 12
1503612434474,-3, 10, 6, 1, -1, -2, -1, 21
1503612434496,4, 0, -4, -2, 0, -1, 0, 8
1503612434511,1, 5, -1, -1, -2, -1, -4, -14
1503612434534,-17, -4, -2, 0, -4, -2, -13, -16
1503612434555,6, 3, -2, -2, -2, -2, 3, -3
1503612434573,-11, -8, 1, -2, 0, 0, -6, -45
1503612434593,2, 11, 9, 4, -1, 0, -5, -7
1503612434615,10, 4, -1, -1, 3, -4, 6, 1
1503612434631,-1, -2, -1, 1, -4, 4, 4, 18
1503612434654,0, 2, 0, -1, 2, -1, -3, -7
1503612434676,-10, -11, -4, 0, 5, -1, -1, -8
1503612434698,42, 0, -1, -2, -6, -2, 2, 39
1503612434714,-30, -16, -8, -3, -5, 0, 2, 5
1503612434736,-8, -13, -4, -1, 0, -1, 1, -1
1503612434758,2, 8, 1, 0, 1, -1, 2, 30
1503612434774,-21, 3, 1, 0, 0, -3, -2, -3
1503612434795,-14, 17, 9, -1, -3, 0, -10, -16
1503612434818,8, -2, -3, -3, -3, 0, 0, -25
1503612434834,2, -2, -2, -2, 2, -1, -2, -16
1503612434856,3, 1, -1, 0, 0, -1, 0, 1
1503612434878,1, -18, -8, -1, -2, -1, 0, 5
1503612434893,-10, -15, -7, -3, -2, 1, 2, -17
1503612434916,8, 2, 1, 1, 0, -2, 0, 8
1503612434938,-13, 30, 11, 3, 1, -1, -1, -4
1503612434953,-13, -11, -9, -3, -3, -3, 0, 30
1503612434976,15, 11, 2, 1, 1, -2, 2, 15
1503612434998,2, 5, 5, 6, 9, 0, 0, 1
1503612435014,17, -7, -5, -3, -2, 0, -6, -3
1503612435036,1, -26, -11, -5, -4, -1, -2, -3
1503612435058,-1, 4, 2, 1, -2, 1, 0, -14
1503612435076,-5, 4, 2, 0, 1, 2, 0, -12
1503612435095,7, 3, 3, 0, -5, -4, -3, 5
1503612435118,6, 25, 8, 2, 1, 0, 1, -14
1503612435126,-1, -1, 0, 1, 1, -1, -1, -4
1503612435147,-7, 2, 0, 1, 0, -2, -2, 0
1503612435163,-4, 8, 0, -2, -1, -2, -4, -12
1503612435186,33, 24, 6, 1, 2, 3, 3, 25
1503612435212,3, -8, -4, -2, 0, 0, 3, -4
1503612435223,-9, 3, 1, -3, -4, -5, -4, -9
1503612435252,3, -7, -4, -1, 2, 1, 5, -5
1503612435267,3, -11, -8, -3, -5, -2, -4, 0
1503612435283,13, -3, 2, 1, -1, -1, -2, 3
1503612435305,15, 7, 2, 0, -5, -2, 0, -1
1503612435327,-5, -4, -4, -3, -2, 2, -1, 4
1503612435345,-9, 2, 0, -2, 2, 1, 15, -14
1503612435365,13, -12, -3, -2, -3, -1, 5, 37
1503612435373,-6, -14, -3, -2, -2, -1, -3, 3
1503612435395,13, 4, 1, -1, 1, 1, -1, 19
1503612435418,-5, 5, 0, 0, -2, 0, 3, -2
1503612435434,-2, 1, -2, -2, -1, 1, 2, 12
1503612435456,3, 1, -1, 0, 1, -1, 3, 17
1503612435480,-18, -5, -4, -1, 1, -1, -4, -13
1503612435494,-14, -14, -5, -3, -2, -1, -6, -2
1503612435516,-1, 2, -1, -2, 0, -2, 10, 20
1503612435538,4, 4, 0, -2, -6, 0, -2, -7
1503612435561,6, 30, 15, 6, 0, 1, -1, -25
1503612435576,19, -10, 1, 3, 3, 3, -8, -17
1503612435598,10, 23, 0, -2, -3, -3, 3, 22
1503612435621,-5, -11, 4, 0, 3, -2, -1, -11
1503612435636,23, 2, 0, -1, -3, 0, 9, 72
1503612435658,-1, -10, -7, -3, -1, -2, -2, -6
1503612435681,-12, 1, -1, -3, -2, 0, -3, -20
1503612435696,-5, -2, -1, 3, 8, 3, 0, -13
1503612435718,1, -5, -8, -1, -1, -2, -13, -24
1503612435741,-4, -9, -7, -4, -7, -2, 1, -29
1503612435756,2, -1, 0, -3, -2, -1, 5, -6
1503612435782,-7, -4, -1, -1, -8, -1, 4, -2
1503612435801,-2, 6, 7, 3, 1, -1, 0, 13
1503612435808,-24, -37, -9, -2, 0, 0, 0, 11
1503612435830,0, -4, -2, 1, 3, -1, 3, 70
1503612435848,7, 9, 1, -2, -11, 0, -9, -19
1503612435875,30, 20, 2, 0, 1, -2, -2, 5
1503612435890,-7, -4, -3, 0, 5, -3, -6, -25
1503612435905,-5, 5, 1, -1, 4, -6, 1, -6
1503612435921,10, -4, -2, -3, -4, 0, -2, 8
1503612435935,-13, -12, -4, -2, -2, -1, 6, 12
1503612435958,-4, -9, -5, 2, 5, 1, 0, 8
1503612435981,-9, -3, 1, -1, -2, -2, -1, -5
1503612435995,-4, -2, -8, -2, -3, -1, -1, -2
1503612436018,4, 37, 11, 1, 1, -2, -4, -9
1503612436040,-6, -13, -6, -3, -2, -1, -6, -3
1503612436056,11, 1, 3, 0, 1, -1, 4, 1
1503612436078,-12, -7, -2, 1, 0, 0, 0, 2
1503612436100,18, 24, 17, 6, 0, -1, -5, 30
1503612436116,-10, -15, -8, -2, 0, 0, -3, -18
1503612436138,2, -4, -5, -4, -1, -2, 1, 6
1503612436160,1, -5, -4, -3, -2, -1, -3, -3
1503612436175,-4, -2, 0, 2, 3, 0, 3, -10
1503612436198,-2, -6, -4, -1, -3, -3, 5, -5
1503612436221,-9, -13, -3, -1, 1, -2, -2, -1
1503612436236,-12, -6, -4, 0, 0, 1, 4, 8
1503612436281,2, 0, -5, -5, -3, 1, 3, -3
1503612436295,-6, -2, -3, -4, -1, -2, -2, -5
1503612436318,-5, 13, 9, 1, 1, 0, 2, -21
1503612436341,5, 2, -3, -2, -2, 0, -5, 1
1503612436355,-8, -4, -2, -2, -1, -1, 0, -3
1503612436378,3, -9, -2, -1, 0, -1, -5, -2
1503612436400,-2, -2, 0, 2, 0, -3, 1, 5
1503612436415,-3, -1, -1, -2, -2, 2, 1, -33
1503612436438,11, 1, -2, -1, -3, -3, 3, 20
1503612436460,1, -4, -5, -2, -1, -1, 0, 7
1503612436476,0, 6, 2, 1, -2, 1, -7, -1
1503612436499,0, 0, -1, -6, -2, -1, -10, -14
1503612436522,-5, 15, 8, 2, 0, 0, -1, -4
1503612436543,0, 6, 6, 4, -2, 2, 0, 0
1503612436558,3, -5, -3, 1, 1, -2, 5, 7
1503612436581,-3, -2, -3, -2, 0, 0, 3, -2
1503612436604,-8, 6, 1, -1, 0, -1, 2, 4
1503612436619,-1, -9, -4, -2, -5, 0, 5, 5
1503612436632,-4, 7, 5, 1, 0, 0, -9, -11
1503612436647,-7, -1, 4, 3, 7, -3, 0, -5
1503612436677,1, -3, -2, -2, -3, 0, 0, 16
1503612436692,1, 1, 1, 2, 9, 1, -4, -6
1503612436707,-4, 3, 3, -1, -5, -2, 2, -7
1503612436730,5, 7, -1, -1, -4, 1, 6, -25
1503612436756,8, 0, -6, -3, 1, 0, -3, 41
1503612436768,6, 4, -1, -2, 1, 1, 0, 8
1503612436791,-4, -11, -3, 0, -12, -3, -4, -4
1503612436812,-7, -7, 1, -2, -4, -2, -4, -8
1503612436828,-3, 16, 6, 3, 0, 1, 6, -3
1503612436850,-2, -6, -5, -3, -2, -1, 1, -3
1503612436872,4, 16, 1, -1, 0, 0, -4, -1
1503612436888,1, -4, 3, 2, -7, -2, -6, -3
1503612436910,3, 1, -4, -3, -1, -1, -3, -4
1503612436933,-10, -14, 1, 3, 3, 0, 0, -4
1503612436956,1, 0, -4, -2, 2, 0, 3, -1
1503612436971,-2, -5, -2, 0, -4, -2, -2, -2
1503612436993,-4, 3, -4, -4, 0, 0, 1, 3
1503612437016,2, -5, -10, -8, -2, 0, -4, -8
1503612437031,-2, -6, -3, -4, 1, -3, -9, -18
1503612437055,0, 5, 9, 5, 2, -4, -3, 1
1503612437076,-12, -4, -3, -2, -2, 0, 0, -10
1503612437091,-11, -6, 2, 2, 1, -3, -3, 4
1503612437113,4, 1, 2, 2, 0, -1, 0, -6
1503612437136,5, 0, 1, 1, -1, -2, -7, -6
1503612437151,0, 3, 4, 3, 3, 1, -2, -1
1503612437159,-5, -10, -4, -5, -4, -2, 1, 4
1503612437180,-1, 4, 2, 3, 0, -1, 6, 0
1503612437203,-1, -10, -4, -1, -2, -1, 2, 9
1503612437218,0, 9, 0, 1, -2, 0, 0, -1
1503612437241,-6, 2, 1, -1, -1, -2, -2, 1
1503612437263,7, -3, -1, 2, 0, 2, 5, -10
1503612437278,-3, -41, -11, -5, -3, -1, 1, 24
1503612437301,-3, -3, 0, 1, 1, -1, 5, 13
1503612437325,-4, 7, 2, -1, 3, -3, -2, -26
1503612437338,-2, 12, 4, 2, -8, 1, -8, -15
1503612437361,1, 10, 7, 2, -6, -5, -1, 23
1503612437383,-4, 0, -6, -4, 3, 1, 8, -16
1503612437398,0, -2, -4, -2, -2, 0, 1, -1
1503612437420,-5, 3, 0, -1, -1, 0, 0, -6
1503612437443,-2, 5, 2, -2, 3, 0, -4, -7
1503612437460,-2, -7, -6, -5, -2, -1, 0, 0
1503612437480,-3, -7, -1, -3, -3, -3, 1, -4
1503612437503,-15, -7, -3, 1, 1, -2, -6, -11
1503612437527,5, 18, 1, -4, -3, 2, 0, -8
1503612437541,-2, -9, -3, -1, 0, -4, -3, -1
1503612437563,4, 2, 2, 0, -3, -1, 0, 0
1503612437586,8, 4, 0, 2, 2, -1, -4, 5
1503612437602,5, 1, 0, 0, 6, 1, 3, 1
1503612437623,2, -9, 0, -2, -4, -1, -2, 3
1503612437646,2, -3, -2, 1, -1, -1, -2, 7
1503612437661,-4, 0, -1, 0, 2, -3, -3, -8
1503612437683,1, 0, 1, 2, 2, 5, 3, -1
1503612437705,9, 44, 14, 3, -2, 1, -5, -9
1503612437713,4, 33, 9, 1, -2, -2, -3, -7
1503612437736,1, -8, -5, 0, -1, -2, -2, 4
1503612437751,-2, 1, -1, -4, -10, 0, -2, -4
1503612437774,-2, -4, 2, 1, 0, -1, -7, -10
1503612437796,0, -12, -2, 2, -5, -3, -4, -53
1503612437811,5, 3, -1, 1, 5, -3, 2, -13
1503612437833,-2, -6, -4, -4, -1, -1, 0, 11
1503612437856,-8, 1, 2, 1, 2, -1, -2, 30
1503612437871,5, 19, 8, 3, 1, 2, -2, 21
1503612437895,-23, -8, -2, -1, -1, -1, 2, 4
1503612437916,-7, -6, 2, 2, -1, -2, -3, -7
1503612437939,8, 1, 0, -1, -2, 1, 2, 5
1503612437963,-12, -8, -3, -3, -3, -1, 4, 30
1503612437983,0, 3, -2, -2, 0, -2, -2, -12
1503612438005,0, -8, -5, -1, -2, -2, 1, -17
1503612438021,2, 2, -1, -2, -2, 0, -2, -10
1503612438043,-17, -10, -1, -1, -2, -3, -6, -6
1503612438065,16, 2, 0, 2, 1, 1, 3, 5
1503612438080,-6, -1, -1, -3, -12, 2, 2, 10
1503612438103,-3, 0, 0, 0, 1, 0, 1, 0
1503612438125,-21, -7, -1, 0, 4, -3, -4, -12
1503612438140,-31, -2, 2, -1, 1, 1, 1, -19
1503612438164,-11, -3, 0, 1, 0, 0, -5, -27
1503612438185,16, 0, -3, -1, 0, -4, -9, 4
1503612438200,11, 0, 1, 1, 10, 3, 5, 8
1503612438223,8, 1, 1, -2, -6, -1, 3, 13
1503612438245,-7, -10, -4, -4, -1, -1, -1, 14
1503612438254,-8, 10, 4, 0, -3, -3, 2, 5
1503612438276,-17, -7, -6, -4, 0, -2, -5, 26
1503612438291,4, -4, -2, -1, -1, 2, 2, 1
1503612438313,3, 5, 7, 3, -1, -1, -1, 8
1503612438336,6, 0, 2, -3, -1, -3, -9, -5
1503612438351,9, 4, 1, 0, 2, 2, -2, -12
1503612438380,-8, 3, -2, -1, -1, 0, 0, -27
1503612438399,-2, 3, -1, -2, -2, -4, 1, -1
1503612438418,5, 0, 5, 5, 7, 0, 3, 7
1503612438434,4, -2, -2, 0, -3, 0, -2, 6
1503612438456,1, 5, -1, -1, -1, -2, -1, -2
1503612438478,-3, -12, -8, -2, -1, 1, 3, 7
1503612438493,10, 0, 2, -4, -1, -2, -3, 5
1503612438516,-4, -2, -4, -1, -2, 3, 4, 8
1503612438538,1, -2, -4, -2, -2, -3, -6, -2
1503612438553,-23, -1, 1, -3, 2, 0, 3, 2
1503612438576,36, 9, -6, -1, -4, -2, -1, -23
1503612438600,38, -2, -1, 0, 0, 2, 4, 5
1503612438613,-15, -4, 1, -1, 1, 1, -3, 3
1503612438636,-15, -6, -1, 1, -1, -1, 4, 8
1503612438658,-7, 0, 2, 0, -1, -2, -3, -24
1503612438673,-33, -9, -3, 1, 0, -2, -3, -24
1503612438696,-9, -1, -1, -2, -2, 0, -2, 7
1503612438718,8, 1, 0, -1, -2, -2, -1, 6
1503612438735,12, 29, 16, 3, -1, 0, -1, 0
1503612438756,-15, -12, -8, -2, -3, -3, -5, -9
1503612438778,1, 0, -3, -1, -1, 0, -2, 9
1503612438793,4, -5, 2, -1, 0, 0, 2, 3
1503612438816,4, 1, -2, -2, -2, 0, 2, 6
1503612438838,-21, -13, -8, -4, 0, -3, -5, -8
1503612438853,28, -11, -7, -1, -2, -2, 1, 5
1503612438876,19, -3, -1, -1, -1, 0, -1, 7
1503612438898,-17, 5, 0, -2, 1, 0, -3, -7
1503612438913,-24, -2, 0, -1, 0, -1, 2, 4
1503612438941,2, -4, -1, 0, 0, 0, 2, 5
1503612438958,6, 0, 0, 0, 0, -2, 1, 4
1503612438973,-19, 3, 2, 1, 0, 1, 0, -5
1503612438996,18, 0, -1, -2, -2, 0, 1, -2
1503612439018,-8, 1, -4, 0, -1, 0, -1, 3
1503612439033,-25, -3, 0, -2, -1, -2, 0, -7
1503612439048,-6, -2, -1, -1, 0, 0, -1, -1
1503612439063,-14, -5, -3, 1, 0, 1, -2, -2
1503612439087,-2, 4, 1, -1, -1, -1, 0, -3
1503612439108,-23, -2, 1, 0, 2, -2, -1, 0
1503612439123,-14, -8, -7, -1, -1, 0, 0, -4
1503612439153,-5, -4, -2, -1, -1, -1, 1, 0
1503612439176,-9, -1, -1, 0, -1, -2, -2, -1
1503612439198,3, 0, -1, -2, -1, 0, 0, -2
1503612439214,-14, -7, -3, 0, 3, -4, 0, -5
1503612439243,-20, -7, -1, -1, -3, 0, 0, 3
1503612439258,9, -3, -3, -1, -1, 0, 0, 3
1503612439274,3, 5, -2, -2, -4, -2, -3, -1
1503612439296,7, -3, 5, 1, -2, -2, 1, -1
1503612439318,-1, 17, 7, 2, -1, -1, -5, -2
1503612439334,-8, -9, -6, -3, -1, 2, 1, 0
1503612439356,-23, -4, -2, -2, -1, 2, -1, 0
1503612439378,3, 2, 0, 0, -2, 0, -3, 0
1503612439400,10, -3, -4, -1, 4, 2, 4, 0
1503612439416,9, -8, -6, -2, 0, -4, -1, 0
1503612439446,-5, 4, 2, 1, 2, 1, -1, -3
1503612439468,0, -1, 0, -1, 1, -2, -7, -1
1503612439490,-5, -4, -4, -2, 0, 0, 2, 1
1503612439513,8, -3, 0, 1, 1, 1, 2, 18
1503612439528,-9, -22, -10, 0, 3, 1, -2, 0
1503612439550,21, -3, -5, -4, -9, -4, -2, -6
1503612439565,12, 1, -5, -3, -4, -1, -2, -14
1503612439588,-10, 0, -1, 1, 4, -2, 6, 0
1503612439610,-2, 6, 5, -1, 2, -2, 0, -5
1503612439625,-12, 6, 5, -1, 0, -2, -4, -47
1503612439649,9, -2, -1, -1, 5, 0, -1, 9
1503612439669,1, 4, 2, 3, -1, 1, 4, 45
1503612439685,0, -2, -2, -2, 1, 1, -3, -2
1503612439709,-4, 11, 3, -1, -1, 0, -1, -7
1503612439730,-8, 12, 5, 1, -2, 2, 6, 11
1503612439745,-6, -9, -4, -1, -3, -1, -8, -11
1503612439768,-19, 3, 1, 0, 0, 0, -2, -21
1503612439790,-1, -7, -3, 1, 0, -1, 2, 11
1503612439805,0, -8, -2, -3, -10, -2, -8, -4
1503612439828,3, -5, -5, -4, 3, -2, 2, 6
1503612439851,-1, -1, 0, -2, -3, 0, -1, -2
1503612439865,10, 1, 1, 3, 4, 3, -1, -2
1503612439888,1, 2, -1, -1, -3, -2, 0, 1
1503612439911,2, -4, -2, -1, -7, 0, -4, 1
1503612439925,0, -3, -4, -1, 2, -1, 0, -1
1503612439948,1, 3, 2, 1, -3, 6, 6, 2
1503612439970,-12, -4, -4, -2, 0, -4, -3, -9
1503612439985,4, -1, 3, 1, 4, -2, 0, 1
1503612440010,0, 3, 0, 1, 6, 0, 7, 13
1503612440031,12, -4, -6, -3, -7, -7, -5, -7
1503612440046,-4, -4, -3, -1, -2, -3, -4, -5
1503612440068,-12, -5, -2, -2, -5, -2, -1, -5
1503612440090,-2, -1, 0, -2, -8, 2, 0, 4
1503612440098,-8, -2, -1, -1, -8, -1, 6, 5
1503612440120,-16, -2, -11, -3, -2, -2, 1, -5
1503612440136,-5, -12, -5, -3, -2, -4, -7, 5
1503612440158,-9, -3, -1, -3, -2, -1, -2, -10
1503612440180,21, -4, -5, -2, -1, -2, 1, -1
1503612440188,-5, -2, -2, -2, -2, -1, -3, -5
1503612440211,4, -3, 0, -2, -2, -3, -5, 2
1503612440225,-14, 1, 5, -1, 0, -1, -6, -9
1503612440248,12, -2, -3, -3, 0, -1, -6, -4
1503612440270,3, 2, 0, 1, 3, 2, 7, 7
1503612440292,8, 7, 1, 0, -1, 0, 1, 0
1503612440308,0, 1, -1, 0, 4, -3, -1, 0
1503612440329,2, -2, 0, -1, -3, -2, -4, -2
1503612440352,-6, -2, -2, -2, -4, -1, 0, 7
1503612440368,-22, -5, -5, -5, -4, 3, 11, 5
1503612440390,-2, 0, -1, -2, -3, 0, 3, -7
1503612440413,11, 9, 4, 1, -4, -3, -4, 7
1503612440428,-5, -3, -1, 1, 11, -1, -1, -6
1503612440450,12, -2, 0, 1, -1, -1, -8, -9
1503612440472,1, -7, -3, -6, -5, -2, 1, -1
1503612440488,6, -5, -4, 1, -3, 0, -3, -4
1503612440518,1, 20, 7, 3, 0, 2, 4, -10
1503612440532,3, -11, -3, -3, -4, -3, -7, -5
1503612440548,10, 6, 4, -1, 3, -1, 4, 3
1503612440570,-13, -2, -2, 1, 0, -1, 6, -8
1503612440592,-1, -3, 0, 2, -1, 4, 2, 9
1503612440608,0, -3, -1, 2, 2, 1, -1, -1
1503612440630,-2, 16, 6, 1, -1, -3, -7, -4
1503612440652,-10, 11, 2, 0, 3, 0, -2, -1
1503612440668,6, -6, -3, -1, -4, 0, 5, -13
1503612440690,-10, -7, -5, -2, -1, -3, -6, -95
1503612440712,13, 16, 11, 0, -1, -1, 0, 33
1503612440728,-5, -9, -5, -2, 3, -4, -6, 4
1503612440750,7, -5, -4, -2, -1, -2, 3, 28
1503612440772,2, -21, -11, -4, -3, -3, -2, 5
1503612440788,-9, -22, -8, -2, -1, 3, 5, 16
1503612440810,-1, -2, -2, -2, -1, -2, -5, -5
1503612440832,-14, -1, -2, -3, -3, 0, -5, -3
1503612440849,-4, 0, -2, 0, 0, -5, -3, -6
1503612440870,-20, -4, -3, 0, 0, 2, 5, -33
1503612440892,9, -3, -3, 2, 1, 1, -2, 19
1503612440908,-1, 7, 1, -1, 4, -2, 0, 5
1503612440930,8, 1, 3, -3, -5, -1, 1, 9
1503612440953,3, 3, 2, -1, -4, -1, -3, 3
1503612440968,5, 8, 2, 1, -1, -1, 4, 10
1503612440984,0, -2, -1, 0, 8, 2, 3, 7
1503612440998,0, 3, 4, 1, 1, -2, 0, 1
1503612441020,-14, -4, 5, 0, 1, -3, -11, -7
1503612441043,0, 14, -7, -5, -3, -3, -3, -59
1503612441058,1, -8, -4, 0, -2, -2, 5, 35
1503612441080,16, -2, -2, -2, 1, 0, -2, 2
1503612441103,-5, 4, 5, 2, 1, 0, -6, 2
1503612441118,-20, -2, -1, 1, -1, 0, -3, -4
1503612441140,-2, -1, -1, -3, 0, -2, 1, 22
1503612441163,-9, -8, -4, -3, -16, 1, -3, -8
1503612441178,10, -13, -3, -2, -6, -1, 1, 27
1503612441200,6, 8, 5, 1, 2, -2, 0, 1
1503612441223,-1, -6, -2, 1, 3, -1, 0, -6
1503612441245,3, 22, 4, 0, 4, -3, -2, -27
1503612441261,9, -1, -2, -3, -3, -1, -8, 2
1503612441291,-4, -5, -1, -1, -7, 1, -2, -3
1503612441312,7, 17, 6, -1, 0, 0, -1, -2
1503612441335,-16, -4, -3, -1, 0, -2, -1, -12
1503612441361,4, -2, -2, 1, 0, 0, 3, -12
1503612441372,5, 0, 1, 0, 0, -1, 1, 5
1503612441395,-1, -7, -3, -1, 1, 2, -2, 13
1503612441410,6, 1, -3, -3, -3, -4, -8, 24
1503612441432,12, 0, 0, -1, 0, 0, 2, -5
1503612441457,-7, -3, -1, -3, -4, 0, -2, 9
1503612441470,-2, -6, -1, -5, -8, -4, -4, -24
1503612441500,1, 6, 3, -1, -3, -3, 4, 5
1503612441523,-3, -1, -1, -1, 2, -1, -7, -8
1503612441545,3, -5, -5, -4, -8, -2, 1, 13
1503612441560,5, 2, -3, -1, -4, -4, 2, 6
1503612441583,1, -2, 0, 1, 8, 3, -8, -5
1503612441605,-4, -14, -2, -1, 2, 1, 7, -1
1503612441635,4, 11, 1, -1, -1, 0, 8, 8
1503612441650,0, -5, 0, -1, -10, 1, -1, -2
1503612441672,-5, -3, -3, -1, 7, -1, -7, -11
1503612441695,-3, -8, -4, -2, -1, -2, 0, -4
1503612441710,-10, 14, 3, 3, 3, -3, 8, -2
1503612441732,1, -7, -3, -2, 0, 0, 7, 6
1503612441759,8, 13, 3, 0, -5, 1, 2, 21
1503612441771,-5, -17, -9, -2, -2, -2, -2, -3
1503612441800,0, -4, 1, 1, 13, 6, 0, -5
1503612441814,4, 5, 3, 0, -9, -4, -6, -2
1503612441832,-2, 4, -1, -1, 0, -2, -9, -9
1503612441852,2, 13, 4, 0, 2, 1, 2, -1
1503612441875,3, 2, -3, -2, 2, -2, -2, -4
1503612441891,2, 15, 5, 5, 3, 3, 4, 10
1503612441905,-5, -11, -6, -2, -14, -4, -1, -3
1503612441920,-5, -3, 2, -1, -5, 0, 0, -6
1503612441943,-3, 25, 11, 2, 7, 0, -7, -10
1503612441966,-16, 3, -1, -1, -2, -1, 5, 3
1503612441980,2, -8, -7, -4, -1, -2, 6, 3
1503612441995,-8, -8, -3, -3, 12, 3, -2, -6
1503612442010,1, -15, -5, -4, -7, -4, -3, 1
1503612442032,-2, -5, -6, -2, -3, -2, -6, 0
1503612442054,-6, -7, -4, -1, -8, -3, -10, -2
1503612442070,2, 28, 8, 2, -1, -1, 0, -5
1503612442093,-3, -7, -2, 0, -4, 1, -1, 1
1503612442114,3, 1, -2, -2, -5, -1, 1, 5
1503612442137,-7, -1, 0, 2, 16, -1, -10, -3
1503612442152,1, -5, -2, -2, -6, -4, 1, -3
1503612442174,2, 11, 5, 0, -4, 0, 2, 1
1503612442198,-1, -6, 1, 0, -2, 0, -2, -1
1503612442213,-4, -15, -3, 2, -8, -1, 0, -2
1503612442236,0, -18, -8, -2, -1, 2, 5, 8
1503612442259,-1, 2, 1, -1, -2, -1, 0, -8
1503612442281,-3, 10, 1, -1, -1, 2, 3, 3
1503612442296,5, 19, 5, -1, -3, -4, -2, -5
1503612442318,-6, 4, -2, 3, 7, 1, 2, 0
1503612442341,-5, -10, -4, -3, 0, 2, 17, -1
1503612442356,3, -5, -1, -2, -1, -2, -9, 3
1503612442378,6, -10, -6, 2, 9, 0, -6, -3
1503612442401,2, -8, -2, -2, 0, -1, -3, 5
1503612442416,-17, -7, -2, -5, -2, 0, 5, -9
1503612442438,4, 6, 5, 4, 9, -3, -13, -3
1503612442453,8, -1, -4, -2, -3, 0, -2, 2
1503612442476,3, 6, 2, 0, -6, 1, 4, 1
1503612442498,-3, -3, -3, -1, -4, 0, -19, -4
1503612442513,5, -6, -8, -7, -15, -5, -9, -1
1503612442536,0, -1, -5, -2, 0, 0, 0, 0
1503612442559,-6, 10, -1, -4, -4, -1, -2, -1
1503612442565,6, -3, -2, -5, -1, -2, -15, 2
1503612442588,9, -4, 1, 3, 6, 0, -1, 1
1503612442603,-3, 2, 0, -2, -5, -2, 0, 0
1503612442625,-5, -11, -6, -3, -12, -2, 1, 2
1503612442648,-4, -1, -1, -1, 4, 1, 0, -5
1503612442663,8, -8, -2, 1, -2, -2, 4, 1
1503612442685,-2, -1, -2, -2, 1, 0, 2, 3
1503612442708,-12, 2, 6, 1, -1, 2, 1, -6
1503612442724,7, -9, 2, -2, -16, -5, -2, 23
1503612442738,-1, 6, 7, 6, 5, 2, -15, -11
1503612442769,-11, 6, 6, 3, -2, -2, -2, -9
1503612442783,6, -4, 1, 0, -2, -1, 11, 9
1503612442807,-10, -4, -2, -1, 3, 3, -1, 1
1503612442832,-2, -13, -6, -3, -6, -1, 3, 1
1503612442843,7, 5, -3, 0, -1, 0, 7, 9
1503612442865,2, -1, 3, 1, -1, -5, -27, -15
1503612442888,3, 5, 1, 2, 0, 2, 11, 12
1503612442903,-17, -6, -6, -5, -3, 0, 4, 8
1503612442925,-4, -5, -2, -2, 0, -1, 1, -4
1503612442947,5, 1, -2, 0, -2, -2, -10, 1
1503612442963,-2, 7, 3, 4, 4, 3, -3, -7
1503612442978,1, 6, -1, -2, -1, 1, 3, -9
1503612443001,-5, -9, -7, -3, -1, -2, 4, -3
1503612443016,-2, 7, 4, 3, 1, -5, -5, 1
1503612443040,-4, -13, -2, 0, 2, -2, -16, -9
1503612443061,-13, 5, 9, 6, 2, -3, 1, 1
1503612443083,0, -2, -4, -6, -2, -2, -1, -3
1503612443106,-1, -6, -1, 0, -7, 2, -2, 0
1503612443121,-2, -6, -1, -1, -1, 2, 5, -1
1503612443137,-11, 5, -5, -7, -8, -1, 2, -10
1503612443159,2, -13, -10, -7, -1, -1, -6, 0
1503612443181,2, 8, 2, 3, -2, 2, 1, -2
1503612443198,8, 1, -3, 0, -1, -1, 3, 4
1503612443233,3, -4, -5, -5, 0, -4, -1, 3
1503612443248,5, 13, 4, 2, -1, 1, -1, -2
1503612443270,-8, 4, 6, 4, 2, 0, -5, -7
1503612443285,4, -1, 0, 0, 1, -4, -2, 2
1503612443308,-5, -8, -6, -2, 12, 6, 4, 4
1503612443330,3, -8, -7, -5, -8, -1, 2, 6
1503612443345,3, 29, 6, 0, 1, 1, 3, -5
1503612443368,0, -10, -4, -2, -4, -2, 0, -2
1503612443390,1, -12, 2, 1, 0, -1, -2, 3
1503612443401,-4, 10, 1, 0, -2, -2, -1, 4
1503612443420,-2, -13, 0, -1, -1, 0, -14, -47
1503612443436,-7, -5, -2, -3, -2, 2, 4, -3
1503612443458,2, 4, 1, 0, -12, -4, 2, 5
1503612443481,-3, -3, -4, 0, 2, 0, -1, 10
1503612443496,-10, -7, -6, -3, 1, -1, -2, 2
1503612443518,-7, -23, -6, -3, 0, -1, 3, 7
1503612443541,-1, -2, -1, -1, 2, 0, 6, 9
1503612443556,-5, 3, 2, 2, 2, 1, -3, -2
1503612443578,10, 6, 5, 4, 2, -1, -6, -7
1503612443603,0, 8, -1, -1, 1, -3, -1, 3
1503612443616,-21, 10, 5, 1, 0, -2, -2, -4
1503612443638,5, 0, 0, -2, -2, -2, -2, -1
1503612443661,4, 11, 2, -1, 2, 2, 1, -3
1503612443676,1, -6, -2, -2, -1, -1, 3, -9
1503612443698,-14, -5, -6, -2, -3, -1, -2, -1
1503612443721,5, 6, 1, 2, 1, -1, -2, -9
1503612443737,12, 11, 1, -1, -2, -3, -3, -3
1503612443758,-4, -5, -2, 0, -1, -2, -1, 5
1503612443781,19, 16, 0, -2, -1, 0, -1, 5
1503612443788,-11, -2, -3, -1, 0, -2, 2, 1
1503612443817,-5, 5, -1, 0, -1, 1, 0, -9
1503612443825,-3, -2, -1, -1, 0, 0, 1, -4
1503612443848,4, 5, 1, -3, -3, 1, -2, -3
1503612443870,-8, 24, 7, 1, 0, 0, -3, -12
1503612443885,-3, -10, -3, -2, -1, -1, 0, 6
1503612443909,3, -3, 1, -2, -2, -1, -2, 0
1503612443930,0, -3, 1, 1, 0, 1, 0, 0
1503612443945,-3, -6, -2, -1, -1, -2, -1, 1
1503612443967,-2, -8, -3, -1, -1, -2, -1, -2
1503612443990,-3, 0, -1, -1, 0, -1, -2, -1
1503612444013,-9, -2, -4, -3, 0, -1, -2, -2
1503612444027,-2, 2, 2, 0, -1, -1, -3, -5
1503612444050,-3, -5, 0, 0, -1, 0, 1, -4
1503612444073,1, 0, -1, -1, -1, -1, -2, -1
1503612444088,-9, -3, 1, 1, 0, 1, 3, 1
1503612444111,0, 4, 0, 0, -1, 0, -2, 0
1503612444133,6, 2, -1, -1, -1, -3, 2, 1
1503612444148,8, -3, -4, -1, -2, 0, -2, 4
1503612444172,7, 3, -1, -2, 1, 1, 0, 7
1503612444193,-3, 0, -1, -2, -2, -1, -3, -2
1503612444208,1, -1, 2, 0, -1, -1, 1, 0
1503612444230,13, -1, -1, -1, -2, -2, -4, -4
1503612444253,-1, 4, 0, -1, 1, -3, -1, -3
1503612444267,-3, 2, -1, -1, -2, 1, -1, -3
1503612444290,-7, 16, 4, 0, 0, -1, 0, -6
1503612444313,1, -10, -2, -2, -1, -1, 1, 6
1503612444327,2, -6, -2, -1, 1, 0, -4, -2
1503612444357,-5, -5, -4, -1, -3, -1, 2, -3
1503612444374,-10, 17, 5, 1, -1, -1, 3, -2
1503612444388,1, -15, -6, -1, -2, -3, -1, 1
1503612444410,7, -2, -1, -1, -1, -2, -13, -8
1503612444433,5, 5, 5, 2, 0, 0, -1, 4
1503612444448,0, -6, -3, -1, 0, 1, 3, 3
1503612444470,-5, -7, -4, -1, 1, 1, -3, 0
1503612444493,-8, 9, 1, 0, -2, -2, 3, 0
1503612444509,7, -3, -3, -1, 0, -2, 1, -2
1503612444530,1, -10, -2, -3, 1, -1, 10, 2
1503612444553,-1, -3, -4, -1, -1, -2, 3, 0
1503612444561,-1, 3, 2, 1, 1, -1, 6, 6
1503612444584,4, 6, 1, 0, 0, 1, 0, -2
1503612444598,5, -8, -4, -1, -1, 0, 1, 1
1503612444621,3, -4, 0, -1, -1, 0, 1, 4
1503612444644,-8, 3, -1, -2, -1, -1, -3, -2
1503612444658,-7, -3, -1, -1, 0, -1, -1, -4
1503612444681,0, -3, -1, 1, -1, 0, 3, 2
1503612444703,0, 0, -2, -2, -2, -1, -4, -2
1503612444718,14, 4, -2, -2, 0, -3, -2, 1
1503612444733,1, -8, -3, -3, 0, -1, -2, -1
1503612444748,-1, 4, -1, 0, -1, -3, 0, -3
1503612444770,3, -16, -7, -2, -4, 1, -1, 3
1503612444793,2, -18, -6, -3, -1, -2, -3, -4
1503612444811,-2, 3, 2, -1, 1, -1, 0, 1
1503612444830,9, -7, -7, 0, -1, 1, -2, -2
1503612444853,-10, 3, 0, 1, 0, -1, -1, -1
1503612444868,-4, 15, 1, -2, 0, 0, -2, -3
1503612444890,-11, 5, 1, -1, -1, -3, -2, -6
1503612444913,-16, -8, -3, -1, -3, -2, -4, -9
1503612444934,0, 13, 6, 2, 0, 2, 4, 3
1503612444950,2, -2, -4, -1, 0, 0, -1, 2
1503612444972,-3, -16, -3, 1, 1, -1, 2, 1
1503612444994,12, 16, 0, 0, 1, 1, 3, 4
1503612445011,-2, -6, -3, -1, 0, 2, 2, 1
1503612445033,-6, -3, -2, -3, -3, -3, -5, -6
1503612445054,-2, -1, 4, 4, 8, 2, 6, 9
1503612445070,-3, -2, -2, -4, -10, -5, -7, -13
1503612445092,-5, 10, 2, 1, 5, 0, 3, 2
1503612445101,4, 7, -3, -3, -4, -2, -4, -8
1503612445123,-5, -8, -3, -2, -1, -1, 1, 4
1503612445147,-4, -7, -2, -3, -3, -2, -4, -6
1503612445161,-1, -6, -5, -1, 1, -2, -1, 4
1503612445183,15, 4, 0, -1, -3, 0, 2, 4
1503612445205,-8, 5, 4, -1, -13, 0, -7, -5
1503612445221,5, 5, 5, 2, 2, 1, 3, 2
1503612445243,0, -6, -3, -2, 0, -1, 2, 3
1503612445265,-10, -4, -2, -3, 2, -2, 0, -3
1503612445281,-7, -5, -4, 1, 3, -1, -6, -7
1503612445303,1, 7, 1, 0, 0, -1, 5, 5
1503612445326,-2, 1, 2, 0, -2, -1, -4, -6
1503612445341,-1, 1, -3, -1, 1, -1, -3, -6
1503612445363,4, 6, 3, -4, -14, -1, 1, 0
1503612445385,-3, 0, -1, 0, 1, 0, 0, 0
1503612445401,0, -6, -3, 0, 7, -2, -10, -3
1503612445423,2, 2, -2, -1, 0, 0, 1, 4
1503612445445,-7, 24, 10, 3, 2, 2, 7, -3
1503612445461,-8, -12, -4, 0, 0, -4, -5, -4
1503612445483,8, 1, 3, -1, 0, 2, 2, 3
1503612445505,-1, -3, -3, 0, 4, 1, 1, 6
1503612445521,9, 1, 2, 1, 0, -1, -3, -1
1503612445543,-3, 3, -2, -2, -3, -2, 0, 1
1503612445565,-13, -5, -3, -2, -1, -1, 1, 0
1503612445588,-8, -14, -7, -4, -7, -4, -1, -8
1503612445603,-1, -9, -7, -5, -6, -2, -6, -6
1503612445625,6, 0, -4, -2, -1, -4, -9, -4
1503612445641,-5, -3, -2, -2, -2, 0, 1, 2
1503612445663,32, 4, 4, 1, 1, -1, -5, 1
1503612445685,-17, -1, 1, 0, 1, 0, -4, -1
1503612445693,6, 0, -2, 0, 2, 1, 0, 2
1503612445717,8, 3, 3, 0, 1, 1, 10, 11
1503612445730,-4, 9, 2, 1, 0, -2, -6, -5
1503612445753,-1, 13, 3, 1, 0, -2, -1, -2
1503612445774,-1, -10, -6, -3, 0, 0, -7, -7
1503612445791,-7, -4, -2, 1, 0, -2, 0, 1
1503612445813,3, -3, 1, -1, -9, -1, 6, -1
1503612445834,-2, -2, -4, -1, -1, -3, -7, 0
1503612445851,3, -7, -5, 0, 1, 1, -3, -4
1503612445872,-6, -7, -4, -3, 0, -1, -1, -2
1503612445902,-1, 3, 2, 1, 13, 3, 2, 1
1503612445917,6, 2, -1, 0, -1, -1, -8, 0
1503612445926,-1, 3, 1, -3, 2, -2, -1, -2
1503612445948,13, 10, 6, 2, -2, 1, 3, 6
1503612445963,3, -6, -5, -1, 0, 1, -1, -1
1503612445985,1, -23, -5, -3, -3, -1, -1, 1
1503612446008,-9, 3, -1, -1, -3, -2, 2, -2
1503612446023,-5, -3, -3, 0, 1, -1, 4, 1
1503612446045,2, -4, -5, -2, -1, 0, -11, -9
1503612446068,-2, 7, 4, 2, 2, -1, 3, 3
1503612446083,-1, 4, 4, -1, 0, -1, -2, 2
1503612446105,4, -1, -6, -3, 0, -2, -2, 2
1503612446128,2, 1, -2, -3, -4, 0, 7, 4
1503612446144,-9, -4, -3, -3, -2, -1, -1, -6
1503612446165,2, -1, -1, 1, -1, -3, -5, -8
1503612446190,5, 4, 0, 0, 0, -1, 3, 6
1503612446203,-5, 2, 1, -1, 1, 0, -12, 1
1503612446225,-6, -4, -3, -5, -10, 3, -6, -7
1503612446247,1, 1, 2, 1, 2, 0, 4, 2
1503612446263,1, -1, -2, -2, -2, 0, 5, -4
1503612446287,-2, 3, 2, -1, 4, -3, -1, 1
1503612446307,1, 6, 3, 4, 6, 1, 3, 4
1503612446323,6, 2, -4, 1, 7, 0, 4, 8
1503612446345,-6, -7, -1, 1, 4, -1, 0, -6
1503612446367,-1, 2, 1, -1, -7, 0, 1, 0
1503612446383,-1, -1, 7, 6, 6, 1, 7, 7
1503612446405,0, -1, -2, -2, -3, -2, -1, -2
1503612446428,-21, -1, -2, -4, -2, -2, -4, -15
1503612446443,3, -3, -4, -3, -14, -3, 4, 11
1503612446465,-7, -6, -7, -9, -11, -10, -19, -19
1503612446490,16, 3, 1, 1, 6, 8, 2, 11
1503612446503,-4, 5, 0, -1, -11, -4, 4, -1
1503612446525,10, -1, -1, -7, -13, -5, -13, -6
1503612446548,-4, -3, -2, -1, -2, -2, -2, -1
1503612446565,-9, -2, 2, 3, 10, 4, 4, 1
1503612446585,7, -1, -1, -3, 3, -1, -2, -3
1503612446607,6, 0, -6, -8, -21, -6, 5, 7
1503612446623,-5, -3, -2, 2, 5, -12, -11, -8
1503612446645,-2, -5, -4, -2, -7, -15, -5, -2
1503612446672,9, 2, 0, 2, 11, 13, 9, 6
1503612446683,-7, -10, -7, -7, -15, -6, -9, -10
1503612446705,-2, 3, 8, 6, 9, 9, 8, 6
1503612446728,2, 1, -3, -4, 5, 3, 2, 5
1503612446743,5, 6, 4, 8, 10, 10, 1, 4
1503612446765,-7, -2, 3, 0, 3, 0, 9, 2
1503612446787,19, 4, 0, 3, 3, -1, 0, 5
1503612446810,-6, -4, -3, -1, 6, 0, -5, -5
1503612446825,-3, -6, -8, -13, -10, -12, -16, -11
1503612446847,-2, 9, 6, 1, 11, 5, -12, -2
1503612446857,-14, 20, 17, 1, 3, -2, 3, 13
1503612446877,8, -4, -5, 0, -14, 1, 2, -8
1503612446899,-6, -2, -3, -6, -3, -8, -4, -14
1503612446907,-3, -6, -6, -2, 2, 2, -1, 11
1503612446930,-7, -6, -3, 3, 3, -5, -2, -6
1503612446946,2, 1, 1, 1, -2, -6, -5, -1
1503612446967,19, 10, 5, 1, 5, -2, 4, 19
1503612446992,1, 2, 1, 2, 5, 3, 4, -8
1503612447005,-5, -3, -1, 1, -21, 10, -10, -4
1503612447028,-16, -10, -2, 3, 4, 5, 6, 1
1503612447050,-2, 0, -5, -4, -1, -11, 2, -6
1503612447065,-9, 3, 3, -3, 11, 5, 8, 0
1503612447087,0, 1, -3, -2, 1, -2, -6, -64
1503612447110,1, -4, -1, -4, -2, 11, -6, 71
1503612447126,0, -11, -3, -2, 1, -5, 19, 52
1503612447147,-8, 3, -2, -4, 0, -3, -18, -32
1503612447170,2, 5, 3, 3, -2, -4, -12, -78
1503612447185,5, 27, 16, 2, 10, 2, 5, 38
1503612447207,-10, -14, -12, -1, -7, -1, 13, -1
1503612447230,-17, -8, -6, 0, 3, 2, -5, -26
1503612447245,7, 3, 3, -2, -2, 1, 14, 25
1503612447268,14, -8, -4, -1, 8, -1, -9, 36
1503612447290,-5, -4, -7, -3, -10, -8, -6, -15
1503612447305,-2, 1, -3, -2, -22, -2, -6, -8
1503612447328,-3, -13, -10, -3, 4, 0, -1, -3
1503612447350,2, -3, 1, 3, 3, 1, -2, 23
1503612447365,-12, -9, -13, -5, -6, -3, 0, -16
1503612447387,6, 0, 3, 0, 4, 15, 4, -55
1503612447410,3, 6, 5, 2, -3, -2, 8, 19
1503612447425,-13, 23, 14, 3, 0, -5, -9, -20
1503612447447,10, 24, 13, 1, 3, -3, 16, -9
1503612447470,1, -18, -6, -2, -5, -5, -8, 28
1503612447485,6, 2, 3, 2, 4, 1, 2, 17
1503612447501,-9, -18, -7, 1, 6, 1, 2, -2
1503612447523,-2, 2, 2, 0, 4, 4, 6, 10
1503612447538,10, -9, -11, -3, -2, -1, 1, -8
1503612447563,6, -4, -3, -3, 0, -2, -5, 12
1503612447583,7, 4, 2, -1, -12, -2, -4, 14
1503612447598,-2, -26, -12, 1, 4, -3, 1, 69
1503612447620,-5, -2, 3, 1, -2, 1, 1, -13
1503612447643,-6, 5, 3, -1, 1, 2, 0, -7
1503612447658,-3, 1, 2, 1, 4, 0, 4, 31
1503612447680,1, 11, 1, 0, 10, 1, 1, 11
1503612447703,14, -10, -7, -3, -5, -2, -6, -25
1503612447718,-6, 3, 1, -1, 1, -1, -4, -24
1503612447740,-6, 5, 1, -1, -2, 2, 6, 7
1503612447767,2, 5, -2, -3, -6, -3, 7, 50
1503612447778,5, 3, 3, -1, -2, -5, -3, -21
1503612447803,-11, 6, 5, -2, 0, -5, -24, -39
1503612447823,7, 16, -1, 2, 3, 2, -2, -7
1503612447838,3, -9, 0, -2, 0, -1, -4, -13
1503612447854,-9, -12, -4, 3, 7, 0, 4, -10
1503612447869,27, 23, 11, 2, 0, 2, -3, 63
1503612447890,-12, -4, -6, -3, -2, -4, -5, -13
1503612447912,-3, 0, -2, -4, -4, -1, -8, -26
1503612447927,-20, -17, -6, -1, 1, 0, 4, -3
1503612447950,-8, -3, -2, -1, 8, 1, 7, -4
1503612447973,-5, -3, -3, -1, -4, -5, 2, -7
1503612447987,6, 25, 16, 7, -2, 1, 3, 3
1503612448010,-1, -7, -6, -4, -4, -4, -2, -3
1503612448033,1, -3, -1, -4, -4, -2, -9, -16
1503612448047,4, -65, -39, -12, -1, 1, -2, 7
1503612448070,-3, -12, -7, -4, -16, -1, 2, 9
1503612448092,15, 23, 8, 2, -3, -1, -5, -13
1503612448108,-14, 9, 8, 0, 4, -1, 1, 0
1503612448130,5, 15, 5, 2, 8, -1, -4, 2
1503612448152,-18, 5, 6, 1, 2, 0, 3, -28
1503612448161,-5, -2, 0, -1, -6, 0, 4, 0
1503612448183,-1, 3, 3, 0, -9, -2, 13, -6
1503612448205,3, -8, -6, 0, 0, 0, -3, 1
1503612448213,-7, -2, -1, -2, -10, -3, 2, 7
1503612448229,5, 4, 2, 4, 9, 1, -7, 3
1503612448250,0, 1, 4, -1, -15, -3, -9, 7
1503612448273,-4, -3, -1, -4, -2, -3, -3, -5
1503612448287,-6, -5, -2, 1, 9, -1, 4, 6
1503612448311,2, -3, -4, -2, 15, 0, 8, 1
1503612448335,-3, -2, -2, -2, 1, -1, 24, -6
1503612448347,-13, -11, -8, -1, 4, -1, 3, -16
1503612448370,-1, 3, 2, 1, -9, 0, -4, 10
1503612448393,4, -5, -3, -2, -7, 1, -5, 1
1503612448407,1, 1, 0, 2, 7, 3, -6, -8
1503612448430,13, 4, -1, 1, 1, 5, 2, 19
1503612448452,37, 21, 4, -2, -5, 0, 2, 2
1503612448469,-10, -1, 1, 3, -4, 0, -8, -4
1503612448490,-13, 2, 2, 2, 4, -3, -11, 14
1503612448512,1, -17, -5, -6, -9, -1, -3, -51
1503612448527,-3, 12, 6, 1, -1, 2, 0, 6
1503612448550,-24, -14, -1, 0, 0, -1, 3, 3
1503612448573,-13, 13, 2, 1, 7, 6, 6, -12
1503612448587,-3, -6, -6, -4, 2, -4, -1, 21
1503612448610,8, 4, 2, 3, 20, 4, 2, 11
1503612448632,-4, -21, -11, -6, 0, -8, -8, 1
1503612448647,-8, -8, -7, -2, -12, -5, -1, -11
1503612448671,8, -6, -5, -1, -7, 0, -12, -8
1503612448692,10, 7, 7, 0, 0, -1, 2, 3
1503612448715,-1, 0, -1, -3, -6, -1, 6, -4
1503612448730,1, -9, -6, -2, 0, -3, 1, 22
1503612448753,-1, 4, 2, -2, -4, 0, -3, 7
1503612448778,20, 3, 7, 4, -2, 0, -2, -9
1503612448790,-8, -21, -10, 1, 20, 0, -16, -34
1503612448813,11, -11, -9, -5, 2, -1, 6, 8
1503612448820,10, -8, 0, 1, -5, -7, -23, -17
1503612448835,0, 0, 0, -2, -1, 2, -1, -2
1503612448850,0, 0, 0, -1, -11, 1, 0, 16
1503612448873,9, 2, -3, 0, 2, 4, 5, 33
1503612448895,-7, -1, -3, 1, -7, -10, -27, -7
1503612448910,-5, 1, 2, 0, -1, 0, 7, 1
1503612448932,-7, 17, 7, 0, -1, 2, -2, -16
1503612448955,-6, -11, -6, -2, 7, -3, 2, 7
1503612448973,7, -2, -2, -4, -6, -2, 3, 16
1503612448992,-7, 28, 13, 3, 5, 3, 4, 13
1503612449015,-14, -7, -5, -1, 7, -2, 1, -14
1503612449030,7, 2, 0, -2, -8, -3, -4, -1
1503612449052,3, -1, 1, -1, -2, -2, -1, -6
1503612449076,3, -10, -5, -2, -6, -2, 13, -1
1503612449090,6, -3, -2, -1, 4, -2, -8, -2
1503612449113,0, 1, 1, 0, -9, 0, 3, 6
1503612449135,-10, -6, 2, 1, -11, -3, -3, -11
1503612449150,4, -4, -4, -3, -1, -1, 0, -2
1503612449174,1, 0, -2, -2, 3, 0, -7, -1
1503612449195,-1, -6, -2, -1, 4, 1, -3, -4
1503612449211,-6, -5, -3, 0, -4, -2, 5, -2
1503612449232,0, 2, 1, -1, -2, 0, -3, 7
1503612449255,11, 12, 5, 3, 7, 2, -6, 8
1503612449270,0, -1, -3, -2, 1, -2, 10, 0
1503612449292,-6, -8, -6, -2, 0, 0, -5, -2
1503612449316,-1, -9, -5, -1, 4, 4, 11, -7
1503612449330,2, -1, -2, -3, -8, -2, -1, 2
1503612449352,-1, -4, -1, -2, -1, -1, -3, 1
1503612449376,-4, 1, -3, -2, -2, -2, 1, -4
1503612449390,17, 9, 0, 2, 5, 3, 15, 6
1503612449413,-6, -7, -1, 0, 4, -3, -6, -10
1503612449435,-17, 1, 0, 0, -5, -5, -1, -32
1503612449451,11, 6, 4, 3, 8, 3, -6, 14
1503612449472,-6, -17, -6, -3, -7, -4, -3, 7
1503612449495,-4, 9, 2, 0, -1, -1, -14, -1
1503612449513,-1, -9, -5, -3, -1, -2, 3, 4
1503612449533,-5, 8, 4, -1, -3, -1, -8, 13
1503612449555,-5, -10, -5, -2, -3, 2, 9, 6
1503612449570,6, -3, -1, -1, -3, -1, -2, -3
1503612449592,2, 3, 1, -1, 1, 0, -4, -16
1503612449615,-16, -1, -1, -1, -2, -3, -3, -7
1503612449637,-1, 13, 3, 0, -3, -3, -1, 2
1503612449653,6, -3, 4, -2, 0, 1, 0, 0
1503612449677,2, -7, 1, 2, 0, -1, 0, 11
1503612449697,6, -1, -2, -3, 0, -2, -2, 13
1503612449712,-1, 11, 2, -1, -3, -4, -25, -14
1503612449735,-5, 13, 11, 6, 4, 0, -1, 1
1503612449758,-1, -5, -5, 0, -1, 2, 11, 1
1503612449772,7, -3, -3, 0, -1, -2, -3, 6
1503612449795,-1, 28, 4, -1, 0, 2, 4, -10
1503612449818,6, -17, -5, -3, -4, 0, 0, -10
1503612449832,8, -1, -6, -4, -3, -2, 1, -1
1503612449855,-7, -7, -5, -3, -1, -1, 2, -3
1503612449879,2, -1, 1, 0, 0, -3, -5, -9
1503612449888,-5, -19, -8, -5, -3, -1, 4, 41
1503612449907,-3, 9, 8, 6, 1, -1, 4, -8
1503612449923,-6, -1, -3, -4, -3, -2, -3, -9
1503612449947,10, -26, -7, 1, 0, -2, -1, -11
1503612449967,-2, -1, 1, -1, -4, -4, -10, -7
1503612449983,2, 8, 1, 1, -1, -3, -7, 22
1503612450005,1, 15, 12, 7, 5, 1, -4, -9
1503612450027,4, 5, 3, 0, -5, 0, -5, -4
1503612450035,-3, -6, -2, -1, 3, -1, -1, -13
1503612450057,-1, 7, 3, 2, -1, 1, -2, 0
1503612450072,-7, -14, -4, -3, -2, -2, 2, -1
1503612450095,-6, -3, -1, -1, -2, -4, -2, -5
1503612450118,1, -4, 2, 2, 1, 0, 15, -2
1503612450132,4, 9, -1, -1, 0, -3, -11, -8
1503612450156,-10, -6, 1, 1, -1, 0, -2, -2
1503612450184,-4, -4, -4, -4, -2, -1, -1, 0
1503612450192,0, -7, -6, -4, -4, -1, 5, 8
1503612450216,0, 5, 0, -2, -2, 2, 1, 0
1503612450237,2, 4, 3, 2, 2, 0, 1, -3
1503612450252,1, -6, -1, 0, 2, -1, -4, 0
1503612450275,-6, 13, 3, 4, -1, -2, -8, 14
1503612450297,0, 4, 1, -2, 1, 2, 1, -7
1503612450314,3, 4, 1, -1, -2, -3, -2, 6
1503612450335,8, -15, -6, -2, -1, -2, -2, -9
1503612450357,6, 1, 0, -1, 1, 0, 2, 14
1503612450372,-1, 8, 0, -2, -2, -1, 1, 4
1503612450395,0, -2, 1, -1, 0, 0, -3, -6
1503612450418,-12, -11, -2, 0, 0, -1, 0, -2
1503612450432,-3, -6, -4, -3, -4, -2, -2, -8
1503612450455,-2, 6, 1, 2, -1, 0, -4, -1
1503612450477,-2, -12, -5, -1, -1, -1, 1, -4
1503612450492,-8, -8, -3, 0, 0, 0, -3, -11
1503612450517,3, 33, 14, 1, 0, 2, 1, -5
1503612450537,1, -8, -6, -2, -1, -1, 0, 1
1503612450559,5, 0, -1, -1, 0, 0, 0, -1
1503612450575,-10, -7, -6, 0, -1, -1, -2, 5
1503612450597,3, -2, 0, -3, -2, 2, 1, -3
1503612450622,-2, -5, -2, 0, -1, -2, -2, -1
1503612450635,1, -5, -1, 0, 0, 0, -2, 0
1503612450657,9, 0, -2, 1, 0, 0, 0, -2
1503612450679,1, 13, 4, -1, 1, -3, -3, 2
1503612450695,1, 14, 3, 1, -1, -1, 0, 0
1503612450718,-2, -7, 2, -1, -1, -2, 0, 0
1503612450739,-3, -5, -5, -2, -1, 2, -1, 3
1503612450762,1, -2, -2, -1, -1, 0, -1, -2
1503612450786,3, -5, 1, -1, 0, -1, -1, -2
1503612450799,-4, -3, -4, -1, -1, -4, 0, -1
1503612450815,-7, -9, -6, -2, -3, -2, 1, -1
1503612450837,-1, -2, 0, -1, 0, -1, -1, 3
1503612450865,3, 12, 7, 1, 1, -1, -3, -5
1503612450875,1, -6, -3, -1, -1, 0, -1, 0
1503612450899,-2, 4, -1, -2, 0, 0, 0, 1
1503612450921,-7, -7, -2, 0, -1, -1, -2, -1
1503612450935,5, -3, -3, -1, -2, -1, 1, -4
1503612450957,3, -1, 0, -2, -1, 1, -1, 1
1503612450979,-5, -1, -2, -2, 0, 0, -1, 1
1503612450995,3, 1, -1, -2, -1, -1, 0, -1
1503612451024,-4, 0, -3, -1, -2, -2, -2, -2
1503612451039,4, 28, 9, 0, 1, 2, 0, 16
1503612451055,-5, -8, -5, -1, -1, -1, -3, -7
1503612451077,-10, 2, 1, 0, -3, -1, -1, -7
1503612451099,2, -3, -1, -2, 1, -1, -1, 0
1503612451115,3, -9, -1, 0, 1, -1, 6, 21
1503612451137,-3, -6, -3, -1, -1, 0, -1, -9
1503612451159,7, 0, -1, -1, -2, -2, -3, -6
1503612451168,0, 2, 1, 0, 1, 1, -5, -7
1503612451190,0, -5, -3, 0, 1, -1, 0, 2
1503612451205,-3, 1, -1, -2, 0, 0, -2, 0
1503612451228,2, 0, 0, -2, -1, 0, -1, 1
1503612451250,-3, -4, -2, -3, 0, -1, -1, -1
1503612451265,0, 4, 1, 1, -3, -4, -1, 0
1503612451289,0, -2, 0, -2, -1, -1, 0, -1
1503612451310,4, 18, 4, -1, 0, -2, -1, -1
1503612451318,-6, -4, -2, -1, -2, -1, -1, 0
1503612451339,0, 1, -1, -1, -1, -1, 1, 1
1503612451356,-2, -6, 0, -1, 0, -1, -2, -1
1503612451377,-7, -14, 0, 0, 0, -1, -2, -5
1503612451399,4, 0, -1, -1, 0, 0, -3, -4
1503612451415,7, 2, 0, 1, 0, 1, 5, 1
1503612451438,-3, 1, 1, -1, 0, -3, -8, -4
1503612451460,-3, 0, -1, 0, -2, -1, -10, -6
1503612451484,1, 2, -3, 0, -3, 0, 6, 7
1503612451499,-7, -5, -1, 2, -1, 1, 0, -2
1503612451512,13, 21, 3, 0, 1, -1, -4, -3
1503612451528,-17, -5, -1, -2, -2, -5, -2, -2
1503612451550,0, -2, 0, -1, -1, -2, -2, -2
1503612451573,-1, -11, -3, 2, 0, 0, 0, 2
1503612451587,-2, 2, 1, -1, -3, -2, -2, -2
1503612451602,3, -2, -4, 0, 0, -2, 2, 4
1503612451618,4, 2, -3, 0, 0, 1, 2, 0
1503612451647,-10, 7, 1, -1, -1, -3, -4, -4
1503612451662,0, -9, -7, -1, -1, -3, -1, 0
1503612451677,-2, -2, 0, 0, -1, 1, 1, -1
1503612451700,5, -2, 2, 0, 1, 1, 0, 0
1503612451722,1, -2, -1, -1, -2, -2, -4, 0
1503612451737,-5, -5, -2, -1, -1, -1, 1, -5
1503612451759,-2, 4, -1, 0, -1, 1, 1, -1
1503612451782,1, 0, 0, 0, -2, -2, 0, -2
1503612451797,0, -3, -3, -1, 1, 0, 1, 0
1503612451819,0, 0, 2, -1, 1, 0, -2, 0
1503612451828,-15, -8, -1, 0, -2, 0, 0, -2
1503612451850,9, 8, 2, 1, 0, -2, -1, -1
1503612451873,-2, -7, -5, -2, -2, -2, -2, -3
1503612451887,-1, -2, 2, 0, 1, -1, 1, -1
1503612451910,0, -4, -2, 0, -1, -1, 1, -1
1503612451932,-4, -3, -3, -1, 1, -1, -2, -1
1503612451947,-2, -1, -1, -2, 0, 0, 1, -1
1503612451970,2, -9, -4, -1, -1, 0, -3, 1
1503612451993,2, -1, -2, 0, -1, -1, 0, -1
1503612452007,-5, -10, -4, -4, 0, -1, -5, 1
1503612452030,-2, -1, -1, 0, 0, -1, 4, 2
1503612452052,1, 3, 4, 3, 0, 1, 2, 1
1503612452069,-2, -1, 1, -3, -2, 0, -1, -2
1503612452090,0, 8, 2, -2, -1, 0, 1, -2
1503612452112,-2, -4, -2, 2, -2, -1, -1, 0
1503612452128,1, 1, -1, 0, -2, -3, 0, -3
1503612452150,-1, -5, 0, -1, -1, -2, 1, -1
1503612452172,-2, -6, -2, -1, -1, -1, -1, -2
1503612452187,-3, 1, -1, 1, 0, 0, -1, 2
1503612452210,1, -3, -2, 0, -2, -1, -2, 0
1503612452233,0, 3, -1, -2, 0, -1, 2, -1
1503612452247,-5, 3, 0, -1, 1, -1, -5, -7
1503612452270,-1, 0, -1, -1, 0, 0, 1, 1
1503612452292,4, -1, -1, -2, -3, -3, -5, -3
1503612452307,-2, 0, 1, 0, 0, -1, -2, -1
1503612452330,-2, -2, -3, 0, -2, 0, -1, -1
1503612452354,3, -1, 0, -1, -1, -2, 0, -1
1503612452375,-2, -4, 0, 0, -2, 0, 2, 0
1503612452390,2, 6, 2, -2, 0, -1, -1, 2
1503612452412,-4, -5, -1, 0, -2, -1, 0, 2
1503612452435,-4, 1, -1, -1, 1, 1, -1, 1
1503612452450,-5, -11, -4, -1, -1, -3, -1, -1
1503612452472,1, 0, 1, 1, -1, 0, -1, -3
1503612452500,-2, -3, 0, 0, 0, -1, 0, -3
1503612452510,2, 0, -4, 1, -1, 0, -3, 0
1503612452532,-1, 10, 0, 1, -1, -3, -1, -1
1503612452555,0, 0, 1, -4, -3, 1, -1, 0
1503612452570,-2, 1, -2, -1, 0, 0, 1, 0
1503612452592,-1, -5, -2, -2, 0, -2, 0, -1
1503612452615,-1, 0, 1, 0, -2, -1, -2, -3
1503612452632,3, 2, 0, -2, 0, 0, 1, 1
1503612452652,-2, 2, -1, -2, -2, -4, -4, -5
1503612452675,-3, -1, 0, 1, 1, -1, 0, 1
1503612452690,1, -4, -4, -1, -3, 0, -1, 0
1503612452712,-1, -8, -5, -1, -1, 0, -2, -1
1503612452735,3, 2, 3, 1, -2, 0, -4, 0
1503612452749,-1, 1, -3, -3, 1, -1, 2, 2
1503612452773,0, 1, 0, 0, -2, 0, 0, -2
1503612452796,-1, -1, 1, 2, 0, -2, 1, 0
1503612452810,-3, -3, -1, 1, 0, 1, -2, -2
1503612452832,2, -6, -3, -2, 1, 0, 1, -2
1503612452855,0, 9, 5, 3, -2, 0, -1, 0
1503612452870,-3, -1, -3, -2, -2, -2, -3, -4
1503612452892,2, 2, -1, -3, -2, -3, 0, -4
1503612452914,-1, -4, -1, -1, 0, 0, 2, 2
1503612452929,-2, 1, 1, 0, 0, 0, 0, -3
1503612452952,3, -1, -3, -3, -1, 0, -4, 0
1503612452976,-5, 1, 2, 2, 1, -1, 0, -1
1503612452990,4, 0, -2, -1, 0, -1, 0, 4
1503612453012,-1, -3, -3, 0, 3, 1, 0, 1
1503612453035,0, 1, -2, 1, -3, -1, -3, -3
1503612453050,1, 6, -2, 0, -4, -1, 0, 0
1503612453072,-5, -4, -2, 0, 6, 0, -1, -3
1503612453095,-1, -1, -1, -7, -19, -5, -2, -4
1503612453110,-11, -2, -1, 1, -1, 1, -2, -5
1503612453138,7, 20, 11, 2, 2, 1, 1, 7
1503612453154,-2, -3, -1, -4, 2, -1, -3, -5
1503612453172,-1, -7, -5, -6, -11, -2, -1, 1
1503612453192,9, -4, -6, -4, -9, -4, -4, -5
1503612453215,-10, -7, -1, 1, 3, 2, 0, -2
1503612453229,7, 1, -2, 1, 0, -1, 1, -1
1503612453252,-4, -12, -7, -2, 2, -1, -4, -3
1503612453275,-11, -4, 1, 3, 6, 1, 5, 5
1503612453289,-8, -5, -4, -3, -2, -7, -19, -18
1503612453312,1, 4, -1, 1, -1, 0, 3, 7
1503612453339,0, -4, -3, 0, 5, 1, 4, 2
1503612453357,9, 8, 8, 1, -1, -1, 2, 1
1503612453376,0, -1, -4, -1, 1, -1, 2, 2
1503612453395,10, 3, 2, 4, 5, 1, -1, 1
1503612453417,3, -2, -2, -4, -3, -3, -2, 0
1503612453432,-12, 2, 1, -1, 0, -2, -3, -9
1503612453455,-1, 3, 1, 1, -1, 2, 2, -1
1503612453478,-3, 11, 4, 3, 8, 5, 7, 13
1503612453492,18, -4, -7, -8, -12, -5, 3, 0
1503612453515,-7, -5, 2, 4, -2, 1, -6, -6
1503612453539,-21, -8, -3, -2, -1, -3, -3, -5
1503612453552,2, 5, 9, 2, 3, 3, 1, 2
1503612453575,-6, -6, -3, -2, -6, -7, -8, -6
1503612453597,-2, -1, -2, 3, 2, -1, 6, 0
1503612453612,-3, -3, -3, -8, -14, 16, 2, -3
1503612453635,4, -1, -1, 0, -1, -2, 5, 7
1503612453657,7, 3, 3, 3, 7, -8, 2, 9
1503612453672,4, 3, -1, 2, -1, 1, -4, 0
1503612453695,0, -3, -5, -6, -2, -5, 3, -7
1503612453717,-8, 1, -2, 0, 9, 1, -4, 2
1503612453732,0, -1, 1, 5, 8, 7, 3, 1
1503612453757,-1, -3, -4, -5, -14, -1, 2, 2
1503612453778,-2, 4, 2, -8, -15, -7, -11, -9
1503612453792,18, 10, 0, -1, -3, -8, -6, 13
1503612453815,2, -8, -4, 0, 11, 0, -7, 3
1503612453844,2, 1, -1, -1, 4, -19, -1, 5
1503612453852,-3, -6, -1, 1, -7, 5, 3, -5
1503612453876,-16, -12, -4, -1, 2, -1, 1, -5
1503612453897,6, 0, -2, 0, -1, 1, -1, 2
1503612453912,-3, 0, -2, 0, 2, 9, 2, -8
1503612453928,0, 7, 3, -1, -2, -2, -1, 1
1503612453950,-4, -3, -3, -2, 4, -1, -14, -4
1503612453965,-4, -4, -3, -6, -11, -3, -1, -10
1503612453988,-11, -4, 7, 3, 6, 0, 3, -4
1503612454003,3, -6, -7, -6, -14, -4, 0, -3
1503612454025,-1, 1, 0, -1, -2, 7, 10, 1
1503612454048,-5, -2, -2, -2, -9, -1, -3, -4
1503612454063,2, 2, 2, 1, 4, -3, 1, 0
1503612454085,3, 7, -2, 1, 6, -1, -5, 3
1503612454108,1, 6, 1, 3, 8, 3, 0, 1
1503612454123,9, 20, 7, 0, 3, 0, -1, 0
1503612454146,-1, -5, 4, 1, -3, -3, 0, 1
1503612454168,3, 15, 0, -2, -4, -5, -1, 2
1503612454184,0, -4, -5, -1, -5, -1, 10, 8
1503612454205,-2, 0, 4, 3, -2, -2, 0, -1
1503612454228,-2, -7, -7, -4, -1, -2, -2, -10
1503612454246,-4, -7, -4, 0, -1, -2, -1, -1
1503612454266,-4, -4, -3, -2, 4, -5, -4, -7
1503612454288,-4, -7, -1, 0, 3, 2, -2, -2
1503612454310,-6, 5, 6, 0, -5, -2, -4, 0
1503612454325,-3, -10, -6, -5, 3, 3, -4, 3
1503612454348,4, -4, -4, -1, -7, -2, -2, -4
1503612454370,-1, -5, -3, -4, 0, -2, -5, 1
1503612454387,-5, -5, -5, -4, -1, -9, -13, -12
1503612454411,6, -6, -3, -1, -7, -2, 3, 3
1503612454430,-3, -14, -8, -1, 2, 1, 6, 5
1503612454447,-3, 0, -5, -3, -4, -4, -5, -8
1503612454468,2, 1, 4, 0, 1, -1, 0, -1
1503612454490,8, -2, 2, 4, 3, 4, 4, 2
1503612454505,-1, 8, 7, 1, -1, 1, 10, 4
1503612454528,-3, -3, -2, -3, 5, 1, -2, -1
1503612454550,1, 10, 2, -2, -4, -4, -2, 1
1503612454565,1, 3, -1, 1, -5, 0, 0, -2
1503612454595,1, -1, 0, 1, 2, 4, -1, -1
1503612454616,-3, -1, -2, -3, -1, -3, -2, -3
1503612454625,13, 12, 7, 1, -3, -2, -2, 1
1503612454648,4, -10, -7, -1, -1, 0, -12, -1
1503612454670,-3, 5, 0, -2, 3, -1, 0, 0
1503612454687,-3, 3, 2, 2, 10, 3, -3, 3
1503612454708,-4, -3, -2, 0, -5, -4, -10, -1
1503612454729,4, 4, 3, 0, 5, 1, -4, -5
1503612454737,5, 4, 4, 1, 5, 0, 4, 2
1503612454747,-3, -5, -1, -2, -12, 3, 4, -2
1503612454768,0, -2, -2, -4, -6, -2, 12, -11
1503612454790,0, -1, -2, -2, 0, 1, -9, -3
1503612454805,2, 37, 12, 2, 2, -1, 6, -4
1503612454828,3, 3, 1, 0, 0, -1, -4, -4
1503612454850,-6, -15, -4, -1, -2, 1, 16, -5
1503612454865,-3, -12, -6, -3, -3, -4, 0, 12
1503612454888,1, -3, -2, 1, -2, -2, -2, 1
1503612454910,3, -6, 0, 2, 4, 0, -1, 4
1503612454925,0, 9, 4, -1, 3, 1, 2, 1
1503612454949,-18, -10, -9, -5, -5, -4, -11, -7
1503612454969,-2, -9, -5, 3, 8, 2, 3, -1
1503612454985,8, 3, 0, -1, 2, 1, 1, -2
1503612455000,2, 18, 9, 4, 1, -1, -9, 7
1503612455015,-4, -6, -2, -1, -2, -1, 6, -15
1503612455037,-4, -6, -2, 1, -1, -2, -17, 2
1503612455060,1, 5, 0, 0, 2, 5, 15, -1
1503612455074,-7, 6, 3, -1, 0, 0, -4, -13
1503612455097,-5, -4, -3, -4, 2, -1, -1, -3
1503612455120,-5, -14, -6, -3, -4, -4, -8, -15
1503612455134,-1, -4, -1, -1, -2, -3, -13, 4
1503612455157,1, -4, -4, -2, 3, -5, -8, -74
1503612455182,-4, -7, 0, 0, -6, -5, -1, 18
1503612455202,2, 1, -4, 0, 2, 2, 0, 17
1503612455210,1, 2, 0, -3, -3, 0, 6, 6
1503612455232,0, 3, -2, -1, 5, 1, -3, 1
1503612455249,-7, 8, 6, 3, 6, -4, -4, -68
1503612455269,0, -1, -4, -2, -5, 1, -1, 19
1503612455292,5, -5, -1, 1, 21, 6, 15, 10
1503612455308,-8, -12, 1, -1, -7, -2, -9, 8
1503612455330,-1, 1, -3, -1, -6, -1, -5, -65
1503612455353,6, 5, 0, 1, 5, -1, 0, 33
1503612455368,4, -6, -4, 0, 10, 2, 9, 13
1503612455390,2, 12, 2, -1, -7, -3, -4, 12
1503612455412,3, 26, 9, 2, -1, 1, -4, 6
1503612455428,-6, -12, -4, -1, -5, -3, -3, 3
1503612455451,1, -2, -2, -2, -6, 0, 2, 14
1503612455472,-5, -12, -5, -2, -4, 0, -3, 6
1503612455488,-10, 10, 9, 6, 4, 1, -5, -12
1503612455509,6, -6, -3, -3, -4, -4, -3, 7
1503612455532,0, -3, -3, 1, 2, -1, -3, -69
1503612455548,3, -1, -2, -1, -1, -3, -2, 23
1503612455569,-4, -3, -1, 0, -1, 0, -2, 3
1503612455592,10, -7, -4, -4, 0, -3, 15, 14
1503612455615,-10, -10, -3, -1, -1, 0, -4, -1
1503612455630,-1, 15, 6, 1, 8, 1, -2, 9
1503612455653,-1, -7, -3, -2, -3, -2, -2, 6
1503612455668,-4, 2, 1, 0, -4, -2, 4, 6
1503612455690,-1, 1, -1, -2, -1, 1, -2, 0
1503612455712,8, -4, -2, 0, -1, 0, 6, 50
1503612455728,-5, 12, 3, 1, 9, -1, -6, -3
1503612455749,-8, -8, -4, -2, -6, -4, -2, -10
1503612455772,-4, -6, -3, -1, -1, 1, -3, -14
1503612455789,3, 1, -2, 0, 0, -1, -6, -9
1503612455809,2, -4, -3, 0, -12, -3, -1, 9
1503612455817,2, -11, -7, -2, 3, 2, 0, -18
1503612455839,8, -11, -5, -4, -3, -3, 2, -10
1503612455862,0, 3, -1, -3, -2, -3, -4, -4
1503612455870,6, 9, 0, -3, -2, -2, -2, -2
1503612455892,-5, -10, -5, -3, -2, -3, -3, -7
1503612455908,3, -9, -3, -1, -3, 1, 2, 10
1503612455931,-1, 1, 2, -1, -4, 0, -3, -13
1503612455955,-5, -11, -2, 0, 0, -1, 3, 8
1503612455967,-14, 7, 3, 1, -2, -1, -5, -2
1503612455990,0, 6, -1, 0, -3, -2, -3, -1
1503612456012,4, -1, -1, 1, 1, -1, -3, -5
1503612456028,6, -12, -7, -2, -2, 0, 0, 1
1503612456050,-5, 2, -1, -4, -3, 0, -2, 1
1503612456072,6, 9, 1, -2, -16, -4, 5, -1
1503612456089,-8, -9, -2, -1, 6, 4, 2, 5
1503612456102,2, -14, -6, 0, 0, -2, 2, 2
1503612456110,1, -5, -2, -3, 3, 1, -2, -5
1503612456132,0, -1, 1, 1, 4, -1, -2, -3
1503612456156,0, 2, 0, -1, -1, -2, -7, -6
1503612456170,-5, -2, -1, -1, -1, 0, -2, -1
1503612456192,4, 15, 3, 2, -3, 0, -1, -8
1503612456215,-4, 9, 0, -3, -3, -2, 0, 14
1503612456231,-4, -15, -4, 0, 1, -3, 1, -6
1503612456253,14, 2, 1, -3, 14, 3, -2, 0
1503612456275,6, 1, -1, 0, 0, -2, -2, 0
1503612456290,1, -4, -1, -3, -4, 0, 0, -9
1503612456312,1, 2, 3, 1, -2, -1, 0, 5
1503612456335,-4, 7, 4, 2, -8, -4, -6, 0
1503612456350,2, 4, -1, 0, -6, -4, 1, -4
1503612456372,-6, -13, -7, -5, -2, 1, 0, 3
1503612456395,-4, -10, -9, -5, 5, 0, -1, -5
1503612456409,-5, 14, 1, -1, -13, -2, 4, 3
1503612456433,-1, 10, 4, 0, 1, 1, -2, 2
1503612456440,5, 2, -2, -2, -4, -2, -10, -1
1503612456462,-4, -6, -7, -3, 7, 1, 6, -5
1503612456484,1, -1, 0, -1, -2, -5, -6, -1
1503612456500,-13, -6, 2, 0, 0, 0, 3, -3
1503612456522,6, 5, 0, -1, -1, -1, -16, -14
1503612456544,-3, 5, 0, 0, -5, -2, 4, -5
1503612456560,17, 4, -2, -1, 0, -1, 14, 5
1503612456582,4, 1, -2, 1, 1, 0, -5, -3
1503612456604,-6, -4, -4, -2, 0, 2, 7, 0
1503612456619,0, 0, -2, -2, -4, -3, 3, -6
1503612456635,-1, 12, 1, -3, 0, -3, -13, 6
1503612456650,-20, -40, -11, -3, -4, -3, -6, -3
1503612456672,2, -1, 4, 2, 8, 5, 3, 1
1503612456695,4, -7, -5, -4, -6, -4, -2, -2
1503612456710,3, 1, -1, 0, -1, 2, 4, 5
1503612456732,-2, 8, -1, 0, 0, -2, 3, -1
1503612456755,-12, 0, 3, -1, -2, -3, -7, -4
1503612456771,4, 4, -1, -3, 2, -1, 2, 0
1503612456794,-5, -9, -3, -1, -4, 0, 15, -3
1503612456814,12, 31, 8, 3, -1, 1, -7, 23
1503612456831,-3, -22, -5, -1, -5, -3, 2, 9
1503612456852,2, -4, -4, 1, 3, 0, 0, 4
1503612456875,-1, 8, 3, -2, -1, 0, 4, -6
1503612456890,-16, 2, 0, 1, -1, 1, -4, -3
1503612456912,2, 2, 0, 0, -1, -2, 0, 20
1503612456935,-8, 5, 2, 2, 1, 0, 0, -10
1503612456950,7, 0, 1, 0, -1, -1, -4, -2
1503612456972,-3, -5, -4, -2, -2, 0, -1, 0
1503612456995,3, -17, -10, -2, -1, -1, 2, -8
1503612457010,4, 19, 5, 1, -1, -1, -5, -10
1503612457032,1, -14, -2, -5, -2, -1, -4, 1
1503612457054,-1, 3, 1, 0, -2, 0, -3, -6
1503612457077,-11, 14, 2, 2, 0, -3, 0, -11
1503612457092,11, -5, 2, 2, 2, -3, -9, 7
1503612457114,-4, -22, -8, 1, 1, 0, -2, -8
1503612457138,8, 9, -1, -1, -2, -1, 6, 10
1503612457157,-6, 1, -1, -1, 1, 1, 0, -11
1503612457175,8, -10, -1, -1, 0, 0, 12, 3
1503612457197,12, -1, -5, -6, -5, -2, -5, 0
1503612457212,4, 9, 3, 3, -1, -2, -4, -5
1503612457237,-11, -8, -1, -1, -1, 0, 1, 16
1503612457258,-1, 1, -2, -1, 1, 0, -4, -8
1503612457281,6, -13, -3, -4, -2, -1, 1, -2
1503612457294,-10, -6, -6, -6, -1, 2, -3, -5
1503612457317,-8, 1, -3, -5, -1, 0, 4, -1
1503612457333,-9, -4, -3, -1, 0, -3, 0, -2
1503612457357,-10, -21, -8, -4, -4, -1, -2, -15
1503612457377,-12, 11, 7, 3, 3, -1, -9, -16
1503612457392,-7, -2, 3, 3, 1, -2, 4, -1
1503612457414,11, 8, 4, 2, 1, 0, -7, 3
1503612457437,6, 11, 4, 3, -1, 0, 10, 5
1503612457452,3, 2, 2, 3, 0, -4, -8, 6
1503612457474,7, -1, -1, -4, -4, -3, -5, -6
1503612457498,-4, -4, -5, -3, -6, -1, 2, 4
1503612457512,-1, 2, -4, -1, -1, -1, -1, 3
1503612457535,3, -1, 0, -1, 3, 0, -3, 0
1503612457559,19, -11, -6, -2, -1, 0, 5, 24
1503612457572,-5, 2, 2, -2, 0, 0, -1, -2
1503612457595,-3, -7, -3, -2, -1, -3, -5, -7
1503612457617,-10, -15, 0, -1, -1, -1, -5, -9
1503612457634,0, -3, 1, -1, 0, -1, 2, 6
1503612457654,-5, 6, 0, -3, -1, 0, -2, 3
1503612457662,-7, 8, 3, 0, -1, -1, 0, -1
1503612457684,-18, -14, -2, 1, 0, -1, 2, -1
1503612457707,-15, -8, -4, -1, -1, -2, -3, -4
1503612457723,6, 3, 1, -1, 0, -2, -1, 0
1503612457744,-5, -12, -4, -2, -2, -3, -2, 8
1503612457768,2, -3, -2, -2, -1, -2, 0, -21
1503612457782,-1, -10, -5, -1, 0, 0, -1, 6
1503612457805,-1, -3, 2, 1, -1, 1, 2, 0
1503612457826,-14, -5, -5, -3, -2, -2, -2, -14
1503612457842,13, 5, -1, 0, -1, -2, -2, 7
1503612457864,9, -8, -1, -4, -3, -1, 1, 0
1503612457887,-4, -13, -3, -2, -1, 2, 2, 23
1503612457902,0, -1, 1, -1, -1, -2, -1, -5
1503612457924,5, 9, 3, 1, -1, 1, -1, -3
1503612457946,-13, 7, 2, 2, -2, -2, -1, -4
1503612457970,9, -2, 0, -3, 0, 1, 1, 7
1503612457992,-2, -3, -4, -2, -1, -1, -2, -4
1503612458001,2, -5, -5, -4, -2, 1, 2, 0
1503612458014,5, -3, -1, 1, -1, 1, -1, -2
1503612458037,-3, 22, 3, -1, -1, -2, -2, -9
1503612458059,-1, -5, -2, 0, -1, -2, 0, 2
1503612458074,1, -3, -3, -3, -1, -2, -1, -3
1503612458097,-3, -6, -3, -2, -2, 1, -1, 3
1503612458126,-7, 25, 11, 3, 2, 1, 1, -1
1503612458136,-3, 2, 3, 0, 0, -1, -3, -1
1503612458157,22, -12, -6, -1, -2, -1, 4, 17
1503612458179,-4, -8, -4, 2, 0, -3, -2, -4
1503612458194,-3, -4, -4, -2, 0, 0, 2, 0
1503612458217,0, -8, -2, 0, -1, -2, -1, -5
1503612458241,-3, -1, -1, 0, 0, -1, -1, 0
1503612458254,-4, -2, -2, -2, 0, 0, -3, -4
1503612458277,0, -5, -3, -2, -1, -2, -1, -2
1503612458299,-3, -1, 0, -2, -2, 0, -1, 2
1503612458314,-1, -1, -1, 0, -1, 0, -3, -8
1503612458330,-3, -7, -4, -2, -2, -2, -1, -2
1503612458353,3, 6, 1, -1, -1, -1, 0, 0
1503612458368,-5, -16, -4, 1, 0, -1, -2, -4
1503612458390,-6, -4, -1, 0, -1, -1, 0, -1
1503612458413,-1, -5, -5, -2, -1, 0, -1, -8
1503612458434,-2, -4, -4, -1, -2, -4, -4, -5
1503612458450,1, 0, 1, 0, 0, 2, 2, 2
1503612458473,3, -3, 0, 0, 1, -1, 1, 9
1503612458487,2, -4, -3, -2, -1, 0, 1, -2
1503612458510,0, -2, -2, -1, 1, 0, -2, 0
1503612458532,1, 3, 3, 2, 0, -1, -3, -5
1503612458540,-3, -2, 0, 0, 0, -1, -2, -14
1503612458554,-1, 2, -1, -1, -1, 0, -1, -5
1503612458573,-13, -1, -5, -3, -1, -2, -2, -15
1503612458592,-4, -10, -2, -1, 0, 0, 0, 13
1503612458607,5, 3, 1, 0, -1, 0, 1, 10
1503612458630,4, -1, 1, -1, 0, 1, 0, 3
1503612458652,-3, 2, -1, -3, -2, -2, -2, -7
1503612458667,-3, -5, -2, -4, -1, -3, -4, -4
1503612458690,2, -1, 2, 4, 1, 3, 0, 4
1503612458712,0, 3, -1, -1, -3, -3, 0, -4
1503612458727,1, -3, -2, 0, 1, 1, 2, 1
1503612458750,-3, 10, 6, -1, -2, -1, 0, -2
1503612458774,1, -5, -3, -2, -3, 0, -2, -3
1503612458787,-1, -4, -2, -1, -1, -4, -2, 0
1503612458810,0, -5, -5, -1, -1, 0, 0, 0
1503612458832,-3, -9, -1, -1, 1, 0, -1, 2
1503612458848,1, 3, -2, -1, 1, -1, 0, -1
1503612458870,2, 3, 1, 0, -1, -1, -3, -3
1503612458892,0, 1, -5, -2, -2, -1, 4, 5
1503612458910,-2, 3, 4, 1, 0, 2, -1, 2
1503612458930,5, -2, -4, 0, -1, -1, -1, -5
1503612458952,0, 1, 1, 0, 0, -3, -2, -7
1503612458967,-3, -1, -1, -2, -4, -1, -4, 3
1503612458990,-5, -3, -1, -2, -1, 0, -1, 1
1503612459012,4, 9, 2, -1, -1, -1, -3, 0
1503612459027,-3, 5, 4, 0, 0, 0, -2, -4
1503612459050,-2, -5, 0, 0, 0, 0, 1, 1
1503612459072,2, -3, -2, -1, 1, -1, -1, -1
1503612459080,-4, -1, -5, -3, -3, -3, -1, -3
1503612459102,-2, -5, -1, 0, -2, -1, -2, 2
1503612459118,1, -2, -2, 0, 0, 0, 0, -1
1503612459139,-1, 0, 0, 0, -1, -1, 2, -5
1503612459162,0, 1, -2, -2, 1, 0, -1, 1
1503612459178,0, 4, 0, -2, 0, -2, 1, -2
1503612459199,0, 1, 2, 3, 0, 2, -1, 2
1503612459222,0, -2, -3, -2, -2, -2, 0, 3
1503612459237,3, 0, -1, 0, 0, 1, -1, -1
1503612459259,-2, 5, 0, -2, 1, -1, -3, -4
1503612459282,3, -2, -2, -3, -2, -2, 0, 0
1503612459297,3, 8, 2, -2, -3, -1, 0, 1
1503612459319,-1, -2, 0, -1, 1, -1, 0, -1
1503612459342,-2, -6, -1, -1, -1, -2, -1, -1
1503612459357,5, 2, 0, 1, -1, -1, 2, 1
1503612459374,-6, 1, -2, -1, -1, -4, -4, -7
1503612459387,3, 1, 1, 0, 1, -1, 1, 1
1503612459417,-1, -3, -3, -1, -1, 2, -3, -1
1503612459439,-2, -1, -1, 0, 0, -3, -1, -4
1503612459462,-9, 4, 2, 1, 2, -1, -1, -3
1503612459484,1, -1, -1, -1, 0, -1, -5, -1
1503612459499,3, 1, 2, 1, 3, -1, 3, 5
1503612459522,1, -1, -2, -2, -1, 0, 0, -3
1503612459537,7, -5, -2, -1, 2, 0, -7, -1
1503612459559,-14, -4, -3, -1, 0, -3, 0, -4
1503612459589,-2, 3, 3, 0, -2, 1, 1, -4
1503612459597,-5, 2, 0, 1, 2, 0, 0, 0
1503612459619,-4, 0, 1, 2, 7, 1, -1, -3
1503612459642,-13, -8, -4, -3, -4, -1, 2, -49
1503612459657,6, -4, -5, -5, 0, -1, -3, 6
1503612459680,2, 11, 2, 1, -3, -5, 0, 9
1503612459703,44, 12, 2, 0, 1, 0, -1, 10
1503612459718,-9, -13, -3, -1, -1, -1, -2, 0
1503612459740,-8, 10, 1, -1, -1, 0, 0, -28
1503612459765,-8, -5, 0, 1, 0, 0, -3, 3
1503612459777,-3, -7, -3, -3, -2, -2, -13, -4
1503612459799,-5, -1, -2, 0, 0, 0, -3, 5
1503612459822,4, 9, 1, 0, 1, 2, 17, 21
1503612459837,-2, -8, 1, -1, -2, -1, -3, 7
1503612459859,-2, -13, -9, -5, -2, -1, 4, 8
1503612459882,3, 3, 3, 1, -1, -1, 1, -5
1503612459904,-2, 5, 3, 1, 0, -2, 5, 19
1503612459915,13, 12, 6, -1, 0, -1, 6, -35
1503612459934,-8, 2, 2, 1, 0, -1, 8, 27
1503612459950,3, -3, -2, 0, -2, -1, -1, 7
1503612459972,2, -4, -4, 1, -2, -1, -1, -3
1503612460001,-5, -2, 0, -3, 0, -2, -18, -11
1503612460010,-19, -5, -2, -1, 0, 3, 2, -11
1503612460032,8, 4, 2, 2, 9, 0, 3, -6
1503612460054,3, -4, 2, -4, -4, -5, -2, 0
1503612460070,4, -8, -5, -2, -2, 0, 15, -4
1503612460093,-1, 2, -1, -2, -1, 0, 5, 12
1503612460118,-9, -2, -2, -1, 0, 0, -2, 0
1503612460130,-2, -5, -5, -2, -1, -1, -4, -1
1503612460154,0, -6, -5, -2, -4, -2, 2, 2
1503612460174,4, 6, 0, -3, -1, 0, 0, -5
1503612460190,4, -8, -7, -3, -6, -4, -12, -5
1503612460213,-1, 0, -1, -1, -10, 1, -2, 3
1503612460234,-9, -5, -4, -3, -2, -4, -4, 6
1503612460252,-3, -1, -1, 1, 1, 2, 20, 4
1503612460272,6, 6, 4, 1, -4, 1, -4, -2
1503612460294,3, 1, 3, -2, 1, -2, 2, 29
1503612460314,-1, 2, 1, 1, 2, 1, 3, -5
1503612460333,-5, -14, -8, -3, -7, -1, 2, -3
1503612460355,-2, -2, 0, -3, 5, 3, -2, -8
1503612460370,17, 8, 2, 2, 4, 3, 12, -9
1503612460392,14, 2, 2, 2, 0, -1, -9, 4
1503612460414,-6, -3, -2, -1, 2, 2, 10, 15
1503612460430,2, 5, 2, 0, 1, -2, -8, -4
1503612460454,7, 2, 0, 1, 2, -1, -7, -7
1503612460474,-15, -3, -2, -2, 2, -1, -5, -21
1503612460491,-12, 1, 1, 3, 1, -1, -12, -17
1503612460512,1, 2, 1, -2, -4, -15, -18, 4
1503612460534,-11, -3, -2, -3, -1, -2, -4, -6
1503612460550,-9, -9, -1, -1, -1, 3, 10, 2
1503612460572,1, 8, -2, 2, 3, -2, 2, -4
1503612460595,-2, -5, -4, -1, -5, 0, 3, 5
1503612460610,2, -3, -2, -3, -6, -4, 3, 3
1503612460632,7, 49, 32, 8, 5, 3, 1, -1
1503612460655,4, -15, -13, -4, -4, 0, 1, -3
1503612460670,4, -12, -8, -2, -4, 3, 32, 59
1503612460693,1, -6, 0, 0, -4, 1, -16, -32
1503612460714,-4, -6, -6, -3, 0, -3, -14, -17
1503612460730,-1, 0, -1, 0, 1, -4, 0, 9
1503612460754,17, 3, 0, -3, 1, 0, 10, 7
1503612460774,-10, -7, -4, -2, 1, 1, -9, -12
1503612460797,-5, 1, 0, -1, -1, -1, -2, -2
1503612460812,-1, -1, -2, -1, 3, 2, 1, -14
1503612460834,3, 0, 0, -3, -5, 1, -6, 10
1503612460857,3, -8, -1, -1, -3, -5, -11, 50
1503612460872,-7, -3, -4, 1, 0, 1, -2, -13
1503612460895,6, 9, 4, 1, 3, 1, -3, -33
1503612460917,-14, -31, -10, -3, 0, -2, 3, -7
1503612460925,-1, -3, 0, 2, 0, 0, -5, 16
1503612460946,5, 7, -1, -1, -2, -2, -4, -7
1503612460956,-1, -1, -2, 0, 1, 1, 4, -14
1503612460977,10, -14, -7, -3, -3, -1, -2, -7
1503612460993,-2, 2, 0, -1, -2, -3, -8, 11
1503612461014,0, 13, 2, -1, -3, 1, 1, -25
1503612461037,-15, -5, -2, 0, -6, -3, 0, -3
1503612461053,-6, -3, -1, 0, 0, -3, 11, 6
1503612461074,-9, 4, 4, 0, 2, -1, -3, 0
1503612461097,2, 10, 3, 2, -5, 3, -3, 13
1503612461112,1, -2, -2, -5, -5, 1, 9, -20
1503612461134,-2, -2, -2, -1, 1, -2, -15, -8
1503612461158,27, 8, 1, 2, 1, -4, -4, 1
1503612461166,6, 24, 13, 5, 2, 1, -6, -3
1503612461186,-5, -1, -3, -2, 0, 2, 12, -13
1503612461202,-9, -4, -7, -4, -3, 2, 1, -6
1503612461225,-14, -8, -4, -1, 5, -2, -7, 7
1503612461246,0, -7, -2, -2, -2, 0, -5, -5
1503612461262,15, 0, -4, -2, -2, -4, -2, 1
1503612461284,-11, -13, -1, -1, 0, -4, -1, -1
1503612461306,-4, -1, -4, -2, 1, -3, -12, -3
1503612461322,5, 7, 1, 1, -2, 0, -1, -14
1503612461344,19, 3, 0, 0, 0, 1, 1, 17
1503612461367,-8, -4, -5, -2, -2, -1, 4, 10
1503612461382,-6, 1, -1, 1, 0, 1, 5, 10
1503612461404,2, -1, -2, -1, -1, -1, -2, -14
1503612461428,-3, -4, -3, -2, 0, 0, 1, -26
1503612461442,0, -8, -4, -1, 1, 2, -4, -12
1503612461464,9, 1, -1, -1, -2, -2, -1, 9
1503612461486,-5, 2, 0, -3, -8, -1, 2, 4
1503612461502,-5, 4, 3, 0, 1, 0, 2, 29
1503612461528,0, -3, -1, 0, -1, -1, 1, -3
1503612461546,-5, 17, 3, -1, -3, -2, -7, 9
1503612461562,14, 19, 8, 4, 2, 0, -1, 24
1503612461585,2, -14, -6, -2, -2, -2, 11, 5
1503612461606,-9, -10, -7, -3, 2, 2, -4, -17
1503612461622,4, -1, 4, 1, -1, -4, -5, -11
1503612461644,-10, -7, -5, -2, -1, -1, 18, -7
1503612461666,-1, -3, -2, -2, -2, 0, -4, 6
1503612461688,-8, -3, -1, -2, -1, 0, 2, -2
1503612461698,2, 11, 1, -2, 0, -1, 3, 1
1503612461719,-1, -5, -6, -1, -2, 0, -1, -1
1503612461730,-1, -2, -4, -1, -1, -2, -13, -11
1503612461748,-2, -8, -4, -2, -1, 2, 5, 3
1503612461764,-1, 0, 4, 5, 6, -1, -3, -12
1503612461779,-4, -3, 0, -1, 0, -2, 1, -5
1503612461796,16, 27, 6, 0, 1, -1, -13, -5
1503612461817,-14, -18, -3, -1, -3, 0, 2, -10
1503612461839,-1, -8, -3, 0, 1, 1, 9, 7
1503612461856,-1, -11, -5, -1, -2, -2, -4, -6
1503612461877,0, 1, -1, -1, -1, 0, -2, 1
1503612461899,-4, -5, -3, -2, 0, -2, -1, -17
1503612461914,0, -4, -2, -3, -1, 1, 13, -2
1503612461937,-3, -1, 0, 1, 0, -2, -5, -1
1503612461959,6, 4, 0, 1, 0, -3, -3, 7
1503612461974,-7, 0, 1, 0, 1, -1, -5, -5
1503612461997,-4, -8, -9, -3, -4, -3, 0, 2
1503612462005,-10, 1, -3, -3, -3, -3, -8, -6
1503612462027,-15, -19, -7, -2, -2, -1, 0, 5
1503612462048,1, -8, -3, 0, 0, 0, 1, 1
1503612462064,7, 15, 4, 1, -2, -3, -3, 3
1503612462087,-13, -10, -3, -1, 0, -5, -8, -9
1503612462109,8, -3, -3, -2, -3, -1, -1, -4
1503612462124,5, -3, -4, -2, -3, 1, -5, -8
1503612462147,-2, -6, -4, -2, 0, 1, 3, 9
1503612462169,-4, -2, -1, 0, 0, -1, 1, -10
1503612462184,2, 1, 1, 1, -2, 1, 5, 5
1503612462207,-6, 5, 1, -2, 2, 3, 5, 4
1503612462232,4, -4, 2, 1, 2, 3, 17, 0
1503612462244,10, 1, 1, 2, -1, -1, -11, -3
1503612462273,2, 2, 6, 1, 0, 0, 1, 14
1503612462275,0, 2, -3, -1, -2, 0, -7, -17
1503612462298,3, 0, -7, -5, -3, -3, -14, -8
1503612462319,1, -12, -4, -2, -2, -1, 3, -50
1503612462336,8, 11, 6, -1, -1, -1, -10, -95
1503612462357,-5, -10, -6, -4, -1, 0, 2, 12
1503612462379,15, 14, 2, 2, -1, -1, 4, 22
1503612462395,-14, -12, -10, -7, -2, 0, 4, 50
1503612462417,-10, -12, -8, -5, -2, -4, -2, -12
1503612462439,-1, -9, -3, 0, 0, 0, 2, 48
1503612462455,9, 4, 4, 3, 0, -2, -3, 1
1503612462477,1, 5, 8, 5, 3, -1, 3, 19
1503612462501,-6, -12, -3, 0, 1, 1, 9, 47
1503612462515,-4, -1, -5, -4, -1, 2, -1, -15
1503612462537,-1, -10, -7, -4, -2, -2, -14, -21
1503612462560,1, -1, 0, 2, -1, -2, 11, -7
1503612462576,0, 3, 2, -1, 1, 3, -5, -7
1503612462597,4, 3, -1, 0, 0, -4, -9, -20
1503612462619,-5, 2, 0, -1, -2, 1, 1, -1
1503612462642,-14, 4, 4, 0, -1, -2, -4, -6
1503612462657,6, 5, 4, -1, 1, 0, 0, -32
1503612462679,-2, 9, 0, 2, -2, 0, -4, -8
1503612462702,7, -12, 0, 2, 0, -3, -3, 19
1503612462717,0, -5, -6, -4, -1, 5, 7, 6
1503612462740,17, 19, 3, 0, -1, -1, 0, 1
1503612462770,-3, 7, 5, 1, 2, 0, 4, 19
1503612462777,-5, -4, -4, -2, 0, -1, 15, -1
1503612462799,-5, 4, 3, 1, 1, -4, -11, -10
1503612462822,-3, -8, -5, -2, -3, -4, 2, 9
1503612462837,-5, -5, -3, -2, -2, -3, -9, 16
1503612462859,0, 0, -2, -1, -1, -1, -10, -4
1503612462882,-1, 0, -3, -2, -1, 0, 1, 8
1503612462897,6, 22, 5, 2, -1, -1, 0, 11
1503612462919,0, -1, -1, -1, 0, 1, -1, -12
1503612462942,-1, -1, 1, 2, 0, 0, 1, -13
1503612462957,12, -10, -2, -3, 0, -2, 4, -13
1503612462979,8, -7, -5, -4, 0, 1, 1, -2
1503612463004,-13, -3, 1, -1, 1, 1, -7, 10
1503612463017,-13, 1, 3, 1, -1, -1, -3, 0
1503612463040,-3, -3, -5, -2, 0, -2, 1, 0
1503612463062,-23, -5, -2, 0, -1, 0, -1, -2
1503612463077,-7, -1, -2, 0, -2, 0, 0, 0
1503612463099,2, -7, 0, -1, -1, -1, 3, 6
1503612463122,29, 16, 1, -1, -1, -2, -2, 0
1503612463138,-1, -8, -2, -1, -1, -1, -5, -17
1503612463159,1, 1, 1, 0, 0, 1, 2, 2
1503612463167,-8, 2, 0, -2, 0, -1, -2, 9
1503612463188,25, -16, -7, -4, -2, -3, -2, 12
1503612463211,-4, -5, -1, -2, 0, 3, 3, -2
1503612463235,0, -3, -3, 2, 0, -1, -2, -9
1503612463250,-16, 5, 4, 0, -1, -1, 0, -6
1503612463273,-5, 0, 0, 0, -1, -3, -1, 3
1503612463295,23, 14, 1, 1, 0, 0, 0, 3
1503612463310,6, -6, -3, -2, -2, -2, -1, -4
1503612463332,-27, -1, -4, -2, -1, 1, 0, -4
1503612463355,-20, 1, -1, -1, -4, -2, -6, -6
1503612463370,-25, -4, 2, 0, 0, -3, -2, -2
1503612463392,6, 1, -1, -2, -2, 1, -2, 5
1503612463415,37, 11, 5, 0, 1, 0, 1, 1
1503612463430,0, -7, -3, -1, 1, 0, 1, -6
1503612463452,-4, 0, 2, -1, 0, -2, 0, -14
1503612463475,2, 3, 1, 0, -1, 1, 0, 8
1503612463490,2, 7, -1, 0, -1, 0, 0, -4
1503612463516,-3, 1, 1, 0, -1, 1, 0, 12
1503612463535,-4, -7, -2, -2, 0, -2, -2, 3
1503612463557,-9, -3, -1, -1, -3, -2, 0, -2
1503612463580,-4, -1, 0, -4, -2, 0, 1, 1
1503612463602,-2, -1, -4, -1, 0, -1, -3, -5
1503612463624,-11, 0, -1, -1, 1, 1, 0, -1
1503612463642,2, 2, -1, -1, 0, 1, -2, -1
1503612463662,3, 0, -1, 1, -1, -3, 0, -1
1503612463684,-11, 1, 0, -1, -1, 0, 1, 1
1503612463699,8, -16, -7, -2, -1, 0, -3, -1
1503612463722,-3, -7, -3, 1, -2, -2, -1, 2
1503612463745,1, 6, 0, -2, -1, -2, 0, -1
1503612463759,1, 2, -1, -4, 0, 0, 0, 1
1503612463782,-4, -1, -1, -3, -1, 0, 0, 0
1503612463804,-9, 11, 4, 3, 0, 2, 1, -2
1503612463819,-15, -3, -4, -2, 0, -1, 0, -4
1503612463835,1, -10, -3, -2, -1, -2, -1, -1
1503612463850,3, -2, -2, -1, 0, -2, 0, -1
1503612463873,-10, -8, -3, -1, -1, 1, -1, -2
1503612463895,-3, 5, 0, -2, 0, 2, -1, -3
1503612463913,8, -6, -5, -2, -2, -3, 1, 4
1503612463932,2, 0, 1, 0, -2, 0, 0, 10
1503612463955,-2, -8, -3, -1, 0, -3, -2, -1
1503612463962,-6, -4, -3, -1, 0, 0, 2, 0
1503612463985,0, -2, -1, -2, -1, 0, -1, 0
1503612463999,2, 3, 1, -1, -2, -2, -1, -1
1503612464022,-4, -1, -3, -2, -1, 1, -2, 1
1503612464045,-4, -1, -1, 1, -1, -2, 0, 0
1503612464060,-6, -3, -1, -1, -1, -4, -4, -2
1503612464080,-1, 2, 1, 1, -1, -1, 3, -3
1503612464090,-4, -7, 3, 0, 1, 0, -4, -7
1503612464113,3, 9, 1, -1, 0, 2, 2, 2
1503612464135,2, 26, 11, 6, -1, 0, 4, 9
1503612464150,0, -5, -4, -4, -3, -2, -2, -2
1503612464172,2, -8, -5, -2, 0, -3, -2, -1
1503612464195,-1, -5, -4, -1, -1, 0, 1, 2
1503612464214,2, -2, -1, -2, -1, -1, -3, -2
1503612464232,-3, -5, -2, -2, 0, 0, -1, -1
1503612464255,-1, -10, -6, -1, -1, -2, 0, 1
1503612464270,-7, -4, -3, -3, -2, -1, -4, -3
1503612464292,7, 11, 4, 1, -1, 1, -2, 2
1503612464319,-11, -12, -8, -2, 0, -2, 2, 2
1503612464330,-5, -4, -1, -1, -1, 0, -2, -4
1503612464353,6, 2, -1, 1, -2, -1, -1, -3
1503612464375,0, -4, -3, -1, -1, 0, 1, 3
1503612464390,-7, 2, 2, 0, 0, -1, -1, -4
1503612464416,-4, -3, 0, 0, 0, -3, -4, -4
1503612464435,4, -2, -3, 0, -3, 1, -2, 2
1503612464450,0, -2, -2, -1, 1, 1, -1, -2
1503612464472,-16, 0, 1, -1, -1, 0, -2, -1
1503612464495,2, 0, -2, -1, 0, 0, 2, 1
1503612464517,12, 1, 0, 1, 0, 0, 0, -1
1503612464532,10, -2, 2, 1, -1, -1, 1, 3
1503612464556,14, 4, -1, -2, -2, -4, -2, 2
1503612464577,-2, -2, -2, 0, 0, -1, -1, -2
1503612464586,1, -6, -2, 0, -1, -1, -2, 0
1503612464607,-9, -8, -3, -2, -1, -1, 0, 2
1503612464622,3, -2, 0, 0, -1, 0, 0, -2
1503612464645,17, 4, -1, -2, -3, -1, 0, 2
1503612464667,2, -1, 1, -1, -1, -2, 0, 3
1503612464675,5, 2, -1, -2, -1, -3, -3, -4
1503612464696,0, 1, -1, -3, 0, -2, 0, -1
1503612464712,-5, 17, 8, 1, -3, 0, -5, -6
1503612464735,-3, -7, -3, -1, -1, 0, 1, 1
1503612464757,4, -1, -1, 0, -1, -1, 0, 1
1503612464772,10, -5, -4, -2, -2, 1, -1, -2
1503612464795,-7, -1, 1, -1, 1, -2, 1, 0
1503612464817,17, -6, -5, -1, -1, 1, 1, 9
1503612464833,-13, -5, -2, -2, -1, 0, -1, 2
1503612464855,-5, 2, 0, 0, 0, -2, -1, -4
1503612464876,1, -1, 0, -2, -1, 0, 1, -3
1503612464893,-6, -1, 0, 0, -3, 0, -2, -4
1503612464918,15, 1, 1, 1, 0, 0, -1, 3
1503612464937,-4, 2, 1, 0, 0, -2, -1, -4
1503612464954,14, 0, -2, -2, -1, -1, -2, 4
1503612464975,-3, 0, 0, 0, -1, -1, -1, -3
1503612464997,-10, 10, 1, 0, 0, 0, 1, 2
1503612465012,5, 3, -1, 0, -1, -3, -2, -4
1503612465027,1, 0, 1, 0, 0, 1, -1, 0
1503612465042,-6, 1, 1, -1, 0, 1, -1, 7
1503612465064,1, 0, -1, 0, 0, -2, -2, -4
1503612465087,-3, 2, 1, -1, -1, -1, 0, -4
1503612465102,-8, -1, 0, -2, 0, 0, -3, -5
1503612465124,3, 2, -1, -1, -1, -1, -1, -1
1503612465147,0, -1, -3, -1, -1, -2, -2, 0
1503612465161,-5, -1, -2, 0, -2, -3, -1, -3
1503612465177,-16, 0, 1, -2, 0, -1, -2, 0
1503612465193,-4, 0, -1, -2, -1, -2, 1, 0
1503612465215,9, 1, 1, -1, 0, 0, 3, 4
1503612465237,4, -2, -3, -2, -2, 0, 4, 19
1503612465253,-10, -3, -1, 0, 1, 0, -4, -9
1503612465275,2, 2, -3, -2, -3, 0, -1, -2
1503612465297,-4, -2, -2, 2, -1, -2, -2, -6
1503612465312,1, 8, 3, 0, -1, -1, 1, -3
1503612465335,15, -6, -4, -3, 1, 0, 0, 5
1503612465357,1, -2, -2, 1, -3, -2, 0, -2
1503612465372,-2, -4, -1, -3, -1, -3, -2, -9
1503612465395,-7, -12, -3, 0, -1, -1, -1, 2
1503612465402,-7, -5, -2, -2, -2, -1, 0, 0
1503612465425,-3, -3, -1, 1, -1, -2, -2, -6
1503612465447,-4, 1, 3, 1, 0, 1, 4, 12
1503612465469,-8, -4, -2, 0, 0, 0, -3, -43
1503612465484,0, 1, 0, 0, -1, -2, 0, 10
1503612465507,-1, -3, -5, -2, -2, 0, -1, 4
1503612465530,8, -5, 3, 0, 1, 1, 2, 7
1503612465544,0, 2, -3, -1, -4, 0, 9, -4
1503612465567,18, 3, 0, 1, -1, -2, 0, 9
1503612465589,-6, -3, -2, -2, 0, 1, -3, 3
1503612465605,0, -1, 0, 0, -1, -2, 2, 4
1503612465627,-2, -2, -4, 1, 3, 0, -4, -5
1503612465648,-11, -3, -2, -2, -2, -2, -7, -30
1503612465665,5, 2, -1, -1, 0, 0, -8, 16
1503612465688,-1, 7, 4, 2, 1, 1, -3, 9
1503612465708,0, 2, -2, 3, 10, -1, 3, 7
1503612465724,-21, -5, -3, -3, -2, 1, 1, -7
1503612465747,-3, -5, -1, -1, 4, -1, 11, 1
1503612465771,10, 8, 1, -2, -4, -1, -4, 0
1503612465784,5, 3, 1, 3, -1, -1, 1, 37
1503612465807,-3, -5, -2, -1, -2, 1, 0, -3
1503612465829,9, 7, 4, 2, -5, -3, -9, -6
1503612465844,-3, -3, -1, -5, -22, 0, -1, 19
1503612465867,-1, -4, 0, 0, 1, -1, -6, -10
1503612465890,-4, 3, 1, -3, 2, -4, -5, -18
1503612465904,-1, -4, -5, -3, -4, -3, 3, -1
1503612465927,-7, -4, 0, -1, 3, -1, 1, -5
1503612465958,8, -2, 1, 1, 5, 0, -3, 9
1503612465979,-3, -4, -1, 0, 1, 0, -3, -4
1503612465994,-14, -5, -2, -1, -2, -2, -5, -48
1503612466016,-2, -4, -1, -2, -4, 0, 7, 15
1503612466039,-11, -1, -3, -2, -2, -3, -1, 0
1503612466055,12, 2, 0, 2, 7, 0, -3, 4
1503612466077,-9, -2, -2, -2, -4, -1, -3, 1
1503612466100,-5, 1, 1, 1, -6, -3, -20, -1
1503612466115,-2, 0, -2, -2, -3, 2, 4, 3
1503612466137,1, 6, 6, 3, 2, 1, -3, -1
1503612466160,5, 0, 2, -1, -1, -3, 9, -2
1503612466175,0, -3, -1, -2, -3, 0, 0, 2
1503612466196,-8, -4, -6, -6, -2, -4, -3, -16
1503612466219,1, -1, -2, -2, 2, -3, 0, 2
1503612466235,0, -1, 1, 1, 0, -1, -3, 3
1503612466256,0, 20, 8, -1, -2, -4, -8, 3
1503612466264,-14, -16, -2, -4, -4, -2, 3, -8
1503612466286,-9, 1, -1, 1, -1, 0, 2, -25
1503612466309,-1, 1, -1, -1, -3, 2, 2, 29
1503612466326,22, 8, 2, -1, 0, -3, 2, 58
1503612466346,2, 12, 3, 0, 3, 1, 6, 42
1503612466369,5, 5, 1, -1, 3, -1, 2, 7
1503612466391,-6, 0, -2, -2, 2, -1, -4, -5
1503612466407,1, 1, 0, 1, 4, -2, -4, -7
1503612466429,-12, -2, 1, -1, -7, -3, -6, -94
1503612466451,15, -1, 1, 0, -3, 0, -7, -7
1503612466461,0, -14, -7, -2, -1, -3, 1, -29
1503612466481,5, -6, -1, -2, -9, 2, 7, 19
1503612466497,8, 3, 7, 4, -12, -11, 6, 25
1503612466519,-6, -11, 0, -3, 6, 5, -13, 8
1503612466541,-9, 27, 6, 6, 7, 1, 3, -1
1503612466549,-13, -7, -1, 0, 3, 7, -8, -24
1503612466571,0, 5, 4, 0, -5, -7, -6, -7
1503612466586,1, 7, 1, -2, -4, -7, 3, 5
1503612466609,-11, 7, 1, 2, 3, 3, 8, 1
1503612466631,1, 5, 0, -3, 0, 1, 6, 6
1503612466646,4, -5, -2, -1, -3, 0, 14, 8
1503612466669,10, 4, 3, 1, 5, 2, 0, 39
1503612466691,0, -4, 0, 3, 2, 0, 2, 6
1503612466707,-4, -1, 0, 2, 2, -1, -12, -14
1503612466729,-5, -2, -2, -4, -3, -1, 2, -6
1503612466751,-18, 0, 1, -1, -4, -5, -5, 4
1503612466767,6, 1, 0, 0, 0, -1, -3, 9
1503612466782,-6, -6, -4, 0, 1, 2, 2, -8
1503612466798,3, 2, -1, -1, -2, 0, -2, -2
1503612466819,0, -3, -2, -2, 1, 5, 16, -33
1503612466842,11, 2, 0, -3, 0, -1, -3, 19
1503612466857,1, -4, -2, -2, -3, -4, -9, 2
1503612466879,-8, 4, 2, 2, -1, 0, -21, -1
1503612466902,-2, -4, 0, -3, -1, -1, 1, -5
1503612466917,4, 2, -1, -2, -5, 0, -1, -3
1503612466941,-5, -3, -3, 0, 4, -1, 8, 19
1503612466964,-12, 0, -1, 1, 5, 4, 9, 3
1503612466977,-8, 3, -1, -2, -4, -3, 0, 0
1503612467000,9, -6, -3, -4, -1, 2, 3, 45
1503612467022,4, 5, 4, 1, 1, -1, -2, 26
1503612467037,20, 4, 1, -2, -4, -2, -10, -11
1503612467059,-5, 1, -4, 0, -1, -2, -2, -24
1503612467081,-9, -3, 0, 0, 2, 2, 9, 0
1503612467089,-5, -6, -2, -1, 0, 0, 2, 20
1503612467111,-5, -8, 0, 0, 2, -1, 3, 3
1503612467126,10, -6, -4, -3, -5, 0, 4, 14
1503612467149,-8, -5, -3, -2, 0, -2, -1, -6
1503612467171,6, -1, 0, 0, 0, -1, -2, 12
1503612467187,-1, 1, 1, 0, -4, -2, -13, 10
1503612467209,0, -6, -4, -3, 1, 0, 8, 5
1503612467234,1, 12, 3, -1, -2, -2, -18, -9
1503612467247,17, 6, 1, -3, -2, -1, 2, 41
1503612467272,-3, 1, -1, 0, 3, 6, 6, 0
1503612467291,2, 0, 1, -1, -1, -1, 8, -15
1503612467313,-6, -5, 2, 0, -2, 1, 2, -1
1503612467329,21, -5, -8, -1, 0, 2, 4, 2
1503612467351,-4, -1, -2, -1, -1, -4, -8, -21
1503612467373,-10, -1, 0, -1, -5, -1, 2, 4
1503612467382,-1, -2, 1, 2, 8, -1, -12, 7
1503612467404,-10, 0, -1, -3, -6, 1, 8, -60
1503612467420,-11, -1, -3, -2, -3, 2, -1, 11
1503612467443,3, -23, -5, -2, -1, 0, 0, 0
1503612467464,3, 15, 6, -1, 1, 0, 0, 9
1503612467479,7, -1, -1, -3, -3, -3, -15, 7
1503612467503,-4, 2, -2, -1, -5, -5, -3, 8
1503612467524,-3, -6, -6, -2, -1, 2, 5, -5
1503612467539,-8, 0, 0, -1, 1, 2, 9, 10
1503612467562,-11, -3, -4, -2, -1, -2, -14, 3
1503612467584,3, -1, 2, 0, 0, -1, -2, 1
1503612467599,3, 5, 2, 2, 1, -1, 3, -1
1503612467621,8, 4, 0, 1, 1, 1, 6, -1
1503612467644,-10, 5, 2, -1, 0, 0, 1, -14
1503612467659,-1, -7, -1, 0, -1, -1, 0, -3
1503612467682,9, 11, 2, 1, -2, 0, 14, 14
1503612467705,-3, 1, 0, -2, -1, 1, -2, 1
1503612467719,-9, -5, -5, -2, -2, -2, -1, 4
1503612467742,7, 1, 5, -1, 1, 1, 2, 7
1503612467771,7, 21, 9, 3, 1, 0, 1, -7
1503612467793,-3, 4, -2, -1, 1, 1, 10, 12
1503612467809,-2, -5, -1, -2, 0, -1, -4, -22
1503612467831,-10, -4, -2, -1, 1, 2, -1, -30
1503612467853,-19, 6, -1, -1, 0, 1, 4, 19
1503612467874,-4, 1, 0, 0, -1, 1, 3, 6
1503612467891,13, -4, 0, -3, -2, -2, -9, 39
1503612467913,7, -3, -2, 1, 1, -2, -2, -3
1503612467929,-4, -18, -5, -2, -4, -3, 0, -7
1503612467951,0, -5, 0, -1, -1, 2, 7, -3
1503612467974,-11, 9, 0, -1, -2, -3, 2, -8
1503612467989,18, 4, -2, -2, 1, 0, 2, -4
1503612468011,-12, -2, -2, 0, -1, 0, 2, 4
1503612468033,1, -4, -2, -1, -2, -1, 1, 5
1503612468049,1, 1, 2, -2, -2, -2, -8, 3
1503612468072,-2, -6, -5, -1, 1, -1, 1, -7
1503612468093,-6, -5, 1, 0, -2, -3, -1, -7
1503612468109,-4, 0, 0, -1, 0, 0, 5, -8
1503612468131,-2, -6, -4, -1, -1, -2, -5, -11
1503612468153,-1, 0, -3, -2, -2, -3, 3, 6
1503612468169,2, 8, 2, 0, 0, -1, -3, -2
1503612468191,-4, -11, -1, 0, -2, -3, -7, -2
1503612468215,-1, 7, 0, -2, -2, -2, -4, -6
1503612468229,-8, -2, -1, -1, 0, 2, 0, -57
1503612468251,0, -4, 0, 0, 1, 0, -5, 17
1503612468274,2, 3, 0, 0, 0, 0, 14, 8
1503612468296,7, 1, -1, 1, 0, -2, -4, 9
1503612468311,3, -9, -4, -1, -1, 1, -10, 2
1503612468334,-7, 0, -1, -3, -1, -3, -3, 13
1503612468356,3, -1, -4, -3, 0, 1, -3, -1
1503612468371,-2, 1, 2, 0, -3, -4, -6, 1
1503612468393,4, 2, 0, -1, -2, -3, -3, 35
1503612468416,5, 9, 3, 0, -1, 0, -3, 0
1503612468431,12, -5, -3, -1, -1, -1, -4, -16
1503612468453,-7, -6, -4, -2, -2, -3, 4, -1
1503612468479,1, -2, -2, 0, 0, -1, -3, -4
1503612468492,-6, 5, 2, 1, 3, 1, -16, -17
1503612468514,1, 19, 9, 2, 0, -1, 0, 6
1503612468537,-6, -4, -2, -1, 2, 4, 6, -4
1503612468552,-1, -11, -6, 0, 0, 2, 9, 0
1503612468577,0, 12, 2, -3, -3, -3, 1, 1
1503612468597,1, -3, -2, -2, -2, -2, 5, -1
1503612468619,3, 4, 1, 0, -2, 1, 0, 2
1503612468635,3, -6, -1, -1, -2, -4, -2, -1
1503612468657,-1, -10, -5, 0, 0, 0, 4, -3
1503612468679,-12, 0, -2, -3, -1, 0, 10, -7
1503612468702,-2, -9, -1, 0, 2, 2, -2, -4
1503612468718,2, 10, 4, 0, -1, -1, 0, -1
1503612468739,-1, -4, -3, -1, -2, -1, -6, 4
1503612468754,5, -13, -5, -2, -2, -3, -25, -3
1503612468779,-1, 4, 1, 1, 2, -3, -2, 1
1503612468799,4, 8, 3, 1, -1, -1, 4, 3
1503612468821,-13, 8, 0, -2, 0, -1, 1, 3
1503612468837,5, -2, -6, -4, -3, -2, 0, 3
1503612468859,10, -26, -7, -2, -1, 1, 10, 4
1503612468875,-1, -2, 3, 3, 1, 2, 11, -6
1503612468897,-2, -8, -2, 3, -1, -3, -7, -1
1503612468920,1, -5, -3, -1, -2, -2, -1, -3
1503612468934,-11, 4, -6, -4, -3, -3, -10, 0
1503612468957,-2, -6, 0, -2, 1, 2, 5, 4
1503612468979,-10, -13, -6, -3, -1, 1, 2, -5
1503612468994,-6, 4, 2, 1, -3, -2, -1, -22
1503612469018,4, 19, 3, 3, 1, 1, 2, 10
1503612469039,-12, -1, 10, 4, 2, 3, 19, 7
1503612469054,0, 5, -4, -4, -1, -2, -5, -5
1503612469079,-3, -6, -6, -4, -1, -4, -9, -23
1503612469099,-1, 2, -3, -3, -2, 0, -3, 1
1503612469118,-4, 12, 4, -1, 0, 0, -5, -4
1503612469137,23, 5, -1, -3, -3, -1, 0, 21
1503612469160,5, 4, -1, -1, -1, 1, 2, -13
1503612469175,-1, -9, 2, 4, 1, -1, -2, 9
1503612469197,2, 16, 8, 1, -1, -2, -3, 19
1503612469220,-4, 0, 2, -3, -2, -3, 2, -6
1503612469235,2, -10, -6, -3, -1, -1, -1, 8
1503612469257,4, -8, -2, -1, 0, 2, 8, -19
1503612469281,3, 2, 2, 3, 0, 0, 16, 36
1503612469294,-8, -7, -3, -2, -3, -3, -15, -4
1503612469321,1, -3, -3, 0, -2, -5, -1, 8
1503612469339,-1, -7, -1, 0, 2, 5, 11, 2
1503612469347,13, 4, 7, 5, 0, -6, -7, -6
1503612469369,1, -1, -5, -3, -3, -3, -12, -11
1503612469384,-6, -1, -8, -5, -3, 0, -1, 1
1503612469406,13, 7, -1, -2, -2, 0, 5, 7
1503612469429,-6, -13, -2, -1, 0, -2, 6, 8
1503612469444,-4, -2, 4, 3, 0, 1, 18, 2
1503612469466,1, 6, 4, 0, 0, -2, -12, -13
1503612469489,2, -4, -2, -3, 0, 2, 1, -12
1503612469504,-6, -8, -1, 0, -1, -2, -1, -5
1503612469526,-1, -2, -2, 1, 0, -1, -4, 3
1503612469549,-1, 6, 4, 4, 0, 0, 0, 24
1503612469564,-1, -10, -7, -5, -1, 1, 4, 0
1503612469587,-6, -5, -5, -2, -2, -1, -4, -5
1503612469618,4, -4, 0, 1, 0, 0, -1, -2
1503612469626,-6, -22, -11, -8, -4, -1, 1, -2
1503612469646,2, -8, -3, -4, -1, -3, 0, -5
1503612469669,3, 11, 1, -1, 1, 1, 1, -5
1503612469684,0, 5, 2, 1, -1, -1, -2, 17
1503612469706,-4, 6, 1, 2, 0, -1, -2, -13
1503612469729,-5, 10, 6, 3, 1, -2, 3, -2
1503612469744,3, -4, -5, -2, -1, 0, -8, -25
1503612469767,7, 5, 7, 1, 2, 0, 0, 20
1503612469789,-12, 12, 2, -2, -1, -3, -4, -2
1503612469804,0, -3, -4, -1, -3, -4, 1, -4
1503612469827,0, 0, 1, -3, -1, 0, 3, 3
1503612469853,-6, -14, -3, 1, -2, 1, 2, 24
1503612469864,2, 3, -4, -4, -3, -1, -2, -9
1503612469880,12, -6, -1, 0, 2, -3, 1, -5
1503612469895,-1, 0, -2, -1, -2, -2, -8, -12
1503612469920,-6, -1, -1, -3, 0, 0, -1, 2
1503612469939,-1, 6, 5, 0, 1, 0, 1, -1
1503612469962,-19, -3, -2, -2, -1, 0, 0, -6
1503612469987,-6, 2, 0, 2, 0, 0, 2, 9
1503612470006,-11, 5, 0, 2, -2, 0, 1, 5
1503612470029,0, -8, -5, -3, -2, -1, 3, -2
1503612470066,-11, 3, 2, 2, 1, 0, -3, -2
1503612470074,12, -3, -3, -1, -1, -2, 2, -1
1503612470097,3, -2, 0, -1, 0, 0, 0, 0
1503612470122,13, 4, -1, -1, 0, 1, 1, 4
1503612470141,7, -1, 0, -1, -2, -2, -5, -2
1503612470157,-6, -10, -2, -1, -1, -2, -2, -4
1503612470179,-5, 1, -4, -2, -1, -2, -1, -3
1503612470202,-4, 4, 1, 3, 1, 1, 2, 5
1503612470217,-2, -1, 0, -1, -2, -2, -1, 2
1503612470240,-6, -2, 1, -2, -1, -2, 0, 1
1503612470262,3, -4, -4, 0, -1, 0, -1, -7
1503612470277,3, 6, 2, 1, 1, 0, 2, -19
1503612470299,7, -5, -3, 0, -1, -2, -3, 11
1503612470322,1, 1, -3, -4, -4, -4, -3, -2
1503612470337,-7, -1, -1, 0, 1, 3, 0, 2
1503612470359,-28, -4, -5, -3, -4, -2, -4, -13
1503612470366,-1, -4, -5, -4, -3, -2, -3, -6
1503612470389,-4, -5, -2, 0, 2, 0, 0, 1
1503612470411,-7, -10, -5, -3, -1, -5, -7, -12
1503612470426,4, -9, -2, -4, -5, -2, -1, 4
1503612470449,-15, -8, -1, 0, -1, 2, -2, 2
1503612470471,2, 3, -1, 2, 0, -2, -5, -5
1503612470479,0, -1, -1, -3, -3, 0, -3, -2
1503612470502,7, -10, -8, 0, 6, 8, 6, 2
1503612470517,-11, -2, -2, -2, -3, -5, -3, -2
1503612470539,14, -4, -4, -3, -2, -2, 0, 2
1503612470547,-8, -6, -3, -1, -1, 0, 0, -3
1503612470569,18, 3, -5, 0, 2, -4, -4, -6
1503612470592,-6, -3, -1, -2, -2, 2, 2, 1
1503612470607,-2, 1, -3, -2, -6, -4, -7, -8
1503612470629,10, 2, 1, 0, 2, -4, -1, 3
1503612470656,-7, 13, 6, 1, 3, -1, 4, 5
1503612470666,-3, -1, 1, 2, 4, 6, 4, -1
1503612470690,6, -2, -1, -1, 0, -1, -1, -4
1503612470711,0, -4, -2, -1, 0, 3, -1, 0
1503612470727,3, 0, 3, 0, -1, 0, 1, 0
1503612470749,6, -3, -5, 0, 1, -1, 1, 4
1503612470772,-8, -1, 1, -4, -5, -3, 1, 2
1503612470786,8, -1, -1, 0, 2, 1, 6, 11
1503612470801,-4, 0, 0, 0, -1, 1, -3, -3
1503612470817,4, 1, 1, 4, 7, 6, 7, 10
1503612470839,-18, 2, 4, 0, 1, 1, 3, -2
1503612470861,32, -6, -11, -5, -6, -3, -1, 1
1503612470877,-6, -2, -1, 2, 0, 2, 5, 11
1503612470900,-1, 6, 5, 1, 0, -4, -5, 0
1503612470921,-1, 3, 1, -1, -2, 1, -7, -12
1503612470937,-3, 1, 0, -3, -8, -5, -5, -1
1503612470960,-7, 3, -1, -1, 4, 0, 3, -2
1503612470981,-3, -2, -1, -6, -8, -2, -3, 0
1503612470998,-15, 0, 1, -1, 4, 1, 1, -2
1503612471019,-2, -5, -1, 0, -1, 1, 3, 6
1503612471042,5, -1, -3, -1, 0, 1, -2, -6
1503612471064,-4, -1, 1, 3, 2, -4, -2, 1
1503612471079,30, 2, -1, 1, 2, 0, 5, 8
1503612471102,-6, 1, -2, -4, -6, -2, 1, -2
1503612471124,-5, -2, 0, -1, -4, 0, -12, 2
1503612471139,9, 9, 4, 3, 2, 2, 7, 7
1503612471161,-11, -8, -5, -3, -4, -4, -5, -8
1503612471184,-12, -5, -2, -2, -6, -1, -29, -8
1503612471199,-5, -1, -1, 0, 2, -1, 5, -3
1503612471221,13, 4, 2, -2, -4, -1, 4, -2
1503612471244,-5, 0, 0, 4, -3, 4, 11, -1
1503612471261,-3, -1, -1, 2, 5, 1, 7, -59
1503612471282,22, 3, 1, 1, 0, -2, -10, 12
1503612471304,-4, -1, -4, -2, -4, -4, 0, 9
1503612471320,-4, 9, 9, 0, 4, -1, -3, 5
1503612471342,-12, -15, -12, -4, -1, -1, 3, 2
1503612471364,-3, -8, -2, -1, 2, 2, 7, 10
1503612471387,-1, -10, -5, -3, -4, 1, -4, 5
1503612471405,-20, 4, -1, -1, 2, -3, -4, -58
1503612471424,2, 1, 1, 1, 3, -4, 3, 19
1503612471440,11, -1, 0, 1, 3, -3, 5, 4
1503612471462,-5, 0, 0, 1, 1, 7, -1, -1
1503612471484,2, 1, -3, -5, -7, -4, -3, 12
1503612471500,-4, 0, -2, -1, 2, 9, 6, 13
1503612471521,-5, -2, 1, 0, 0, 2, 5, 7
1503612471544,0, 1, 0, 1, 3, -3, -7, -6
1503612471559,1, 3, 1, 0, -2, 2, 3, 0
1503612471597,11, -6, -3, -2, -3, -3, -4, 1
1503612471605,-9, -9, -5, -2, -2, -6, -4, 4
1503612471619,-1, 7, 3, -1, -4, -1, 4, 1
1503612471642,-1, -4, -4, -2, 6, 2, -8, 0
1503612471665,11, 2, 5, 7, 0, -2, -3, 5
1503612471679,-1, -2, -5, -4, -7, -8, 1, 16
1503612471704,7, 0, -4, -4, 1, 8, 10, 0
1503612471724,-4, 1, -2, -2, -1, -3, 0, 4
1503612471740,-3, -12, -2, 1, -3, -1, -9, -14
1503612471761,-8, -1, -1, -1, 0, 2, 5, 12
1503612471771,28, 28, 4, -3, -2, -1, -3, -1
1503612471792,4, -10, -9, -3, 1, -6, -2, -35
1503612471813,-15, -16, -4, -3, -1, 1, 2, 4
1503612471829,-8, 1, 6, 0, -1, 2, 6, 24
1503612471851,9, -8, -5, -3, -1, 0, 5, 2
1503612471874,-11, -4, 0, 2, -1, 2, -6, -6
1503612471889,-9, 1, -1, -3, -15, -6, 5, 10
1503612471912,-8, 1, 1, -2, -1, 1, 3, -5
1503612471934,5, 5, 3, 5, 8, 4, 5, 16
1503612471949,2, 15, 5, -1, -1, -3, -2, -1
1503612471972,0, -32, -14, -7, -2, -3, -5, 6
1503612471993,-2, -3, 1, 2, 0, 0, 0, 1
1503612472016,9, -2, -3, -4, 0, -2, 0, -6
1503612472032,-9, 6, -1, 1, 1, -1, 3, -8
1503612472053,-8, -3, -1, -3, -2, -5, -8, -10
1503612472076,-4, 1, -1, 2, 8, 0, -1, 2
1503612472091,8, 9, 4, 2, -2, 3, 0, 5
1503612472113,-2, 3, -4, -3, -3, -1, 7, -4
1503612472138,0, 3, 2, -1, 0, -3, -5, 3
1503612472151,-4, -1, 1, 2, 2, -1, 0, -20
1503612472174,6, -5, -4, -2, -4, 0, -4, 5
1503612472196,22, 0, 1, 2, -4, 3, -2, 70
1503612472211,-12, -8, -2, -3, 2, -2, 2, 6
1503612472234,1, 1, -3, 0, 1, 1, 2, -10
1503612472256,-12, 12, 6, 1, -1, -1, -4, 20
1503612472272,-26, -11, -1, 0, 2, 1, -3, -75
1503612472294,2, 0, -2, 2, -2, 4, 11, -7
1503612472316,1, -4, -2, -4, -2, -5, -6, 4
1503612472331,8, 3, -3, -2, 6, -13, 1, 7
1503612472354,-1, -2, -5, 0, 2, 4, 3, 57
1503612472376,-13, -2, -1, -2, -3, -1, -12, 1
1503612472391,24, 7, 0, -1, -5, -1, -9, -15
1503612472413,-3, -2, -5, -3, -9, 1, 0, -18
1503612472436,3, 2, 3, 0, -2, -1, 0, -13
1503612472451,2, 7, 5, 2, 0, -1, 0, -8
1503612472473,-4, 11, 3, 1, -1, -1, 3, -13
1503612472495,-1, -6, -1, -3, -3, 0, 1, 6
1503612472518,-6, 9, 4, 0, 2, 0, 2, 2
1503612472541,1, -9, -7, -3, -3, 1, 2, -5
1503612472555,2, 0, -1, -1, 0, 1, -7, -7
1503612472572,2, -4, -1, -3, -4, -5, -13, 4
1503612472594,3, -1, -2, 2, -1, 1, -3, -1
1503612472616,-8, -9, -2, 5, 12, 4, 3, -7
1503612472631,-8, 3, -2, -2, -5, -1, 2, 8
1503612472654,29, -1, -1, 1, -1, -3, -1, 2
1503612472676,-3, 4, 2, -1, -1, 1, 1, 8
1503612472691,-15, -3, 1, -2, -2, 0, -1, -9
1503612472714,-8, -12, -5, -3, -1, -1, 4, -3
1503612472738,1, 2, -2, -1, -2, -1, -1, 9
1503612472751,5, 17, 7, 3, 3, 0, 0, -4
1503612472775,-1, -9, -3, -2, -3, -4, -6, 1
1503612472796,2, -3, -4, -1, 0, -2, -4, -5
1503612472811,-1, 2, 1, -2, -2, 0, 0, -8
1503612472834,-9, -3, -1, -2, -1, -1, 4, -4
1503612472856,0, -8, -5, -1, -2, 0, 2, -7
1503612472873,-17, -7, -3, -2, -2, -2, -4, 4
1503612472894,6, 5, -6, -3, -3, -3, -1, 0
1503612472916,16, -10, -6, -2, -2, -1, -4, 14
1503612472940,-4, 2, 2, -1, 0, 1, -4, -2
1503612472954,0, 3, 3, 2, -1, 1, 3, 0
1503612472976,1, 2, 1, 5, 10, 2, 4, -2
1503612472998,17, -2, 0, -2, -4, -3, 1, 3
1503612473014,-9, 0, -2, -1, -2, -1, 0, -4
1503612473036,3, -1, 1, -2, 0, 1, 0, 5
1503612473058,-6, -2, -2, 1, 1, 0, 1, 1
1503612473074,-1, -1, -1, -7, -11, -1, 16, -6
1503612473095,6, 7, -1, -1, -3, -4, -10, 7
1503612473118,-10, -10, -4, 1, 0, -1, -6, -11
1503612473134,-17, 3, 3, -2, 0, -2, 3, -9
1503612473155,-1, 6, 4, 0, -2, -3, -5, -2
1503612473178,4, 1, -2, -1, 3, 0, -3, 9
1503612473194,-7, -4, -1, -2, 0, 0, 1, -56
1503612473216,1, 0, -2, -1, 0, 0, -3, 13
1503612473238,6, -6, -4, 1, -1, -3, -4, 7
1503612473254,-7, -14, -3, -2, -3, -2, 1, 4
1503612473276,1, -2, 3, 0, 5, -1, -7, 1
1503612473298,5, 3, -2, -1, -2, 1, 3, 16
1503612473314,5, -1, 4, 1, 2, 0, -10, 50
1503612473335,5, -10, -6, -3, -1, -1, 3, 1
1503612473358,-7, 3, -1, 1, 1, 0, -1, -11
1503612473375,0, 3, 4, 1, -1, 1, 3, -13
1503612473395,4, 7, -1, -1, -4, -1, -9, -1
1503612473418,-6, -6, -2, 1, 1, -2, 4, 4
1503612473434,-7, 12, 1, 1, -3, -1, -5, -4
1503612473456,-8, -6, -3, -2, 1, 1, 1, -37
1503612473478,-3, -1, 3, 2, -1, 0, 17, 0
1503612473494,2, -4, -7, -4, -2, 0, -11, -6
1503612473516,4, -1, 0, -1, 1, 0, -3, 0
1503612473538,4, 0, -2, 2, 3, -3, 0, 1
1503612473554,2, -8, -2, -1, -2, 2, 3, 7
1503612473578,-4, -18, -5, -3, 0, -1, -3, 1
1503612473598,1, 5, 1, 0, -2, -1, 0, -1
1503612473614,0, 7, 1, 0, 4, 2, 10, 2
1503612473636,-3, -3, -1, -1, -5, -5, -6, -1
1503612473658,6, 11, 2, 1, 0, -1, -8, -2
1503612473674,4, -4, -2, -3, -5, -1, 2, -2
1503612473695,-2, -8, -2, -4, 0, -2, -23, 1
1503612473705,-4, -6, 1, -2, 1, -1, -6, 1
1503612473726,0, -2, -1, 0, -2, -2, 1, -1
1503612473749,1, -9, -3, -2, 0, -1, 5, -1
1503612473764,12, 14, 6, 2, 2, 2, -1, -3
1503612473787,-1, 1, 2, 1, -1, 0, 17, 10
1503612473809,-3, -10, -6, -3, -1, -1, -3, 14
1503612473825,9, 2, 1, 2, -1, 1, -1, -4
1503612473846,-6, 11, 2, -1, 0, -2, -3, -39
1503612473869,5, -11, -3, -1, -1, -1, -5, 6
1503612473891,4, -7, -5, -3, 0, -2, -5, 4
1503612473906,-1, 24, 5, 3, 0, 1, 6, -6
1503612473929,3, -3, 0, -4, -2, -1, 0, -13
1503612473951,0, 5, 0, 0, 0, 1, -3, 4
1503612473966,-5, -9, -4, -2, -1, 0, -3, 2
1503612473989,-9, -18, -6, -3, -1, -3, -1, 7
1503612474013,-1, -3, -3, 0, 1, 2, 12, -6
1503612474026,-1, -3, -4, -2, 0, -3, -10, -1
1503612474049,-3, -11, -2, -2, -2, 1, -1, 36
1503612474071,-15, -5, 4, 2, 0, -1, 4, -1
1503612474086,8, 5, 4, 0, -1, -1, -2, 14
1503612474109,-4, 6, -2, -3, -1, -5, -14, -22
1503612474131,3, 8, 1, 1, 0, 3, -7, 5
1503612474148,1, -5, -5, -3, 0, -2, -1, 1
1503612474169,8, -3, 4, 4, 0, -2, -2, 9
1503612474191,1, -1, -6, -3, -3, -1, 6, -7
1503612474206,-10, 6, -2, -5, -2, 0, 3, -22
1503612474229,2, -8, -2, 0, 1, 1, -2, 30
1503612474252,5, 6, 5, 3, -1, -2, -4, -5
1503612474266,-7, 22, 9, 3, 1, 0, -2, -8
1503612474289,9, 5, 3, -1, 0, -2, -5, -9
1503612474312,-3, -13, -6, -4, -2, -1, -2, 0
1503612474326,2, -12, -6, -2, 0, 2, -10, -29
1503612474350,-8, -1, -9, -6, -4, -3, 7, 16
1503612474371,3, 0, 4, 5, -1, -3, -6, -1
1503612474386,-14, 10, 2, -2, 0, -1, 1, 0
1503612474409,2, -13, -3, -2, 0, 0, -3, -14
1503612474431,-5, -8, -3, -4, -2, -2, 0, 2
1503612474446,3, 3, -3, 0, -1, -2, -6, -33
1503612474468,-4, -9, -5, -5, -3, -4, -7, 2
1503612474492,-2, 4, 5, 4, 1, 2, 3, 1
1503612474506,4, -2, -3, 0, -1, -2, 5, -2
1503612474529,-9, -3, 2, 0, 0, 2, 11, 11
1503612474552,6, -1, -4, -2, 1, -2, -2, -8
1503612474566,-3, -8, -2, 2, -2, -2, -8, -7
1503612474590,7, 11, 0, 0, 0, 1, 1, 9
1503612474611,-12, 10, 4, 0, 2, 2, 0, 11
1503612474627,8, -5, -1, -2, -1, 0, 1, 4
1503612474651,10, 11, 3, 3, 0, 0, -6, 0
1503612474671,1, -2, -3, -3, -1, -3, -17, 2
1503612474686,-8, -11, -5, -4, -2, 0, 0, -6
1503612474709,-3, 4, 0, 0, -1, -2, -1, -4
1503612474731,-3, -9, -4, -3, -1, -3, 0, -7
1503612474746,-1, 2, -1, 2, -1, 1, 5, 8
1503612474769,-7, 6, 2, -1, -1, 0, 6, 1
1503612474799,-20, 1, 0, 0, -1, -2, -7, -4
1503612474822,1, -3, -1, 2, 1, -2, -3, 3
1503612474844,3, 14, 2, -2, -2, -1, -2, -1
1503612474859,-4, -6, -5, -1, 0, -2, -2, -12
1503612474882,1, -3, -3, -1, -1, -3, -3, -10
1503612474904,-12, 1, 3, 3, 1, 2, 2, 13
1503612474921,-1, -10, -3, -3, -1, -3, -6, -4
1503612474942,7, 3, -1, 0, 0, 2, 3, 5
1503612474964,-1, 0, 2, 1, -2, -1, -2, -7
1503612474979,-2, -2, -4, -1, -1, 1, 3, -3
1503612475002,9, -11, -4, -4, -3, 0, 3, 3
1503612475024,5, -13, -8, -4, -2, 0, -3, -1
1503612475039,-20, 0, -3, -1, -1, -3, -4, -5
1503612475068,1, -4, -2, -1, -1, 0, 3, 12
1503612475084,0, -4, -1, 0, -1, -1, -3, 0
1503612475099,7, 3, 2, 0, 0, 1, 1, 7
1503612475114,-14, 1, -1, -2, -1, -2, -8, -16
1503612475129,-28, 0, 2, 1, -1, 0, -3, 2
1503612475151,3, -7, -8, -3, -5, -2, -3, 0
1503612475173,4, -9, -4, -2, 1, 1, 1, 8
1503612475191,-23, -1, 1, -2, -3, 0, -2, -16
1503612475211,11, 5, 1, 1, 1, -1, 0, 2
1503612475221,-5, -8, -5, -2, -2, -2, 3, 2
1503612475242,-2, 20, 7, 2, 1, 0, -4, 5
1503612475264,28, 1, -4, -3, 0, -1, -2, 8
1503612475279,-39, -3, 1, 0, -1, -1, -2, -14
1503612475302,4, -9, -6, -2, -2, 1, -2, -7
1503612475325,8, 18, 9, 1, 1, -1, -2, 0
1503612475340,-14, -17, -3, 2, 0, 0, 3, -1
1503612475363,-1, -3, -4, -1, 0, -1, -3, -13
1503612475384,-3, -2, -2, -1, -1, -2, 1, 0
1503612475399,7, 9, 3, 0, 0, -1, 3, 9
1503612475423,-13, -15, -8, -3, -4, 0, -3, -2
1503612475444,-2, -1, -4, -3, -2, 0, 2, 9
1503612475467,-9, -6, -1, 0, 1, -5, -2, -6
1503612475482,3, -2, 1, -1, -1, -1, 0, 4
1503612475504,-5, -1, -4, -1, -1, -2, 0, -4
1503612475519,15, 3, -2, 0, -3, 0, -1, -1
1503612475542,3, 0, 1, -1, -1, -4, -3, -4
1503612475564,-19, -9, -3, -2, 0, 0, 1, 16
1503612475586,-8, 19, 7, 1, 1, -1, -2, -2
1503612475602,40, 4, 0, 0, -2, 0, -1, -1
1503612475625,-17, -6, -1, 1, 0, 1, 0, -4
1503612475639,10, -1, -3, -2, 0, 1, -1, 0
1503612475668,5, 27, 8, 0, 1, -2, -4, -22
1503612475684,-14, -16, -7, -2, -2, 0, -2, 12
1503612475706,7, -6, -3, -1, 0, 1, -1, 2
1503612475722,0, 6, 6, 1, -2, -2, -1, -3
1503612475744,-3, 0, -2, 0, -1, 0, 1, 1
1503612475767,-2, -7, 1, -3, -1, 0, -1, -1
1503612475782,-8, -5, -6, -1, 1, 1, -3, -1
1503612475804,-19, -12, -7, -1, -1, -2, -2, -3
1503612475827,0, -2, 2, -3, -3, 0, -1, 0
1503612475842,-1, -15, -11, -3, -1, -2, 1, 0
1503612475865,22, 12, 4, -2, -6, -4, -2, -13
1503612475886,-15, 1, -3, -1, -6, -1, 2, -10
1503612475903,3, 1, 0, 1, -2, -2, -3, 1
1503612475924,4, 5, 2, 0, 3, 2, 1, 6
1503612475946,-9, -16, -4, -1, 1, 0, -3, -23
1503612475964,-2, -7, -2, -1, -1, -1, -1, 1
1503612475985,-4, -1, -1, -1, 1, 2, 4, 27
1503612476007,2, 4, 1, 0, -2, -1, 0, -3
1503612476022,7, -4, -4, -1, -1, -1, -2, -1
1503612476044,-12, -10, -1, -2, -2, -3, -4, -10
1503612476066,1, 6, -1, 1, -1, -1, -3, -2
1503612476082,-11, 6, 0, 2, 1, -1, 0, 11
1503612476104,-13, -3, 2, 0, 1, 0, 5, 3
1503612476128,9, 9, -1, -1, -1, -1, -3, -3
1503612476142,4, -3, 0, 0, -1, -1, 4, 2
1503612476164,-5, -4, -2, -2, 1, 2, 1, -4
1503612476186,18, 7, 5, 2, 0, -2, -6, -6
1503612476216,-12, 1, -2, -1, -2, 0, -3, -8
1503612476232,8, 12, 8, -1, -1, -1, -1, 3
1503612476253,6, -1, -2, -2, -1, 0, 0, -14
1503612476276,-9, -3, -3, -2, 0, -1, -3, -2
1503612476291,3, -2, -1, 0, -3, -1, -12, -4
1503612476314,21, 5, 1, 1, 0, 2, 7, 13
1503612476336,3, 2, -2, -1, 0, -2, -2, -1
1503612476352,-8, -8, -4, -4, -2, 2, 4, 4
1503612476374,-7, 2, 2, 0, 1, -2, -3, -7
1503612476397,-6, -1, 2, -1, -2, 0, 0, 9
1503612476411,-2, -4, -2, -2, 0, -2, -3, -6
1503612476434,20, 5, -1, 1, -1, -2, 6, 2
1503612476456,-11, 4, -2, -1, 0, -1, -2, 1
1503612476472,-3, 2, 4, 1, -2, 0, 0, 2
1503612476494,-7, -7, -6, -2, -1, -3, -4, 1
1503612476516,17, 9, 6, 2, -1, -1, 0, 11
1503612476531,-7, -3, 6, 4, 2, 1, 0, -3
1503612476554,0, 2, -7, -1, -1, 0, -1, 0
1503612476576,-5, 0, -5, -5, -1, 0, -2, -8
1503612476591,-11, -6, -5, -1, -1, -1, 1, -5
1503612476614,-10, -6, -3, -2, 0, -2, 0, -4
1503612476636,-8, -6, -1, 0, 0, 0, -3, -12
1503612476658,5, -1, -2, -2, -1, -1, 1, 0
1503612476674,-1, -3, 1, 0, -2, -2, 1, 4
1503612476696,-9, -2, -1, 0, 0, -2, 1, 1
1503612476718,1, 3, 4, -1, -2, 0, -6, -10
1503612476734,-4, -4, -4, -2, 0, -2, 0, 3
1503612476756,-15, -4, -5, -3, -2, -2, 1, -4
1503612476778,-5, 1, -4, 1, 0, -2, -1, -6
1503612476794,-2, 2, 2, -1, -2, -1, -1, 3
1503612476816,12, -2, -1, 0, 0, -1, -1, 14
1503612476838,9, -3, -1, 0, -1, 1, 2, 2
1503612476854,5, -4, 1, -1, 0, -3, -2, -3
1503612476876,3, -2, -4, -5, -2, -1, -11, -17
1503612476900,3, 2, 2, 1, -2, 0, 0, 1
1503612476914,-9, -4, -2, -1, 0, 1, 0, 0
1503612476939,1, 2, -1, -2, -1, -3, 6, 8
1503612476958,18, 3, 1, -2, -4, -5, -8, 5
1503612476974,-1, -2, 0, -2, -1, 2, 2, 3
1503612476996,6, -2, -1, -1, 1, 0, 3, 6
1503612477018,-11, -3, 0, 1, 3, 1, 4, 0
1503612477035,6, 14, 5, 1, 1, 1, 1, 0
1503612477056,-11, -4, -5, -1, -1, -3, -3, -6
1503612477078,4, 1, -1, 1, -3, -1, -2, 5
1503612477094,0, 1, 0, -1, 1, -2, -1, 9
1503612477116,-6, 2, 2, 1, 0, -1, -1, 13
1503612477139,-12, -8, -2, -3, -3, 6, 1, -16
1503612477154,0, -1, -3, -2, 0, 4, 1, -8
1503612477177,5, 12, 3, 0, 0, -2, -7, 11
1503612477198,-14, -8, -3, 1, 1, -2, -1, -14
1503612477214,12, 5, -2, 1, 3, -2, -1, -8
