1503686805348,0, 0, 1, -1, -2, 0, -2, -2
1503686805364,1, 0, 0, -3, -1, -2, 0, 0
1503686805388,0, -5, -3, 1, 0, -1, -2, -3
1503686805412,0, -2, -1, 0, -2, -1, -2, -2
1503686805423,-1, 1, -1, -2, 0, -1, 1, -1
1503686805445,1, -1, -1, -2, 1, -1, 0, 1
1503686805468,0, 1, 1, 0, -1, 1, 0, -2
1503686805483,-2, -1, -1, 0, -1, -1, -1, -1
1503686805498,-4, 0, 0, 0, -2, -3, -3, 2
1503686805513,0, 0, -1, -2, -2, 0, 0, 0
1503686805536,-1, 1, -1, -2, -1, 0, 1, -2
1503686805558,-1, -2, -2, -1, 0, -2, -3, -3
1503686805574,1, -2, 0, -1, 2, 0, -2, -1
1503686805596,1, 1, 0, 0, 0, -1, 1, -2
1503686805617,-1, -1, -2, -3, -2, -3, -2, -1
1503686805626,-1, -3, -4, -1, -1, -1, 0, -3
1503686805649,-1, 1, 0, -2, 2, 0, -1, 0
1503686805664,-3, 1, -2, -4, -2, 0, 0, 0
1503686805679,-1, 0, 1, 1, -1, 0, 0, 0
1503686805693,-2, -3, -3, 1, -1, -3, -2, -2
1503686805716,-2, 0, -3, -2, -3, 0, -1, -1
1503686805724,-1, -4, -3, -3, -2, -1, -1, 1
1503686805746,-2, -1, 0, -1, -2, -1, -2, -2
1503686805768,1, -1, -1, 0, -2, -1, -2, -1
1503686805784,-2, -1, 1, 0, 1, 1, -1, 0
1503686805808,0, -1, -2, -3, 1, -2, 0, -2
1503686805828,-2, 1, 0, -1, -1, -3, -2, 0
1503686805844,-1, 0, -1, 2, -1, 1, 1, -1
1503686805866,0, 0, 1, -2, 0, -2, -2, 1
1503686805889,-2, -2, -2, 0, -1, -2, -1, -2
1503686805904,0, -1, -1, -1, -1, -2, 1, -2
1503686805926,-2, -2, 0, 1, 0, -1, 1, -2
1503686805949,-1, -2, 1, -2, -1, -2, -1, 0
1503686805964,-1, 0, 0, -2, -2, -1, 0, -1
1503686805987,-1, -2, -1, -2, 0, 0, 1, 0
1503686806011,-3, -3, -2, -2, 1, 0, -1, -3
1503686806023,1, -1, 1, -1, -1, 1, 0, 0
1503686806046,0, -2, -1, 0, 0, -2, -1, -2
1503686806068,1, 1, 0, 1, -1, -3, 0, 1
1503686806090,-3, -1, -2, 0, -2, 1, -1, -2
1503686806105,1, -1, 0, -2, 0, -1, -3, 1
1503686806128,-1, 0, 1, 1, -2, -2, 0, -1
1503686806151,-1, -2, -2, -1, -1, -1, -1, 0
1503686806165,-2, 2, 0, 0, -1, 1, 2, -1
1503686806188,-1, 0, 1, 0, 2, 0, -3, -2
1503686806211,-1, 0, 0, -1, -1, 0, -3, -2
1503686806225,-2, -1, -4, -3, -1, 0, -2, -3
1503686806248,-2, -1, -1, -2, -1, -2, 2, -1
1503686806270,2, 1, 2, 1, -3, -1, -1, 0
1503686806287,-1, -3, 0, -1, 0, 0, -1, 1
1503686806308,-1, -1, -3, 0, -1, -1, -1, -1
1503686806330,-2, 4, 2, -1, -2, -2, 0, 0
1503686806346,1, 1, 2, 2, 2, 0, -1, 0
1503686806368,-2, -4, -2, -1, -1, 0, -1, -2
1503686806390,-1, -2, 0, -1, 0, 0, -1, -2
1503686806406,-1, -1, -2, -3, -1, -1, -3, -1
1503686806428,0, 1, 0, 1, -2, 1, 0, 3
1503686806451,-1, -1, -1, -2, -1, -3, -2, 0
1503686806465,-2, -1, -1, 0, 1, -2, -1, -2
1503686806488,0, -1, -4, -3, -2, -2, -2, -2
1503686806513,-2, -2, 0, -1, 1, -1, 1, 0
1503686806525,-1, -1, 0, 1, -2, -1, -1, -2
1503686806548,-1, 1, 0, -1, 0, 0, 0, -1
1503686806556,0, 1, 1, 1, -1, -2, 0, -2
1503686806577,0, -2, -3, -3, -1, -1, -1, -1
1503686806600,-3, -1, -2, -2, -2, -1, -1, -1
1503686806618,1, -3, 1, -1, 1, -2, -3, -3
1503686806637,0, -1, -3, 0, 0, -2, -1, 0
1503686806660,1, -1, 0, -1, -1, 0, 0, -2
1503686806675,-3, -2, -1, 1, -1, -2, 0, 0
1503686806697,0, 1, 1, 0, -1, -1, 0, -1
1503686806720,0, -2, -2, -1, -1, 0, -1, -1
1503686806735,-1, -1, -2, -3, 1, -2, 0, 1
1503686806757,0, 0, -4, -2, -1, -1, -2, 0
1503686806782,-2, 0, 1, 0, -1, -1, -1, -1
1503686806795,-2, -2, 0, 0, -3, -1, 0, 1
1503686806818,0, 1, -1, 0, 2, -1, -3, 0
1503686806840,-1, -1, -3, -1, -2, 0, -1, -2
1503686806862,-1, -2, -1, 0, 1, 1, 0, -2
1503686806877,-3, 1, -1, -2, -1, -2, -1, -2
1503686806900,-1, -1, 2, -1, 0, -1, -2, -1
1503686806917,-2, -2, 0, 0, -2, 0, 3, -5
1503686806931,-2, -3, -1, -2, 0, 0, -3, -2
1503686806945,-1, -1, 0, -1, -2, 0, 1, -1
1503686806968,0, -1, -1, -1, -2, -1, 0, 1
1503686806991,2, 1, 4, 3, 0, 0, 1, 0
1503686807005,-1, -2, -3, 0, -3, -2, -2, -1
1503686807028,-2, 0, -2, -2, 1, 1, 0, 1
1503686807051,-2, 0, -4, -1, -2, -1, 0, -4
1503686807073,-2, -1, -3, -2, 0, -1, -1, -1
1503686807089,-1, 0, 0, -1, 0, -1, 0, 2
1503686807110,-1, 2, 0, 0, 1, 1, -2, -1
1503686807133,0, -2, -2, -1, -3, -3, -2, -1
1503686807148,1, 3, 4, -1, 2, 1, 0, -1
1503686807170,0, -2, -1, 0, 1, -1, -2, 0
1503686807193,-1, -3, -1, -3, -1, -2, -3, -2
1503686807208,0, -2, -2, -1, -1, -2, 0, -1
1503686807230,-2, 0, 3, 1, 0, -1, -1, 0
1503686807254,-1, 2, 5, 0, 1, 0, -1, -1
1503686807260,-3, 1, 0, -1, -1, -2, -3, -3
1503686807282,1, 1, -2, -2, 0, -1, 1, -1
1503686807297,-1, -2, 1, -1, -1, 0, -2, -2
1503686807320,0, -1, 1, 1, -1, -1, 0, 0
1503686807342,0, -1, -1, -1, -1, -3, -1, 0
1503686807361,0, -2, 0, 1, 1, -1, -1, -1
1503686807380,-3, -1, -1, -1, -1, -1, -1, -1
1503686807402,0, -1, -1, -3, -2, 1, 0, 2
1503686807421,-3, -1, 0, 0, -1, -2, -3, -2
1503686807433,0, -1, -2, -1, 0, -2, -4, 0
1503686807448,0, -1, 0, 0, -2, -1, 2, -1
1503686807470,0, -2, 0, -2, -2, 0, 0, -1
1503686807493,-1, 0, 0, 0, -1, 0, -1, 0
1503686807510,-1, -1, -2, -3, 0, 0, -1, -2
1503686807530,-3, -2, 1, -1, -2, -1, 0, 0
1503686807554,0, 0, 0, 0, -2, -2, -2, -1
1503686807569,0, 0, 0, -2, 0, 0, -1, -1
1503686807591,0, -1, 2, 0, 1, 0, -2, 0
1503686807613,-2, -2, -1, -2, -1, -1, 0, -1
1503686807624,-2, -1, 0, 1, -1, -1, -1, 0
1503686807644,-3, 0, -1, -2, -2, -1, -1, -2
1503686807666,-1, -1, -1, -1, 0, 0, 0, 0
1503686807681,2, -1, 1, 1, -1, 0, 2, 0
1503686807703,-1, -2, 0, -2, 0, -4, 0, -2
1503686807726,-2, 0, 0, -2, -2, -1, 0, -2
1503686807741,1, 0, -1, 1, -1, 0, -1, -1
1503686807764,-3, -2, -2, -2, -2, 0, -4, -1
1503686807788,1, -2, 1, -3, 0, 0, 2, -2
1503686807801,-3, -1, -2, -2, -2, -2, -1, 0
1503686807823,0, -1, -1, -1, 0, -3, -3, -1
1503686807846,-1, 1, 0, -1, 1, 1, -1, 0
1503686807861,-1, -1, 2, 0, 0, 1, 1, 1
1503686807883,0, 1, -3, -1, 0, -1, 1, 0
1503686807906,0, 0, 1, -1, -1, -1, 0, -2
1503686807929,-1, -1, 1, -2, -3, -1, -1, -1
1503686807950,1, -2, -2, 0, 0, 0, 1, -1
1503686807973,-2, -1, -1, 0, -1, -1, -1, -1
1503686807995,-3, 0, -1, -1, -2, -2, -2, -2
1503686808010,-2, 1, 1, 1, -2, -1, -2, -3
1503686808033,0, 2, 0, -1, -2, 1, -1, 0
1503686808058,0, -3, -2, -2, 0, 0, 0, -1
1503686808070,0, 0, 2, -2, -2, -2, 0, -1
1503686808093,0, -1, 0, -1, -1, 0, -2, -2
1503686808115,0, 0, -2, 1, 0, -2, -1, 1
1503686808131,-3, 0, -1, 0, 0, -2, 1, -3
1503686808153,-2, -3, 1, -1, 0, 0, 0, 0
1503686808175,-2, 0, -1, -2, -1, -2, -1, -1
1503686808183,-1, -2, -1, -1, 0, -2, -2, -3
1503686808206,0, 0, 2, -2, -1, -1, 0, -2
1503686808221,0, 0, -2, -2, -1, -1, -2, -1
1503686808243,0, -3, -1, 0, 0, -2, 0, 0
1503686808267,-4, -4, -2, -2, -1, -1, 0, -3
1503686808281,-2, 0, 0, -1, -1, -1, 0, 0
1503686808303,-2, -2, -1, -2, -3, 1, -1, -1
1503686808327,-1, -1, 0, 1, 1, 1, -1, 0
1503686808341,-1, 2, -1, 1, 0, -1, -2, -3
1503686808364,-1, -3, -1, -1, -1, -1, -3, 0
1503686808386,0, 1, 1, -2, -3, -1, 1, 1
1503686808401,0, -1, -2, 0, 0, 0, -1, -1
1503686808423,1, -1, 0, -1, 1, 1, -2, 1
1503686808446,-1, -2, 0, -1, 0, -2, -3, 0
1503686808462,1, 1, -1, 0, -1, 0, 0, 0
1503686808475,-2, -3, -3, -1, -1, -1, -2, 0
1503686808490,0, -2, 2, 0, 0, 0, -3, 1
1503686808513,-1, -1, -1, -2, -1, -1, 1, -2
1503686808536,1, 0, 0, -1, -2, -2, -2, -3
1503686808550,-2, -2, -1, 0, 0, -1, 0, -1
1503686808573,-1, 0, 3, 0, 0, -1, -1, -1
1503686808596,2, 0, -1, 1, 0, -1, 1, 1
1503686808610,-2, -1, -1, -1, -1, 0, -1, -1
1503686808641,-1, -1, 1, -2, -2, -1, -1, 0
1503686808665,1, -3, -2, -2, 0, 0, -1, 0
1503686808686,-1, 2, 0, 2, -1, -2, -2, 0
1503686808701,-2, 2, -3, -2, -2, 1, -1, -1
1503686808723,-1, -1, 0, -2, 0, 0, 1, -3
1503686808746,1, -2, -2, -2, -2, -1, -1, 1
1503686808762,1, 0, 2, 1, 0, 0, -1, -1
1503686808783,-1, -2, -2, -3, -1, 0, -1, 0
1503686808806,-2, 0, 1, -1, -1, -1, -1, 0
1503686808831,-1, -3, -3, -1, 0, -1, 0, 0
1503686808850,0, -2, -2, 0, -1, -1, -1, 0
1503686808866,0, 1, 0, -2, -1, -1, 0, -4
1503686808881,0, -1, 2, 1, -1, -1, -3, 0
1503686808903,-1, 1, 0, -1, 0, 0, 0, 0
1503686808926,-1, -3, -1, -2, 1, 2, 0, -1
1503686808948,-1, -1, 0, 1, -1, -2, 1, -1
1503686808964,-1, -2, -2, -1, -3, 0, -1, 1
1503686808986,0, -1, -1, -1, -2, 0, 0, -1
1503686809008,-1, 0, -2, -1, 0, -2, -3, -1
1503686809023,-3, -1, -1, -3, -1, -1, -2, -2
1503686809046,-1, -3, 2, 2, -2, -1, -1, -1
1503686809068,-2, -1, 0, -1, 1, 0, -1, -1
1503686809083,1, -1, 0, 1, -2, 1, -1, 2
1503686809106,0, 0, -3, -2, -1, -1, 0, -2
1503686809128,-2, -1, -3, -1, -1, 0, -2, -2
1503686809143,1, -1, -4, -3, -1, -2, 0, 0
1503686809168,-1, 1, 0, -1, 0, -1, 0, -1
1503686809188,1, 1, 2, 0, 1, -1, 0, -2
1503686809203,-1, 0, -1, 0, -1, -2, -2, -2
1503686809226,-3, -1, -1, -1, 0, 1, -2, -1
1503686809248,0, -1, 0, -1, -3, -1, -1, -1
1503686809266,0, 0, -2, -1, -1, -2, 1, 0
1503686809286,-1, -1, -1, 1, 0, -2, 1, -3
1503686809308,-2, 0, 1, -2, -1, 1, 0, 1
1503686809323,0, 0, 0, -1, -1, 0, 0, -1
1503686809346,0, 1, 1, 0, 1, -2, -2, -1
1503686809369,0, -3, 0, 1, 1, 0, 0, -2
1503686809375,0, -2, 0, -1, -2, -1, 1, -2
1503686809402,-1, -2, -1, -1, -2, -1, -4, 1
1503686809413,1, 1, 1, -1, 1, -1, 0, 0
1503686809438,0, -1, -1, 1, 0, 1, -2, -1
1503686809458,-3, 0, -2, -2, 0, -1, -1, 0
1503686809473,0, 0, 1, 0, 0, -1, -2, 1
1503686809495,0, 0, -2, -2, -2, -2, -1, -2
1503686809518,-2, -2, -1, 2, -1, 0, 2, 0
1503686809535,-1, 0, 0, -1, 0, -2, -1, 0
1503686809555,1, -1, 1, 1, -1, 2, -1, -3
1503686809564,-1, -4, -2, -1, -3, -1, -3, 1
1503686809586,0, 0, 3, -2, -1, -2, 1, 0
1503686809608,-1, -1, 0, 0, -1, 0, 0, 0
1503686809624,0, 0, 0, -2, -2, -1, 0, 0
1503686809646,-2, -3, -3, -1, -2, -1, 0, -4
1503686809669,-1, -1, 3, -1, 0, 1, -2, -1
1503686809684,0, 0, 0, 0, 0, -2, -2, 0
1503686809706,0, -1, 0, -1, 0, -3, -1, -1
1503686809728,-1, -1, -1, 0, -2, -1, -1, 3
1503686809737,-1, -1, -2, -2, 0, -1, -1, -3
1503686809759,-1, -1, 0, -2, 1, 1, 1, 0
1503686809773,-1, 1, 0, 1, -1, 0, -1, -2
1503686809795,-1, -2, 0, -1, -1, -2, -3, -1
1503686809818,-1, -1, -3, -1, -1, 1, -1, -1
1503686809840,-2, -1, 2, -1, -2, -1, 1, 0
1503686809855,0, -2, -2, 0, 0, -1, 0, -1
1503686809878,-1, -2, -1, 0, -2, -1, -1, 0
1503686809900,-2, -3, 2, -2, -1, -1, 0, -1
1503686809915,1, -3, -1, -1, 1, -1, -2, -1
1503686809938,1, -1, -3, 0, 0, 1, -1, -3
1503686809960,-3, -3, -1, -2, -1, -1, -2, -2
1503686809975,-1, 0, -1, 1, -1, 0, -2, -1
1503686809998,0, -1, -2, -4, -3, -2, 0, 0
1503686810020,-2, 0, 0, 0, -2, -1, -1, -2
1503686810038,0, 0, -1, 0, -2, -2, 0, -1
1503686810058,-1, -1, -1, 0, -3, 1, 0, 2
1503686810080,0, -1, 0, 0, 2, 0, -2, -1
1503686810104,4, 0, 2, -3, -1, 0, 0, 1
1503686810124,0, 2, 1, 2, 0, 1, 0, 1
1503686810126,-3, -3, -2, -2, -3, 0, -2, -3
1503686810148,1, 2, 0, 1, -1, -1, 1, 0
1503686810172,-1, 0, 1, -1, 1, -1, -3, -1
1503686810186,-1, 1, 1, 1, 1, 2, 1, 0
1503686810215,-4, -4, -3, -4, -5, -4, -3, -4
1503686810230,2, -1, -2, -4, -4, 0, -2, 1
1503686810246,-7, -3, -1, -3, -1, 0, -1, -5
1503686810268,6, 4, 4, 4, 0, -1, -2, -1
1503686810290,-1, -2, -3, -4, -2, -1, -2, -1
1503686810307,-3, -1, -3, -6, -2, -2, -2, -2
1503686810328,0, -4, -3, -2, -4, 0, 2, -2
1503686810350,-2, -4, -3, -1, -4, -4, -1, -2
1503686810366,1, 1, 2, 2, 0, -2, 0, -1
1503686810388,2, 5, 4, 6, 6, -3, -5, -1
1503686810410,-1, -4, -7, -7, -3, 0, 1, 0
1503686810426,1, 0, -1, -1, 3, 2, 4, 3
1503686810450,2, -1, 5, 4, 4, 0, 0, 4
1503686810470,-3, -2, -2, -4, -4, -3, -3, -1
1503686810486,5, 3, 4, 16, 7, 3, 2, 3
1503686810515,-4, -1, 2, -4, -6, -1, -2, -1
1503686810532,1, -5, -7, -1, 1, -1, -3, -1
1503686810546,-2, 1, -4, -4, -5, -6, -4, 0
1503686810568,-6, -4, -7, -11, -3, -2, -1, -1
1503686810594,-1, -7, -5, -3, -2, 1, 2, -1
1503686810608,-4, -17, -23, -10, -3, -1, -3, -1
1503686810620,2, 5, 5, -1, -2, -1, 1, -2
1503686810636,-1, -9, -10, -9, -5, -6, -4, -2
1503686810658,-4, -3, -9, -7, -3, -2, 0, -1
1503686810680,-2, 6, 4, 7, 1, 0, -1, -1
1503686810695,-5, -18, -11, -4, -2, -1, -3, -3
1503686810718,7, 19, 23, 9, 1, 2, 1, 2
1503686810742,-8, -19, -12, -4, -4, -2, -2, 0
1503686810762,9, 26, 28, 14, 5, 4, 5, 1
1503686810779,2, 5, 1, 3, -1, -2, -3, -2
1503686810800,-3, 3, 0, -1, -6, -9, -2, -2
1503686810822,-3, -15, -17, -10, -1, 3, 0, 0
1503686810838,-1, -11, 1, 2, 5, 1, 1, -1
1503686810860,0, 13, 10, -3, 2, 3, -3, -4
1503686810882,5, -1, -5, -2, -4, 3, 3, 5
1503686810898,9, 11, 7, 2, 21, 28, 1, 5
1503686810920,-8, 30, 19, 14, -32, -36, -8, -26
1503686810946,7, 1, 7, -13, -92, -91, -32, 9
1503686810958,-32, -119, -121, -82, -65, -61, -50, -33
1503686810981,8, -22, -43, 8, -10, -28, -18, 8
1503686811002,9, 41, 15, -9, -1, -5, 0, -16
1503686811018,-10, -8, 6, -1, -3, -2, 4, 1
1503686811040,14, 58, 51, 23, 41, 41, 26, 13
1503686811062,-3, -3, 16, 14, 49, 50, 24, 5
1503686811078,2, -5, 4, 15, 32, 30, 18, 15
1503686811100,-5, -14, -9, -8, -1, 8, -1, -8
1503686811122,-2, 8, 10, 5, 4, 7, 6, 3
1503686811146,-1, 5, 6, 5, 12, 8, 4, 0
1503686811160,1, 1, 3, 5, 9, 9, 5, 3
1503686811183,0, 0, 3, 1, 4, 5, 2, 4
1503686811190,1, 5, 1, 1, -5, -5, -1, -2
1503686811216,-1, 1, 1, -2, 2, 0, -1, 0
1503686811228,-3, -3, -4, -13, -9, -7, -5, -5
1503686811252,1, 2, 0, 1, 2, 3, -1, 0
1503686811273,3, 9, 9, 10, 4, 1, 1, 1
1503686811283,0, 5, 5, 15, 23, 6, 2, 0
1503686811302,1, 5, 7, 28, 28, 8, 0, 1
1503686811310,2, -2, -6, -16, -14, -6, -4, -1
1503686811333,-4, -6, -5, -8, -9, -4, 1, -2
1503686811349,-12, -9, -6, -4, -5, -2, -3, -7
1503686811370,8, 2, -2, -3, -3, -4, -1, 6
1503686811387,3, 1, 6, 19, 16, 7, 2, 3
1503686811407,3, 3, 0, -7, -10, -4, -1, 0
1503686811423,5, -1, -7, -16, -12, -5, -1, 2
1503686811438,-18, -9, -2, -2, -1, -3, -4, -13
1503686811460,0, -3, -4, -20, -24, -10, -6, 0
1503686811484,-3, 6, 1, -1, -3, 0, 1, -1
1503686811498,3, -4, -7, 2, 2, -1, -1, -2
1503686811520,6, 8, 11, 16, 15, 4, 2, 4
1503686811542,-5, -6, -5, 2, 2, 1, -2, -4
1503686811551,5, 3, 4, 1, 0, 0, 0, 4
1503686811573,-10, -7, -9, -5, -1, -1, -1, -8
1503686811592,10, 11, 10, 2, 0, -1, -1, -1
1503686811611,0, 4, 3, 4, 2, -1, -1, 0
1503686811633,10, 0, -1, -2, -6, 0, 1, 8
1503686811652,8, 3, -1, 0, 1, 0, 3, 8
1503686811678,-3, -7, -3, -2, 0, -1, -1, -8
1503686811693,-7, -7, -7, -3, 1, -2, -2, -3
1503686811716,-18, -13, -7, -5, -1, -5, -7, -12
1503686811731,-13, -8, -2, -5, -5, -2, -4, -2
1503686811754,10, 27, 41, 23, 13, 10, 9, 12
1503686811775,-2, -6, -14, -15, -8, -4, -3, -4
1503686811790,2, -1, -3, 2, 4, 2, 2, 3
1503686811813,-6, -15, -20, -10, -5, -4, -4, -5
1503686811835,1, -4, -1, 2, 2, 0, 1, -1
1503686811852,-4, -2, -1, -1, -2, -1, 0, -11
1503686811873,-2, 1, -1, -4, -2, -3, -1, 6
1503686811895,3, 2, 0, -1, 0, -1, -5, -12
1503686811910,-2, 4, 3, 1, -2, -2, -1, 5
1503686811933,-1, 1, 2, 2, 3, -1, -2, 1
1503686811956,-4, -6, -7, -5, -3, -2, -2, -11
1503686811971,-1, -2, -3, -2, -2, -1, 1, 2
1503686811994,-1, -1, 0, 0, -1, -1, 2, 1
1503686812015,-1, -6, -5, -3, -2, -2, -4, 1
1503686812030,-1, -6, -11, -8, -6, -2, -2, 1
1503686812055,0, -5, -7, -1, -1, 1, 1, -7
1503686812075,11, 17, 17, 12, 4, 5, 6, 4
1503686812090,2, -8, -8, -4, -3, -2, -1, 4
1503686812104,-4, -8, -3, -2, -1, -1, -3, -4
1503686812120,-6, -8, -15, -15, -5, -4, -4, -5
1503686812142,5, -3, -2, 1, -1, 0, 6, 10
1503686812165,3, 5, 3, 1, -1, -1, 0, 6
1503686812180,-1, 3, 4, 6, 3, 2, -2, -6
1503686812202,-2, -1, 2, 3, 2, 0, 2, -1
1503686812225,1, 2, -2, -2, -3, -2, -2, -2
1503686812240,-9, -11, -15, -9, -5, -3, -4, -4
1503686812264,-3, -2, 0, -3, -4, -3, -5, -6
1503686812288,2, 5, 6, -2, 0, -1, 6, 19
1503686812300,6, 7, 12, 10, 6, 3, 2, -2
1503686812326,-2, 10, 1, 1, -1, -1, -2, -12
1503686812344,4, -2, -5, -2, -1, -1, -1, 2
1503686812355,4, 2, -6, -2, -1, 1, 3, 15
1503686812375,-1, -3, -2, -2, -1, 0, 0, -3
1503686812392,0, -3, 0, 2, -2, 1, 2, 0
1503686812405,-4, -4, -3, 0, 1, 0, -1, -5
1503686812421,1, -3, -4, -1, -2, 0, -2, 0
1503686812442,-2, 1, 3, 1, -1, -2, -1, -2
1503686812464,-1, -3, 0, 5, 3, 2, -1, 1
1503686812473,2, 5, 4, 0, 2, 1, 0, 0
1503686812496,0, -3, -3, -2, -1, -1, 0, -2
1503686812510,-4, -4, -3, -3, -3, -2, -2, -3
1503686812533,-1, 15, 15, 4, 0, 0, -3, -7
1503686812556,-3, -13, -10, -2, 2, 0, 0, 2
1503686812570,-5, -15, -15, -9, -7, -5, -6, -5
1503686812594,0, -1, 0, 0, -5, -1, -2, -1
1503686812615,0, -4, -5, -1, -1, 0, 1, -1
1503686812638,1, -2, -1, 1, -1, -3, -1, 0
1503686812658,3, 8, 7, 4, 1, 0, 3, 3
1503686812675,-5, 2, 2, -2, -1, 0, -3, -5
1503686812698,-1, -3, -3, -2, 1, 1, 2, -4
1503686812713,5, 3, 3, 1, 2, 1, -1, 4
1503686812735,0, -5, -3, -6, -6, -3, -2, 0
1503686812758,-5, -6, -4, 0, 0, 0, -1, -3
1503686812773,33, 34, 30, 13, 3, 4, 8, 29
1503686812797,-10, -8, -7, -4, 1, -1, 1, -8
1503686812818,0, -4, -2, 0, 1, -2, -1, -9
1503686812833,-3, -2, -4, 1, 3, 0, 0, -5
1503686812861,-7, -6, -7, -6, -6, -3, -4, -6
1503686812878,-6, -4, 0, -1, -4, -2, -3, -1
1503686812893,-2, 1, -2, -4, -2, -2, 1, 1
1503686812916,-4, -3, -3, -3, 0, -1, -2, -1
1503686812938,-6, -4, 1, 0, -5, -2, -7, -8
1503686812954,-2, -2, 1, 0, 1, -1, -2, 0
1503686812975,-5, 0, 2, 2, 2, 0, 0, -2
1503686812998,3, -2, -3, -5, -4, 1, 3, 6
1503686813013,-3, 2, 1, 1, -2, -2, -3, -4
1503686813035,4, 14, 15, 7, 5, 3, 1, 0
1503686813068,-9, -24, -25, -12, -5, -6, -5, -3
1503686813073,-4, -7, -6, -1, -1, 1, -1, -2
1503686813095,3, -2, -1, -3, 0, -4, 1, 2
1503686813118,3, 6, 6, 6, 3, 3, 1, 4
1503686813133,1, 4, 1, -1, 0, 1, -1, -2
1503686813155,17, 2, -4, -4, -3, 4, 15, 29
1503686813178,-8, -2, -2, -1, 0, -3, -6, -13
1503686813193,-9, -12, -14, -6, -4, -5, -11, -20
1503686813215,-4, -4, -2, -1, 0, -2, 2, -3
1503686813238,-12, -18, -7, -3, -1, -4, -5, -8
1503686813253,4, 4, 2, 0, -1, 1, 6, 8
1503686813275,-4, 1, 3, 1, 1, 1, -5, -17
1503686813298,2, 4, 1, 0, 1, -1, -2, 1
1503686813313,-3, 3, 4, 1, 0, -1, -2, -2
1503686813336,3, 0, 0, 3, 2, 1, 3, 3
1503686813358,-1, -1, 3, 1, -1, -4, -4, 3
1503686813373,3, -5, 1, -2, -3, -2, -4, -1
1503686813397,2, 4, 2, 2, 0, 0, 3, 1
1503686813418,-1, 1, -1, -1, -3, -2, -4, -3
1503686813433,1, 0, -3, -4, -3, -3, -7, -1
1503686813455,-1, 1, 1, 0, -2, 1, 0, -3
1503686813478,0, -5, -7, -4, -2, -2, 0, 11
1503686813495,0, 6, 5, 1, -1, 0, -1, -6
1503686813515,-6, -6, -9, -5, -6, -3, -3, 0
1503686813538,3, 3, 1, 1, 2, 1, 8, 4
1503686813562,5, 24, 18, 6, 3, 1, 0, 0
1503686813575,-5, -11, -9, -5, -2, -2, -4, -6
1503686813598,2, 2, 1, 1, 1, 3, 2, 0
1503686813620,-5, 0, 1, 1, 0, -3, -8, -9
1503686813635,0, -2, 0, -2, 0, 0, -2, -3
1503686813658,-9, -11, -4, -5, -4, -2, 0, -4
1503686813680,1, -1, 0, -2, -1, 1, 3, 9
1503686813697,0, -4, 1, -2, 0, -1, 1, 8
1503686813718,-4, -5, -9, 0, -1, -1, -3, -6
1503686813740,-1, -3, -5, 0, 1, 3, 3, -3
1503686813755,-1, 0, 0, 0, 1, -2, 1, -2
1503686813778,2, 2, 1, 1, 0, 0, -2, -4
1503686813801,-1, 4, 4, 1, 0, -1, 1, 3
1503686813815,1, 1, 2, 2, -2, -1, -5, 3
1503686813839,1, 0, 4, 2, 1, 2, -1, 1
1503686813860,4, 6, 1, 1, 0, 0, 3, -3
1503686813875,-2, -5, -6, -4, -3, 0, 0, 2
1503686813898,-4, -5, -2, -2, -2, -3, -4, -2
1503686813920,0, 3, 2, -1, -3, 1, 0, -5
1503686813936,0, -1, -2, -2, -2, -3, 1, 0
1503686813959,2, -3, -3, -3, -1, -2, -1, -2
1503686813971,-3, 0, -2, 0, 0, -4, -3, -17
1503686813988,1, -3, -2, -2, -1, 0, 1, 6
1503686814011,1, 0, -1, 0, 0, 0, 2, 1
1503686814026,-2, 1, 3, 2, -1, 0, -1, -5
1503686814049,-3, -6, -5, -3, -5, -3, -1, -2
1503686814072,-2, -4, -4, -1, 1, 0, 1, -5
1503686814086,-7, -4, -5, -3, -3, -1, -3, -1
1503686814110,8, 0, -2, -2, 1, 2, 2, 18
1503686814138,2, 2, 7, 3, 0, 2, 4, 5
1503686814168,-3, -1, 0, 1, 1, 0, -2, -7
1503686814175,1, 12, 12, 6, 1, 0, -3, 0
1503686814199,0, 9, 4, 2, 2, -1, 1, 6
1503686814220,-7, -11, -11, -11, -4, -3, -3, -18
1503686814235,-1, -5, -8, -5, 0, -2, -4, -4
1503686814258,-1, 0, -1, 4, 2, 0, -2, -18
1503686814280,0, -9, -10, -9, -4, -4, 1, 13
1503686814295,0, -7, -4, -8, -4, 2, 7, 10
1503686814317,4, 3, 5, 2, 0, 1, 7, 21
1503686814341,1, 7, 8, 3, 3, -1, -4, -1
1503686814355,-2, -5, -5, -4, -2, -1, -3, 0
1503686814378,0, 2, 0, 3, 1, -3, -5, -9
1503686814401,-1, 0, -1, -1, -3, 0, 0, -1
1503686814415,-4, -6, -6, -8, -4, -3, -3, -1
1503686814438,1, -1, -1, 0, -4, -2, -2, -2
1503686814461,0, 0, 4, 6, 1, -1, 0, 0
1503686814476,0, 0, -1, 0, 1, -1, -5, -2
1503686814498,-2, -3, 1, 2, 0, 0, 0, -3
1503686814520,-1, 1, 0, -2, -2, 2, 1, -3
1503686814544,0, -2, -4, -3, -1, -1, 0, -3
1503686814562,-2, -1, 1, 0, 0, -1, -3, -3
1503686814580,-1, -3, -3, -1, -1, 0, 0, 4
1503686814603,-2, 1, -1, -2, 0, -1, 0, -2
1503686814618,-4, -4, -2, -2, -1, -3, -5, -5
1503686814641,0, 0, 1, -1, -1, 0, 2, 8
1503686814663,1, 2, 0, 1, -1, -1, 1, 3
1503686814678,-1, -4, -2, -1, -1, -1, -1, -2
1503686814700,3, 0, 3, 0, -2, 0, -1, 2
1503686814723,1, 2, 0, 3, 2, 0, 0, -2
1503686814738,-2, -2, -1, -2, -2, -1, 1, -5
1503686814760,1, -3, -3, -4, -2, 0, -4, -3
1503686814783,-3, -5, -6, -6, -5, -2, -1, 0
1503686814798,0, -2, -2, -2, -1, -1, 0, 0
1503686814820,0, 0, -2, -1, 0, -1, 1, 0
1503686814843,-1, -1, 0, -1, -1, -1, 0, 2
1503686814858,-1, -3, -3, -4, -2, -2, -2, -4
1503686814881,1, 1, 1, 1, 1, -1, 1, 0
1503686814906,0, 0, 0, 0, -1, -2, -2, -3
1503686814918,-5, -9, -9, -3, -3, -1, -2, -5
1503686814940,-1, -1, 2, 2, 1, 1, -1, 0
1503686814963,0, 7, 8, 4, 2, 1, 0, 1
1503686814978,-1, -2, 0, -2, -1, -1, -2, -3
1503686815000,1, 1, 0, 2, 3, -1, 0, 2
1503686815023,1, 0, 1, -2, 1, 1, -1, 0
1503686815041,0, 2, 0, 0, 0, 1, 0, 1
1503686815060,-3, -2, 2, 0, -3, -2, -2, -1
1503686815083,-1, -2, -3, 1, 0, 1, -1, -1
1503686815098,-3, 0, -1, -1, -2, -2, 0, -1
1503686815120,1, -2, -3, -3, -2, -1, -1, 1
1503686815143,1, -3, -3, -3, -4, 0, 0, 2
1503686815158,0, 4, 2, 1, 1, 0, 2, 0
1503686815180,-1, 5, 2, 3, 0, -1, -3, -1
1503686815203,-1, -1, -2, -4, -3, 0, 0, -3
1503686815219,2, 0, -1, 0, 0, 0, 0, 1
1503686815241,2, -1, -2, -3, -2, 0, 0, -1
1503686815263,-5, -4, 1, -2, 0, 1, -2, -1
1503686815278,-2, -2, -5, -3, -2, -5, -2, -2
1503686815300,1, -2, -1, -1, -1, 1, 1, -1
1503686815323,-3, -1, 2, 1, -1, 0, -2, -1
1503686815338,-2, 2, 3, -1, 1, 1, 1, -1
1503686815360,5, 5, 2, 3, 0, -1, -2, 1
1503686815383,-3, -5, 0, 1, 0, 0, 2, 0
1503686815398,-2, -4, 0, 0, -1, 0, 1, -1
1503686815427,-1, -1, -3, 0, -2, -1, -2, 1
1503686815443,-2, -2, 0, -2, -1, -3, -3, -7
1503686815466,4, 8, 8, 4, 2, 2, 3, 5
1503686815480,-1, -5, -4, -2, -3, -2, -1, -1
1503686815503,-3, -1, -1, 2, 2, 1, -1, 0
1503686815524,-1, -4, -1, -2, 1, 0, 0, -1
1503686815540,1, -1, -4, -5, -3, -3, -3, -2
1503686815563,-4, -3, -1, -3, -4, -2, -4, -3
1503686815571,-1, -4, -2, -2, 0, -3, 0, 0
1503686815593,-6, -6, -3, -3, -3, 0, -3, -7
1503686815615,2, -2, -3, -2, -1, -1, -1, -1
1503686815631,-1, -1, 2, 3, -1, 0, 0, -1
1503686815653,-2, -1, -3, -3, 0, -3, -5, -3
1503686815677,-1, 0, 0, 0, 0, 0, 0, 2
1503686815691,-1, 3, 1, 2, 0, 0, -3, -10
1503686815713,1, 2, -1, 0, 1, -1, 0, -2
1503686815735,-3, -5, -4, -3, -1, 0, -2, -2
1503686815751,-1, -1, -1, -1, 0, -1, 2, 4
1503686815773,2, 1, 0, 0, -2, -2, 0, 1
1503686815795,0, -5, -2, -3, -1, 0, 0, 5
1503686815813,6, -1, -3, -2, -2, 0, 6, 16
1503686815832,-6, -1, -2, 0, -1, 1, -4, -11
1503686815855,-1, 1, 3, 3, -1, -3, -2, -1
1503686815870,0, -1, 2, -2, -2, -2, 0, 0
1503686815892,10, 1, -1, -2, 0, -1, 1, 13
1503686815900,-3, -2, -3, 0, -3, -3, -1, -2
1503686815922,-1, 0, 5, 0, 0, 1, 0, 0
1503686815946,-3, -2, -2, -2, -2, -1, -1, -2
1503686815960,1, 0, -3, -1, 0, -2, -3, 1
1503686815983,1, -3, -2, 1, 2, 2, -1, -1
1503686816004,-8, -4, -2, 0, -1, -2, -1, -2
1503686816020,3, 1, -2, 1, 0, -1, 0, -3
1503686816043,-3, -1, 2, -1, -2, -3, -1, -2
1503686816064,-3, -3, -2, 0, -2, 0, -2, -2
1503686816082,-2, 0, 0, -5, -1, 0, 0, 1
1503686816103,8, 1, 1, 1, 0, 3, 1, 2
1503686816124,-9, -7, -7, -8, -5, -4, -3, -2
1503686816133,1, 3, -4, -2, -1, -3, -2, -1
1503686816156,-4, -6, -3, -3, -3, -2, -5, -5
1503686816171,-1, -7, -13, -6, -2, 2, 3, 23
1503686816193,6, 1, -1, 1, 0, 1, 1, -6
1503686816216,-6, 9, 6, 4, -1, -3, -10, -22
1503686816231,-7, 1, 1, 0, -3, -3, -5, -17
1503686816253,-2, -6, -7, -4, -3, -2, -1, -1
1503686816275,6, 1, 5, 3, 3, 4, 12, 30
1503686816284,0, 1, 5, 4, 2, -1, -4, -4
1503686816304,-6, -7, -5, -3, -4, 0, -1, -6
1503686816320,-4, -2, 2, 1, 0, -3, -6, -14
1503686816343,3, 0, -2, -2, -2, -1, 3, 20
1503686816364,-1, 0, -2, -1, 1, 0, -3, -4
1503686816387,-2, -1, -1, -2, -2, -1, 0, -2
1503686816402,0, 5, 3, 3, 1, -2, 0, -3
1503686816424,0, -2, 1, -1, -3, 0, -4, -2
1503686816450,-2, 0, 1, 5, 0, -1, 0, -2
1503686816462,-5, -11, -7, -3, -1, -2, 0, 3
1503686816492,-2, -3, 3, -2, -2, -2, -8, -6
1503686816507,0, -17, -19, -6, -1, 2, 3, 9
1503686816523,5, -7, -5, -9, -4, 0, 7, 9
1503686816544,-5, 4, -1, -3, 1, -1, 1, -9
1503686816567,9, 12, 6, 3, -1, 0, -4, -2
1503686816585,-3, -2, -2, -4, -4, -5, -7, -8
1503686816605,-1, 1, 2, 2, -1, 1, 0, -1
1503686816627,1, 10, 7, 3, 3, 0, -6, -15
1503686816643,1, 7, 4, 4, 0, -1, 3, 20
1503686816665,-10, -8, -6, -2, -2, -2, -7, -16
1503686816687,3, 0, 3, -2, -1, 0, 2, -2
1503686816702,0, -3, 1, 4, 0, -1, 0, -3
1503686816724,6, 20, 11, 2, 0, 1, 3, 8
1503686816747,2, -8, -2, -1, 1, -1, -4, -2
1503686816763,-23, -10, -8, -4, -2, -3, -6, -20
1503686816786,1, 1, 2, 3, -1, 1, 1, 0
1503686816807,3, -5, -5, -4, -3, 1, 2, 7
1503686816823,4, 5, 3, 1, 2, 0, 1, 6
1503686816845,-2, -4, -2, -2, -1, -3, -3, 3
1503686816867,2, 5, 2, 4, 0, 1, 1, -9
1503686816889,1, -2, -4, -4, -2, -2, -2, -5
1503686816905,-6, -3, -1, 2, 0, 0, -3, -5
1503686816930,1, -2, -4, -5, -4, -4, -3, -4
1503686816943,4, -3, -3, -3, 1, 1, 6, 9
1503686816965,5, 2, 2, -2, -1, -1, -1, 1
1503686816987,-7, -5, -4, -1, -2, -1, -2, -8
1503686817003,1, 5, 5, 3, 1, -1, -3, 2
1503686817025,1, 1, 0, 1, 1, 1, 3, 5
1503686817047,1, 3, 5, 0, 1, -1, 0, 3
1503686817062,-1, 1, -3, 0, -2, -2, 0, 2
1503686817087,-5, -8, -6, -5, -2, 0, -3, -1
1503686817107,0, -3, -2, -2, -3, -1, -2, 1
1503686817123,-3, -1, 1, 0, 0, 1, 4, 1
1503686817145,-2, -5, -7, -2, 0, 0, -3, -5
1503686817167,-1, -5, -6, -1, 1, -2, -1, -1
1503686817183,1, 2, 2, 1, -2, -2, 0, -1
1503686817205,-2, -5, -1, -4, -2, 0, -1, -2
1503686817227,4, 13, 11, 4, 1, 0, -1, 3
1503686817243,2, 0, -5, -1, -3, -4, 3, 6
1503686817265,-3, -4, -5, -5, -2, -1, -6, -9
1503686817290,-6, -2, -1, -1, 1, 1, -1, -3
1503686817310,3, -1, 1, 1, 2, 1, 2, 6
1503686817328,-3, -3, -4, -3, -2, -4, -8, -7
1503686817347,-3, -6, -4, -4, -2, -2, -1, -8
1503686817370,-4, -1, 0, 2, -2, -1, -1, -3
1503686817385,1, 2, 1, 3, 3, 0, -1, -2
1503686817407,1, 0, 4, 3, 0, 3, 0, 2
1503686817431,2, 1, 6, 2, -1, 0, 0, 4
1503686817445,-2, -2, 0, -4, -3, 1, -2, -2
1503686817467,4, 5, 7, 3, 2, 0, 1, -2
1503686817490,-4, -10, -11, -10, -5, -2, 2, 2
1503686817512,-2, -3, -4, -3, -1, -2, -2, 1
1503686817527,-1, -1, -1, 1, 2, 0, 5, 0
1503686817549,0, -6, -7, 0, 0, 0, -1, 4
1503686817565,0, 4, 5, 2, 0, 0, 0, -3
1503686817587,-4, -6, -5, -8, -4, -1, 0, 0
1503686817609,1, 8, 10, 3, 2, -1, 2, 1
1503686817618,0, 1, 0, 0, 0, -1, 0, -1
1503686817640,0, -4, 2, -2, -3, -4, -2, 8
1503686817658,-2, 0, 0, 3, 0, 1, -1, -6
1503686817677,-2, -2, -3, -4, 0, -1, 0, -1
1503686817700,1, 0, 1, 3, 1, 0, 0, 1
1503686817715,-2, 4, 3, 1, -1, 0, -2, -1
1503686817737,-4, -1, -1, 4, -1, -4, -5, -6
1503686817745,1, 0, -3, -1, -5, -2, -3, 1
1503686817762,-2, -2, 0, 0, 1, 1, -1, -6
1503686817776,0, 1, -1, 0, -1, -1, 1, -2
1503686817798,-5, -4, -3, -7, -3, 0, 0, -3
1503686817820,-7, -8, -9, -5, -5, -2, -3, -7
1503686817835,-1, -7, -4, -3, -2, -1, 0, 2
1503686817859,-1, -3, 0, 1, 0, -2, -2, 1
1503686817880,5, 7, 4, 3, 2, 0, 1, -1
1503686817895,-1, 4, 2, -2, -2, -2, -4, -3
1503686817917,-1, -1, 1, 0, -2, -2, -3, -1
1503686817927,0, 2, 0, 0, 0, -2, -1, 1
1503686817947,-2, -4, -3, -6, -1, 0, 0, -2
1503686817969,0, -1, -5, -4, -4, -1, -1, -1
1503686817985,1, 0, 0, 2, 1, -1, -1, 1
1503686818008,-1, 2, 1, 2, 0, 1, 2, 4
1503686818031,0, -2, -2, -2, 0, -1, 0, 0
1503686818053,-1, 1, 5, 0, 0, 0, -1, -3
1503686818069,0, 0, -3, 1, 1, -1, 1, -2
1503686818091,0, -1, 0, -1, -1, -2, -2, -4
1503686818113,0, 1, 3, 4, 1, 0, 0, 1
1503686818128,1, 5, 6, 3, 1, -1, -1, 1
1503686818151,-1, -3, -2, -4, -1, 0, 0, -1
1503686818173,1, 1, 2, 1, -1, 1, 0, -1
1503686818188,-3, -2, -3, -2, -2, -1, -3, -1
1503686818210,-2, -2, -1, 1, -1, -1, 0, -2
1503686818234,-1, -1, -1, 2, 1, 0, -1, 0
1503686818248,-3, -4, -4, -4, -4, -3, -2, -1
1503686818270,-2, -3, -3, -3, -1, -2, 1, -2
1503686818295,2, 1, 0, 0, 0, 0, -1, 0
1503686818308,2, 2, 5, 1, -1, 1, -1, -3
1503686818330,1, 2, 2, 0, 3, 0, -1, 2
1503686818338,2, 1, 6, 3, 0, -1, 1, 1
1503686818362,-1, -1, -3, -1, -4, -1, -1, -2
1503686818383,-1, -1, -5, -2, 0, -3, 0, -3
1503686818405,0, -2, -3, -4, -1, -2, 0, 0
1503686818420,-2, -4, -5, -6, -4, -5, -3, -1
1503686818443,-1, -6, -8, -2, -1, 1, -3, 1
1503686818458,0, -2, -4, -1, 0, 0, 0, -1
1503686818480,-1, 1, 1, 0, 0, 1, 1, 0
1503686818503,-3, -5, -5, 1, -1, 1, -3, -3
1503686818517,0, -1, 4, -1, 1, 1, -1, 0
1503686818540,1, 1, 5, 4, 2, -1, 1, 3
1503686818564,-1, 4, 1, -1, -1, 0, -2, -1
1503686818577,-4, -3, -1, -2, -2, -2, 0, -2
1503686818601,0, 4, 6, 1, -1, 0, 0, -2
1503686818622,1, 3, 1, 0, 0, -3, 0, -2
1503686818638,1, 4, 4, 1, -1, 0, -3, -2
1503686818661,1, 2, -4, -2, -1, 0, 1, 0
1503686818683,-4, -9, -6, -6, -3, -1, -1, -1
1503686818698,-3, -2, 3, 3, 0, -1, -2, -3
1503686818720,-3, -5, -5, -2, 0, -1, 0, -3
1503686818743,0, 1, 0, 2, 3, -1, -1, -1
1503686818758,-1, 1, -3, -2, -3, 0, -2, -1
1503686818780,2, 3, 4, 1, 1, 0, 0, -2
1503686818803,-1, -3, -2, -2, -2, -2, -2, 0
1503686818817,-1, -1, 3, -2, -2, -2, 0, 0
1503686818841,-3, -4, -6, -3, -3, -1, 2, 4
1503686818862,1, -1, -1, 0, 0, 0, -1, -2
1503686818878,1, 5, 7, 5, 0, 1, 1, -1
1503686818908,-2, -1, -1, -1, 1, -3, -3, 0
1503686818931,-3, -8, -4, -2, -1, -2, -1, -2
1503686818953,-2, 1, 2, -2, 0, -2, -2, -3
1503686818970,1, 0, 0, 2, 0, 1, -1, 1
1503686818991,1, -1, -1, -1, -2, -1, 0, -1
1503686819013,-1, 2, -4, -2, -2, 2, -1, -2
1503686819028,-3, -5, -4, -4, -2, -1, -4, -2
1503686819058,0, -6, -5, -1, -1, -2, 0, -1
1503686819073,-2, 5, 6, 1, 0, -1, -1, -2
1503686819088,0, 2, 1, 0, 0, 1, 1, -1
1503686819111,-1, -2, -2, 1, -2, -2, -1, -3
1503686819118,-2, -4, -6, -3, -2, -3, -2, -4
1503686819140,-2, 5, 1, -3, -3, -1, -3, -7
1503686819163,0, -3, -2, -1, 0, 0, 0, -1
1503686819185,1, -1, 0, 3, 1, -1, 3, 5
1503686819204,-1, -2, -3, -4, -2, -1, -1, -1
1503686819222,1, 8, 8, 4, 1, -1, 1, 2
1503686819245,-1, -1, -1, -1, 0, -1, -3, 0
1503686819260,-4, -9, -8, -4, -2, -1, 2, -1
1503686819282,-2, -1, 1, -2, -2, 0, -5, -3
1503686819306,2, -1, -2, -3, -2, -1, -3, 0
1503686819321,-2, -2, -2, 1, 0, -1, 0, -1
1503686819342,-1, -1, 0, -3, -3, -1, 1, -2
1503686819365,-1, 0, 2, 0, 2, 2, 1, 1
1503686819374,-1, -2, 0, 1, -1, 1, 1, -1
1503686819381,-1, 0, -5, -2, -2, -3, -1, 0
1503686819404,-3, -2, 2, 1, 2, 0, -3, 0
1503686819425,3, 1, 0, -2, -2, -1, -1, 2
1503686819441,4, 2, -1, 0, 0, 1, 1, -1
1503686819462,-6, -3, 2, 2, -2, -3, -2, -6
1503686819485,-1, 0, -4, -1, 0, 1, 1, 0
1503686819500,-1, 0, 0, 1, 1, 0, -2, -5
1503686819522,-8, -4, -2, -3, -3, -2, -2, -3
1503686819546,-4, -3, -4, -1, -2, -3, -3, 0
1503686819560,1, 0, 4, 2, -1, 2, -1, -2
1503686819582,0, -2, -3, -4, -3, -2, -2, -3
1503686819606,-3, -1, -3, -2, -1, -1, 0, 0
1503686819620,6, 0, 3, 1, 1, -1, 1, 1
1503686819643,0, -2, 2, -2, -1, -1, -1, 1
1503686819665,1, -1, -1, -1, -2, -2, 0, -2
1503686819680,0, -1, -1, 0, 0, -1, 1, 0
1503686819713,2, 0, -2, -1, 2, 0, -1, 1
1503686819725,6, 3, 1, 0, -1, -1, 1, 3
1503686819742,0, -2, -5, -3, -3, 1, -1, -1
1503686819762,-5, -2, 2, 1, 0, -3, 0, -3
1503686819785,1, 1, -2, 0, 0, 0, -1, 0
1503686819800,-2, -4, 1, -2, 0, 0, -2, -2
1503686819822,0, 0, -1, -2, -1, -2, -2, -3
1503686819846,1, -3, 1, 2, 5, 4, 3, 4
1503686819860,-2, 2, 3, 5, 0, 0, 1, 0
1503686819882,4, 1, 0, 0, 1, 0, 2, 2
1503686819890,0, 1, -1, -3, -3, -1, -1, -1
1503686819913,3, 2, 1, 0, -3, -1, -3, 2
1503686819936,2, -1, 2, 1, 2, -1, 0, 2
1503686819950,2, -1, 1, 2, -1, 0, 2, 1
1503686819986,-1, 0, -4, -2, 0, 0, 2, 4
1503686820011,4, -1, 2, 0, -2, -2, -3, -1
1503686820025,-4, -4, -1, -3, -1, -1, -1, -3
1503686820041,0, 3, 3, 5, 0, -1, -2, -10
1503686820063,-8, -1, 1, -3, -3, -2, -4, -4
1503686820085,-2, -4, -5, -3, -1, 0, 0, -7
1503686820109,3, 1, -1, -3, -2, -1, -1, 2
1503686820122,2, -4, -3, -3, -2, 0, -1, 4
1503686820145,5, 7, 4, 0, -2, 0, 3, 9
1503686820167,-2, -7, -6, -1, 2, -1, -5, 2
1503686820184,0, -1, 0, -2, -3, -4, -4, -5
1503686820205,-16, -15, -6, -2, 0, -1, -2, -12
1503686820227,7, 4, 4, 2, 1, 2, 5, 6
1503686820243,7, 26, 27, 15, 5, 2, 2, -4
1503686820265,-2, -7, -9, -11, -6, -5, -6, -2
1503686820287,-9, -5, -8, -4, -2, -4, -8, -27
1503686820295,-12, -1, 2, -2, -1, -1, 3, -7
1503686820318,3, 3, -1, -2, 1, -2, -1, 0
1503686820333,1, 2, 1, 3, 0, 2, 1, -1
1503686820355,0, 1, 2, 3, -2, -12, -3, 2
1503686820363,-5, -2, -1, -5, -2, -1, 1, -6
1503686820385,-7, -4, -6, -2, 0, -1, -4, 0
1503686820410,-1, -4, -5, -4, -2, 1, 5, 4
1503686820422,2, 3, 2, 3, -1, -3, -2, -3
1503686820438,-3, 0, -2, -4, 0, 3, -1, -6
1503686820453,1, 2, 2, 3, 3, 2, 0, 5
1503686820478,3, 2, 2, 1, -2, 1, -1, 1
1503686820498,-1, -1, -5, -4, -2, -2, 1, 3
1503686820513,-8, -4, -1, 0, 2, 2, 3, -3
1503686820536,2, -3, -2, -2, 3, 11, 1, -4
1503686820557,3, 5, 5, 2, -2, -5, -2, 5
1503686820573,-4, -3, -7, -1, -1, -5, -2, -9
1503686820595,-1, -5, -12, -5, -6, -2, -2, -15
1503686820617,8, 10, 1, 2, -1, 4, 6, 10
1503686820625,-5, -2, 0, -4, -4, -1, -4, -13
1503686820648,2, 6, 7, 6, 2, 0, -4, -1
1503686820662,-2, -7, -2, -2, -1, -2, -5, -10
1503686820685,13, 7, 1, -1, 0, 1, 2, 2
1503686820708,6, 16, 10, 5, 2, 0, 3, -3
1503686820723,-1, -2, -3, -2, -1, -1, -1, 5
1503686820746,-6, -6, 0, -2, 0, -2, -7, -6
1503686820767,8, 3, 0, -3, -2, 2, 8, 25
1503686820783,7, 2, -3, 0, 1, 4, 6, 7
1503686820805,-10, -4, 0, -3, 0, -1, -5, 3
1503686820827,-6, -6, -2, 0, 0, 0, -1, -16
1503686820835,5, 14, 10, 2, 0, 0, -4, -8
1503686820857,-14, -6, -1, 0, -1, -1, -3, -11
1503686820873,0, -1, 0, -4, -3, -3, -4, 2
1503686820895,2, -7, -6, -5, -2, 1, 4, 2
1503686820918,8, 1, -1, -4, -1, -2, -1, -1
1503686820933,0, 11, 4, 3, 0, -1, -3, 6
1503686820956,-18, -11, -5, 1, -2, -4, -11, -21
1503686820977,3, 1, -1, -3, -1, 2, 6, 4
1503686820993,-3, -2, 2, 1, 0, -2, 0, 1
1503686821017,2, -2, -4, 0, 3, 1, 0, -4
1503686821038,1, -2, -1, -1, 1, 1, 3, 1
1503686821060,-2, -3, -2, -3, -2, -1, -4, -4
1503686821075,-3, 0, -1, -4, -3, -1, -3, -6
1503686821097,2, -5, -4, -1, -1, 0, 1, 7
1503686821120,2, 4, 3, 5, 3, 1, -1, -3
1503686821135,1, 3, -1, -1, -1, 0, 2, 6
1503686821158,-3, -8, -8, -6, -3, -3, -1, 0
1503686821182,0, -2, 0, 1, -2, -2, 1, 1
1503686821195,1, -2, -3, -2, 1, -2, -1, 8
1503686821218,-3, -8, -7, -4, -2, -1, 1, -6
1503686821240,1, 5, 4, 2, -2, -2, -2, 0
1503686821255,-3, 1, 4, -1, 0, -2, -4, -10
1503686821269,6, 1, -1, 0, -3, -4, 1, 16
1503686821285,2, 1, 1, 8, 7, 4, 1, 0
1503686821307,1, 3, 3, 0, -6, -2, -5, -11
1503686821329,-2, -2, -3, -3, -2, -2, -3, 0
1503686821345,7, 1, 3, 5, 11, 7, 6, 12
1503686821368,2, 2, 1, 1, -1, -1, -1, -1
1503686821390,5, 0, -2, -10, -11, -3, 1, 1
1503686821405,-6, -3, 0, 0, 2, 1, 0, -1
1503686821428,10, -2, -3, -3, -1, 1, 3, 24
1503686821436,-3, -4, 2, -2, -1, 0, 1, 6
1503686821458,2, 0, 2, 2, 1, 0, 1, 4
1503686821480,-2, 8, 11, 7, 4, 3, 0, -8
1503686821488,-1, -5, -10, -9, -4, -4, -2, -2
1503686821509,-14, -7, 1, -1, -4, -4, -5, -17
1503686821525,3, 1, -1, -2, 2, 0, 1, 7
1503686821540,0, -6, -7, -2, -3, 0, 2, -4
1503686821548,4, 10, 5, 3, -1, 1, 1, 0
1503686821569,-15, -16, -12, -8, -4, -4, -5, -8
1503686821601,7, -2, -6, -6, -1, -2, -2, 0
1503686821616,3, -4, -1, 3, 0, 1, 3, 7
1503686821630,2, 1, 2, 0, 1, 0, 1, 5
1503686821645,-8, -4, 1, -2, -1, -2, -2, -7
1503686821667,8, 2, -1, 2, 0, 0, 3, 23
1503686821690,11, 8, 9, 4, 2, 2, -1, -6
1503686821705,0, 2, 0, 3, 1, 1, 3, 6
1503686821728,-13, 1, 3, 4, 2, 0, -3, -21
1503686821749,1, -3, 1, -3, -3, -1, -2, -11
1503686821765,1, -2, -3, 0, -1, 0, 3, -1
1503686821795,-2, 0, 2, -2, -1, -1, -6, -10
1503686821809,-2, -4, -9, -6, -2, -2, -5, -8
1503686821826,-7, -13, -9, -7, -2, 0, 6, 2
1503686821847,-1, -3, -5, -2, 0, -3, -4, -3
1503686821869,5, 4, -2, -4, -1, 1, 0, 10
1503686821887,-2, 2, 3, -1, -4, -2, 0, 1
1503686821907,-1, -3, 2, -2, -2, -2, 1, 0
1503686821929,6, -1, 0, 1, 1, 2, 2, 10
1503686821954,10, 7, 6, 3, 2, 1, 0, 0
1503686821967,2, 8, 11, 7, 2, -1, -2, 1
1503686821990,-4, -2, -3, 0, -3, -2, -4, -2
1503686822012,-1, -4, -5, -5, -2, 0, -1, 6
1503686822027,-2, -2, -1, 1, -1, 0, -2, -6
1503686822049,1, 5, 4, -1, 2, 1, 1, 2
1503686822072,0, -7, -7, -3, -3, -2, 0, 3
1503686822088,-6, -6, -3, -2, 0, -1, 0, -3
1503686822109,4, 4, -3, -2, 1, 2, 1, 13
1503686822132,3, -3, -4, 2, 1, -1, 0, -3
1503686822147,0, 1, 6, 0, 1, 0, -3, -5
1503686822169,-3, -3, -3, -3, -2, -3, -5, -8
1503686822192,-3, -3, 0, 0, -2, -1, -2, -4
1503686822208,5, 5, 1, -1, -1, -2, 1, -4
1503686822229,-5, 0, 5, 2, -2, 0, -3, -10
1503686822251,1, -5, -7, -2, 0, 0, 1, 8
1503686822261,0, -2, 0, -2, -3, -2, 0, -1
1503686822282,-3, 0, -1, -1, 0, -1, -2, 0
1503686822298,5, 0, -1, -1, -2, -1, 0, 8
1503686822320,-3, 4, 5, -2, -2, 0, 0, -2
1503686822342,6, 0, -1, 1, 0, 1, 2, 5
1503686822359,-1, 1, 0, 3, 3, 0, -1, 2
1503686822380,-5, 0, 1, 6, 3, 1, -3, -9
1503686822402,-8, -8, -9, -8, -4, -4, -3, -15
1503686822417,-1, -3, -2, -3, -3, -4, 0, 8
1503686822440,-4, -1, -6, -2, -1, -1, 1, -6
1503686822462,5, -6, -8, -6, -3, 0, 3, 6
1503686822477,4, 3, -2, 0, -1, 0, -6, -11
1503686822500,-3, -6, -3, -3, -2, 0, 1, 9
1503686822508,-2, 0, 3, 2, 0, -2, 1, 10
1503686822529,-5, -8, -8, -3, -1, -3, -2, -8
1503686822551,-7, -6, 1, -1, -2, 0, 1, 4
1503686822560,-7, -3, -4, -2, -2, -1, -2, -12
1503686822582,4, 9, 12, 7, 4, 1, 0, -4
1503686822597,-1, 2, 3, 4, 1, -2, -5, -10
1503686822620,3, 4, 4, -2, -3, -2, -10, -1
1503686822642,5, 0, 3, 3, 0, -2, 3, 17
1503686822660,-2, -3, -4, 2, 2, 2, 9, 4
1503686822680,-7, -5, -4, -4, 0, 0, -3, -7
1503686822702,-1, 0, 3, -3, -2, 1, 6, 7
1503686822717,0, 6, 1, 4, 1, -1, -3, -8
1503686822740,0, -3, 3, 1, 1, -2, -3, -5
1503686822763,-4, -4, -1, -6, -6, -5, -3, -4
1503686822777,11, 17, 13, 1, 1, 3, 6, 25
1503686822800,-13, -13, -9, -6, -4, -3, -5, -18
1503686822822,-7, -11, -12, -7, -6, -2, -2, -6
1503686822838,-10, -14, -14, -10, -5, -4, -9, -19
1503686822861,2, -5, -3, -5, -2, 3, 6, 12
1503686822882,-1, -3, -3, 0, -2, -2, -7, -9
1503686822905,5, 16, 13, 8, 3, 1, 0, 4
1503686822920,-4, -4, -7, -2, -1, -1, -3, -17
1503686822942,0, 0, 0, 0, 3, 1, 0, -5
1503686822965,3, 5, 7, 4, 3, -1, 1, 9
1503686822972,-2, -2, -2, -1, 0, -1, 0, -2
1503686822995,-3, -2, 0, 0, -1, 0, -4, -6
1503686823010,2, 5, 2, 1, -1, -1, -1, 4
1503686823032,2, 4, 2, -1, 0, 0, 0, -3
1503686823054,-2, -4, -3, -3, 0, -1, -1, -3
1503686823070,-1, -8, -8, -5, -3, -1, -2, 2
1503686823091,-2, -1, -3, -3, -1, 0, -1, -1
1503686823114,0, 0, -2, -2, 0, -1, -1, 2
1503686823130,-1, -2, -2, 1, 0, 0, 1, -8
1503686823151,0, 4, 5, 4, 3, -3, -6, -6
1503686823174,3, 3, 6, 1, 0, 1, 2, 2
1503686823190,-6, -7, -4, 0, 0, -2, -6, -12
1503686823212,1, -2, 1, 1, -1, 1, 0, -1
1503686823234,-1, -1, 1, -1, -1, -1, 1, 2
1503686823250,-3, -4, -3, -2, -3, -1, -1, 3
1503686823273,-1, 1, -3, -3, -1, -1, 2, 2
1503686823296,0, -4, -2, -2, 0, 0, 0, 5
1503686823318,0, -2, -1, 2, -4, 0, -2, -1
1503686823336,2, 1, 4, 1, 2, 1, 0, 0
1503686823340,-2, -5, -2, -3, 0, 0, 1, -1
1503686823364,-1, -2, -2, -3, 0, -1, 0, -2
1503686823385,-2, 3, 0, 2, 0, 0, -1, -1
1503686823401,-2, -2, -2, 0, -1, -1, -1, -1
1503686823422,2, 0, 2, 0, 0, 0, -1, -3
1503686823445,-2, -5, -5, -4, -3, -3, -3, -4
1503686823460,-3, -3, -3, -4, -3, 0, -1, 0
1503686823482,-1, 1, -1, 0, -2, -2, -2, -2
1503686823505,-1, -1, -1, -4, -2, -1, -1, -3
1503686823520,2, 3, 1, 1, 1, 1, -1, 3
1503686823542,-2, -2, -5, -4, -3, -1, -1, 0
1503686823567,0, 2, 6, 7, 2, -1, 4, 2
1503686823580,0, -1, 0, -1, -1, 0, 0, -2
1503686823603,-3, 0, -2, -1, -1, -3, -3, -4
1503686823625,-1, -4, -4, -2, -2, 1, -1, 1
1503686823640,0, 0, 1, 2, 1, 0, 0, 0
1503686823662,-2, -5, -7, -3, -3, -3, -3, -6
1503686823685,1, 3, 0, 0, 2, 1, 0, -2
1503686823701,0, -1, 2, -2, 1, 0, 1, 1
1503686823722,-5, -9, -9, -5, -4, -1, -1, 1
1503686823745,0, 3, 0, -1, -1, 0, -3, -4
1503686823760,-5, -2, -1, -1, -1, 0, 1, -3
1503686823782,0, -2, -1, 1, 1, -3, -3, 4
1503686823805,2, 0, 2, -3, -1, 2, 4, 3
1503686823827,1, 4, 2, -1, -2, -2, -2, 0
1503686823842,-1, 1, 0, 2, 0, 0, -1, -2
1503686823865,-3, -4, -6, -3, -2, -6, -4, -8
1503686823887,0, -3, -1, -2, -1, 1, 1, 6
1503686823902,1, -3, -2, -1, 0, -1, 1, -1
1503686823925,3, 0, 5, 0, -1, 0, -1, 3
1503686823948,-2, 0, -1, 1, -2, -2, -2, -5
1503686823962,0, -1, 0, 4, 3, 1, 1, 3
1503686823985,-3, -3, -2, -2, -2, -2, -1, -4
1503686824008,-2, -2, -4, -3, -2, -1, 0, -4
1503686824022,0, 2, 3, 2, -1, -1, -1, -1
1503686824045,0, 1, 0, 0, 0, -2, -3, -5
1503686824072,-3, -1, -2, -3, -2, 0, 0, 6
1503686824082,-1, -2, 1, 1, 2, 2, 0, -5
1503686824105,0, 1, 1, -2, -1, -2, 0, 3
1503686824127,-2, -1, 0, -2, 2, -1, 0, -3
1503686824159,-3, -2, -5, -3, -1, -2, -3, -5
1503686824181,-2, -1, 3, 1, 2, -1, 2, -2
1503686824204,-2, 2, 2, -1, -1, -2, -2, 0
1503686824225,-1, -2, 1, 2, -1, 0, 1, -2
1503686824248,0, 0, -1, -1, 0, -2, -1, -7
1503686824262,0, 2, 3, -1, -3, -4, -2, -1
1503686824285,-3, -5, -5, -1, -1, 0, -2, 0
1503686824308,-2, -1, -2, -3, 0, 0, -1, -1
1503686824322,-1, -1, -2, 0, 0, 1, 0, 2
1503686824346,-4, -4, -1, -2, 0, -2, 0, -1
1503686824367,0, -1, 0, -1, 1, 0, -2, -2
1503686824382,0, 2, 3, 1, 1, 0, -2, 0
1503686824405,0, -5, -3, -3, -1, -2, 0, 2
1503686824427,0, 0, -1, 0, -2, 0, 0, -2
1503686824443,1, 4, 5, 1, 1, 0, -1, -1
1503686824465,-1, -1, 1, 1, 0, -1, -3, 1
1503686824487,1, -5, -6, -4, -1, -1, -1, -2
1503686824502,-3, 0, -5, -6, 0, -1, -4, -10
1503686824518,3, -1, 1, 4, 2, 1, 2, 1
1503686824533,-5, -6, -7, -4, -2, -2, -3, -7
1503686824555,-6, -4, -2, -2, -3, -2, -1, -6
1503686824578,0, 3, 3, 0, -1, -1, 1, 2
1503686824593,0, 3, 2, 1, 1, -2, 0, -6
1503686824615,5, 2, 3, 0, -1, 0, -3, 3
1503686824641,-9, 0, -2, 2, -3, -4, -10, -15
1503686824653,-4, -14, -13, -8, -3, -1, -1, 2
1503686824675,4, 9, 14, 5, 2, 4, 2, 0
1503686824698,1, 0, 2, 3, 2, 0, 7, 22
1503686824713,-3, 0, 0, -2, -2, 1, -5, -19
1503686824735,-2, 2, 0, -2, -3, -3, -3, -1
1503686824758,0, 3, 2, -2, 1, -1, -1, -2
1503686824780,2, -9, -7, -4, -2, -2, 5, 11
1503686824795,-4, -4, -3, -3, -2, -3, -7, -18
1503686824818,2, -1, -1, 1, 1, 0, 2, 5
1503686824841,1, 1, 2, 0, -2, -1, -3, 1
1503686824855,-2, 3, 4, 3, 0, -1, -3, -11
1503686824878,-1, 0, -2, 0, -1, 0, -3, -6
1503686824900,-1, 2, 1, 0, 0, 0, 2, 6
1503686824915,-1, -1, 0, -2, -3, -3, -4, -6
1503686824938,5, -2, -4, -2, -3, 0, -1, 9
1503686824960,4, 1, 0, 0, 0, -1, 1, 15
1503686824976,1, 2, 5, 0, -2, -1, -1, 0
1503686824998,3, 1, -3, 0, 1, 1, 2, 5
1503686825023,-3, 9, 0, -6, -2, -4, -4, -8
1503686825035,-3, -10, -7, -3, 0, -1, -5, 0
1503686825058,-7, -5, -1, 2, 0, -3, 1, -4
1503686825080,2, 0, -1, -1, 1, 2, 1, -1
1503686825095,-4, 1, 4, 2, 0, -1, -5, -10
1503686825118,-2, -3, 0, 1, 0, 1, 2, -8
1503686825140,-6, -10, -6, -5, -3, -4, -3, -3
1503686825155,5, -1, -4, -2, -3, 0, -1, 2
1503686825178,4, 10, 12, 6, 1, 1, 2, -3
1503686825200,-11, -10, -6, -4, 0, 0, 1, -17
1503686825208,-3, -6, -2, -3, -1, 0, 0, 1
1503686825230,-2, -1, 0, 0, -1, 1, 0, -2
1503686825245,5, 5, 3, 1, -2, -2, -2, -3
1503686825267,1, -1, -2, -1, -3, 0, 1, 6
1503686825290,6, 3, 1, 3, 1, 0, 7, 16
1503686825305,-5, -10, -3, -5, -2, -2, -3, -12
1503686825327,-1, 3, 1, -1, 1, -1, -4, -2
1503686825351,-3, -5, -3, -1, -1, 0, -2, -3
1503686825365,1, -5, -6, -3, -1, 0, 4, 6
1503686825387,-5, -2, 0, -1, -2, -3, -8, -13
1503686825411,2, 1, 0, 0, 0, -1, 0, -2
1503686825418,1, 12, 11, 0, -1, 2, 2, 4
1503686825440,0, -2, -5, -3, -1, 1, -1, 0
1503686825456,0, 7, 5, 0, -1, -4, -10, -1
1503686825479,-1, -6, -2, -3, -1, -1, 1, 9
1503686825500,-3, -3, -2, -2, -2, -1, -2, -9
1503686825516,-1, 2, 1, -2, -1, 0, 0, -8
1503686825530,2, 5, 5, 3, 0, 0, 0, 7
1503686825546,-7, -5, -4, -4, -1, -3, -2, 1
1503686825567,0, 4, 3, -1, 2, -1, -6, 0
1503686825591,-1, -3, 2, 0, -2, -1, -5, -10
1503686825605,-3, -1, -5, -8, -3, -2, 0, -7
1503686825627,1, 1, -3, 0, 0, 1, 0, -3
1503686825650,2, -1, 4, 4, 2, 2, 2, 1
1503686825671,-7, -8, -8, -7, -2, -2, 5, 19
1503686825680,-2, 3, 5, 4, 0, 0, -1, -16
1503686825702,7, 2, -1, -1, -1, -1, 1, 4
1503686825718,-6, 1, 2, -1, 3, 1, 2, -14
1503686825740,-2, -1, 1, 1, 0, -1, -2, -9
1503686825762,-3, -3, 0, -1, 0, 0, -2, -3
1503686825778,-3, -2, -2, -3, -3, -3, -4, -12
1503686825800,-5, -3, 0, 0, -1, -1, 0, 0
1503686825823,-3, 4, 2, 0, -1, 0, -2, -2
1503686825838,0, -3, -7, -5, -4, -1, -3, 1
1503686825860,2, -4, -3, -3, -1, 0, -1, 1
1503686825882,-3, -6, -5, 1, 0, -4, -4, 0
1503686825898,2, -2, 0, -1, -1, 0, 0, 2
1503686825920,-3, -2, 0, 0, -2, 0, 1, -3
1503686825942,0, 0, 0, -1, -1, -1, -1, -1
1503686825951,0, 0, -6, -5, -3, -2, 4, 0
1503686825971,-1, -1, -2, -2, -3, -1, -1, -1
1503686825987,-1, -5, -4, -3, -1, -2, 1, 11
1503686826010,3, -1, 1, -1, -1, 0, 5, 10
1503686826031,0, -2, -1, 0, -1, -1, -1, -3
1503686826051,-2, 0, 5, 7, 3, 1, -1, -7
1503686826070,0, -5, -7, -7, -3, -4, -8, -3
1503686826092,-1, -1, 1, -3, 0, 0, 2, 5
1503686826107,-1, 2, 1, 0, 1, -1, 1, 6
1503686826130,0, -1, -2, -2, 0, 0, 0, -5
1503686826152,-7, -3, -7, -1, -1, -2, -1, -7
1503686826167,1, 1, -2, -1, -2, -1, 0, 7
1503686826184,-1, 1, 2, -1, -3, 1, 2, 2
1503686826198,5, 8, 8, 4, 3, 0, 1, 5
1503686826220,0, 0, -1, -1, 0, -1, -2, -5
1503686826242,-1, -7, -2, -3, -3, -1, -1, -2
1503686826258,1, 4, 9, 5, 0, -3, -5, -2
1503686826280,-5, -8, -6, -5, 0, 0, 0, 1
1503686826302,0, 7, -3, 2, -1, -2, -2, -5
1503686826318,-2, 12, 12, 10, 6, 3, 2, -8
1503686826340,2, 4, 0, -2, -1, 0, 2, 2
1503686826362,2, -2, 1, -1, -2, 1, 2, 8
1503686826378,0, -1, -2, -5, -1, -1, 0, -5
1503686826400,5, -1, 3, 7, 3, 3, 3, 11
1503686826422,-2, -3, 3, 1, -1, -2, -5, -11
1503686826438,-8, -10, -6, 0, -1, 0, 2, -12
1503686826460,-3, -5, 0, -1, -1, -1, -1, -8
1503686826467,0, -2, -4, -3, -4, 0, -2, -5
1503686826490,3, 5, 9, 12, 3, 2, 0, -4
1503686826512,2, 5, 1, 2, 3, -2, -2, 1
1503686826528,6, 17, 19, 6, 1, 0, -1, 4
1503686826549,8, 10, 13, 7, 0, 5, 6, 7
1503686826558,1, -8, -10, -10, -5, -3, -2, -1
1503686826580,2, -4, -4, -6, -3, 0, 1, 11
1503686826602,0, 8, 5, 6, 0, -4, -2, -3
1503686826625,-1, -3, -1, 8, 2, 1, 1, -7
1503686826640,2, 9, 7, 4, 0, -1, -2, -1
1503686826662,3, -2, -5, -5, -2, -1, 4, 19
1503686826687,-9, -14, -11, -9, -6, -1, -4, -8
1503686826700,5, -8, -1, 1, 0, 0, 2, 15
1503686826722,-3, -1, 3, 0, 0, 1, 2, -4
1503686826744,-3, 2, -1, -1, 1, -1, -3, -11
1503686826761,-2, 1, 2, -3, 0, 2, -4, -9
1503686826782,-1, 3, 4, 0, -1, 0, -3, -10
1503686826804,-1, -2, -4, -1, 1, 0, 1, 0
1503686826825,-3, -8, -5, -4, -3, 0, 0, 5
1503686826842,2, -3, -4, -4, -3, -2, -3, 6
1503686826864,1, 0, 3, 6, 4, 0, 5, -1
1503686826880,-2, -2, -5, -5, -3, -5, -3, -13
1503686826902,-5, -6, -3, -2, 0, -2, -2, 1
1503686826925,-1, 1, -2, -1, -1, -2, -5, -11
1503686826940,5, 5, 9, 4, 4, 2, 4, 9
1503686826963,-1, -2, -2, -6, -6, -4, -5, -2
1503686826984,3, 11, 10, 0, -1, 1, 1, -2
1503686826992,1, -2, -3, -2, 1, -2, -2, 1
1503686827014,0, 2, -2, -2, -5, -4, -5, -3
1503686827030,0, 6, 4, 2, 2, 1, 2, 8
1503686827052,-1, -1, 2, 1, 1, 2, 0, 4
1503686827074,0, -1, -1, -1, -1, -1, -1, -9
1503686827092,-1, -2, -5, 0, -3, -4, -2, 8
1503686827112,0, 3, 5, 6, 4, 3, 0, -10
1503686827134,-2, -4, -3, -2, -2, -1, -1, -3
1503686827149,-3, 1, 3, 0, 1, 0, 1, -1
1503686827172,0, -3, 1, 0, 1, -1, 1, 5
1503686827194,-2, 2, -1, -1, 0, -1, -2, -8
1503686827209,-3, -4, -5, -6, -1, -2, -4, -1
1503686827232,-2, -5, -6, -5, -3, -1, 0, 5
1503686827254,-1, -4, -1, 0, -2, -1, -1, -3
1503686827269,1, 0, 0, -1, -1, -1, -2, 2
1503686827294,-5, -5, -4, -4, -3, 0, -2, -4
1503686827314,-2, 2, 1, 3, 0, 0, 0, -5
1503686827324,-3, -3, -3, -3, -1, -1, -3, -3
1503686827344,-1, 2, 2, 0, -1, 1, -1, -4
1503686827361,-1, -4, -1, -1, -2, -2, 0, -3
1503686827382,-2, -6, -4, -2, 0, -1, -1, -3
1503686827405,-2, -3, -1, -1, 0, -1, -2, 0
1503686827420,1, 7, 8, 6, 0, 1, 1, 1
1503686827442,0, -3, -5, -4, -1, -1, -2, -2
1503686827465,-3, -2, -3, 2, 1, -1, -1, 1
1503686827480,-1, 4, 0, -2, -2, -2, -1, -2
1503686827502,-2, -3, -2, -2, -1, -2, -1, -2
1503686827529,-2, -2, -3, 0, -1, -1, 0, -1
1503686827547,1, 4, 5, 1, -1, -1, 0, -1
1503686827565,-3, -2, -5, -2, -2, -1, -2, -1
1503686827585,-4, -8, -5, -4, 0, -1, -3, 1
1503686827607,-1, -3, -1, 0, 0, -1, 1, 0
1503686827622,-1, -1, 1, -2, -1, -1, 1, -1
1503686827644,1, 0, 0, 0, 0, -1, 0, -3
1503686827667,-3, -3, -2, -1, 0, -2, -2, 0
1503686827682,1, 1, 3, 1, -2, -1, -1, -2
1503686827704,0, 1, 6, 4, 2, -1, 1, 1
1503686827712,-3, -3, 0, -4, -4, -2, 0, -1
1503686827734,0, -2, -5, -3, -1, -3, -1, -1
1503686827756,-2, -2, 1, -1, -1, -1, -3, -1
1503686827772,-1, -7, -5, -2, -2, -1, 0, -2
1503686827795,-1, -1, -1, -2, 2, -2, -1, -1
1503686827816,-1, 1, 3, 2, -1, 2, 0, -1
1503686827832,0, 2, -3, -1, 2, 0, -2, -1
1503686827847,-3, -3, -3, -1, -1, -1, 1, -4
1503686827862,-2, -3, -4, -1, 0, 0, 0, 0
1503686827884,0, -3, 0, 0, 0, 0, -1, 2
1503686827907,1, 1, 2, -1, 0, -1, -1, -2
1503686827922,-3, -5, -7, -3, -2, -1, -3, -1
1503686827944,-1, -3, -2, -3, -1, 0, 1, -1
1503686827967,3, 3, 3, 2, -2, -1, -1, -1
1503686827982,0, -2, -1, -3, -2, -1, 0, -1
1503686828005,0, 1, 0, -1, 0, 1, 1, 0
1503686828019,-4, -4, -5, -4, -3, -2, 0, -1
1503686828041,4, 11, 14, 5, 1, 0, 0, -1
1503686828056,-2, -5, -3, -1, -2, -2, -2, -1
1503686828072,-1, -8, -6, -2, -2, 0, -2, -3
1503686828094,0, 3, -2, -1, 0, -1, -1, -3
1503686828116,-1, -6, -4, -2, 0, -1, 0, -1
1503686828132,-1, -1, -2, -1, -1, -1, -1, -2
1503686828154,-2, 0, -1, 0, 0, 1, -1, 0
1503686828176,-3, -4, -5, -5, -1, -1, 0, -1
1503686828192,1, 1, 3, 0, 1, 1, 1, -1
1503686828214,0, 2, 3, 1, -1, 0, -1, -1
1503686828236,1, -1, -2, 2, 1, 0, -3, 1
1503686828252,-3, -3, -1, -3, -2, -1, 0, 1
1503686828274,-3, -2, -4, 0, 0, -1, -1, -2
1503686828298,2, 2, 4, 1, 0, 0, -1, 0
1503686828312,-2, -1, 0, -1, 1, -1, -2, -1
1503686828334,-3, -6, -8, -4, -2, -4, 0, -2
1503686828356,0, 3, 1, 1, -2, 0, 0, -1
1503686828374,-3, -5, -3, -1, 0, 0, -1, 0
1503686828394,0, -4, -5, -1, -2, -2, 0, -2
1503686828416,0, 3, 1, -1, 0, -2, -2, -1
1503686828433,1, 9, 5, -1, 0, 1, -1, -1
1503686828454,-3, -2, -1, -2, -1, -1, -1, -2
1503686828476,-1, -5, -6, -1, -3, -3, -1, -2
1503686828499,0, 0, -1, -1, -2, -1, -2, 1
1503686828515,-2, -4, -5, -1, 0, 1, 2, -2
1503686828537,1, -2, 0, 0, 1, -1, -3, 0
1503686828560,1, -2, 2, 0, -2, -1, 1, 0
1503686828575,-1, 5, 6, 2, 1, 0, -2, -2
1503686828597,0, 5, 6, 0, -2, 0, 1, 0
1503686828620,-1, -2, 2, -3, -3, -3, -1, -1
1503686828635,-1, -3, 0, 1, 1, -1, 2, 1
1503686828650,1, 5, 3, 0, 0, 1, 0, -2
1503686828664,0, 1, 2, 1, -1, -2, -2, 0
1503686828687,1, -1, 1, 0, -1, 0, 0, -1
1503686828710,-2, -1, -3, -3, 0, -2, -2, -3
1503686828724,-1, 3, 6, 2, 1, 0, 1, 0
1503686828747,-1, -7, -11, -6, -2, -1, 2, 3
1503686828775,4, 14, 8, 3, 0, 0, 0, 2
1503686828793,-2, 2, 2, -2, -3, -4, -3, 0
1503686828816,-2, -8, -3, 1, 1, 0, 1, -1
1503686828838,-4, -21, -10, -5, -3, -1, -1, 1
1503686828860,-6, -10, -11, -4, -2, -2, -2, -2
1503686828876,-3, -4, -4, -2, -2, -2, -2, -2
1503686828898,-1, 0, -1, -3, -1, -1, -2, -2
1503686828921,5, 14, 11, 5, 1, 2, -1, 1
1503686828946,-2, 1, -1, -2, 0, -3, -2, -1
1503686828958,1, 4, 0, 0, -1, 1, -1, -1
1503686828980,1, 7, 7, 1, 3, 1, 0, -3
1503686829005,0, -7, -4, -4, -1, -2, 3, -2
1503686829018,-2, -5, -3, -2, -3, -1, -3, -4
1503686829043,0, -2, -2, 0, -1, 0, -1, 2
1503686829063,0, -1, -1, 0, 0, -3, -1, 1
1503686829079,-2, -3, -2, -3, -2, 1, -1, -2
1503686829109,-1, 6, 3, 2, -1, -1, -1, -1
1503686829123,-1, -1, -5, -2, -2, 0, -2, 1
1503686829140,-4, 2, 0, 0, -2, -2, 2, 0
1503686829160,1, -1, 2, -1, 0, -2, -1, 0
1503686829183,-4, -6, -6, -3, 0, -1, -4, -6
1503686829198,-4, -7, -7, -4, 2, 0, -1, 0
1503686829220,1, 2, 2, 1, -2, -1, 0, -2
1503686829243,-2, 0, -2, 0, -3, 0, 2, 3
1503686829258,2, 7, 8, 4, 2, -2, 2, 1
1503686829280,3, 12, 8, 0, -1, -1, 1, -2
1503686829302,4, 3, 1, 0, 3, -2, 0, 0
1503686829325,-4, -4, -4, -3, -1, 0, 0, -2
1503686829347,-2, -9, -8, -3, -1, 0, 0, 1
1503686829370,-1, -3, -5, -6, -3, -2, 1, 2
1503686829384,-2, -1, 2, 1, -1, -4, -2, -3
1503686829408,2, -1, 0, -1, -1, -2, 1, -1
1503686829430,-1, -2, -2, -1, -3, 1, -1, -2
1503686829452,1, -1, -2, 0, -2, -4, -7, -4
1503686829467,-3, -1, 0, 1, 1, 0, -1, -2
1503686829489,-1, 1, 0, -2, 1, 0, -3, -11
1503686829513,-4, -4, -4, 0, 1, 0, -1, -5
1503686829527,1, 0, -1, -1, -1, -2, 3, 3
1503686829550,-1, 1, 2, 3, -1, 1, -1, 6
1503686829574,2, -2, -3, -1, 2, 1, -1, 5
1503686829587,2, -1, -2, -2, -4, -3, 1, 3
1503686829610,-2, -5, -5, -1, -2, -1, -2, -4
1503686829632,4, 13, 12, 2, 1, 1, 3, 12
1503686829647,-1, -3, -4, -3, -5, -4, -5, -7
1503686829669,1, 1, 2, 2, 2, 1, -4, -17
1503686829692,4, 10, 7, 4, 0, 0, 5, 19
1503686829713,0, -7, -14, -7, -2, 1, 3, 3
1503686829729,-8, -12, -5, -1, -1, -1, -7, -13
1503686829752,2, 1, 0, -1, 1, -2, -2, 0
1503686829767,1, 2, -1, -2, -1, 1, 2, 5
1503686829789,-5, 1, -3, -5, -1, -1, -2, -8
1503686829812,-8, -11, -8, -1, 2, -3, -2, -1
1503686829827,0, -5, -3, -1, -2, -1, 2, 2
1503686829850,2, 5, 8, 5, 3, 3, -2, -3
1503686829872,7, 3, 6, 4, 0, 1, 9, 22
1503686829887,-4, -6, -4, -6, -5, 0, 1, -12
1503686829903,5, 8, 10, 6, 2, 6, 9, 8
1503686829918,-4, 2, 1, -4, -2, -1, -2, -6
1503686829940,-4, -17, -13, -5, -2, -1, -1, 3
1503686829962,7, 1, 2, 0, -1, 2, 5, 16
1503686829978,-4, -2, -1, 0, -3, -5, -3, -6
1503686830000,-2, 0, 1, -2, -4, 0, -1, -5
1503686830022,0, 0, 1, -1, -1, -3, -1, -3
1503686830045,-1, 0, -1, 3, 1, -1, -4, -5
1503686830061,-1, -4, -2, -4, -3, -2, -3, -3
1503686830082,1, -3, -5, -2, 1, 1, -1, -1
1503686830098,-2, -4, -3, -1, -2, -3, -4, -3
1503686830121,7, 11, 5, 1, -2, 0, 3, 8
1503686830149,2, -2, 0, 3, 2, -1, 4, 6
1503686830157,-4, 0, -4, 1, -2, -1, -1, -11
1503686830180,-2, 0, -3, 1, 2, -1, -4, -10
1503686830202,-5, -8, -4, -4, 0, 1, 1, 1
1503686830217,-14, -10, 0, -5, -1, -4, -5, 1
1503686830240,9, 4, 0, -2, -1, 0, 2, -2
1503686830262,-3, 0, 1, 0, 1, 1, 1, -1
1503686830279,0, 0, 1, 0, 0, 0, -3, -1
1503686830300,-5, -1, -3, -1, -1, 0, -4, -15
1503686830322,3, 1, 3, 2, -3, -3, 2, 2
1503686830346,-2, -1, 0, -2, 1, 2, 0, 0
1503686830360,1, 6, 0, -1, 0, 0, -3, -2
1503686830383,2, -3, -3, -2, -4, -4, -3, 14
1503686830404,-1, -3, -3, 0, 0, 0, 1, 2
1503686830420,-4, -8, -3, -4, -1, 0, -3, 0
1503686830442,-3, -2, 0, -1, 0, -3, -2, -6
1503686830464,4, 2, 1, -1, 1, 2, 6, 7
1503686830482,-1, 0, -1, -1, -2, -1, -5, -12
1503686830503,-3, -5, 0, -1, 0, -3, -4, -6
1503686830524,-4, -2, -5, -1, -2, -1, -3, -1
1503686830540,6, 7, 6, 5, 2, 3, 6, 10
1503686830570,2, 3, 3, 1, -2, -3, -2, -2
1503686830592,0, -1, -2, 0, -1, -1, -2, 1
1503686830615,0, 0, 2, 0, -2, 1, 0, -2
1503686830629,-2, -6, -2, 0, 0, -3, 1, 5
1503686830652,3, 12, 8, 3, 1, 1, -3, -5
1503686830674,1, 1, 1, 1, 0, 0, 7, 7
1503686830690,-2, -2, -4, -1, -1, -3, -3, -6
1503686830712,-8, -8, -11, -6, -1, -2, -3, -9
1503686830734,-1, -2, 1, 2, 0, 0, -5, -7
1503686830750,3, 5, 2, 0, 2, 2, 2, 0
1503686830772,-3, -4, 0, 1, -2, 0, -4, -1
1503686830794,1, -2, -9, -6, -1, -1, 4, 8
1503686830809,-6, 2, 1, -2, -3, -1, -2, -7
1503686830832,4, 8, -2, -2, -4, -2, 3, 10
1503686830854,-3, -1, 4, 3, 3, -1, -3, -3
1503686830869,1, -3, 0, -1, -1, -1, -2, -6
1503686830892,1, 0, 4, 0, 1, 0, -4, -2
1503686830916,5, 1, 2, 0, -1, -1, 2, 22
1503686830929,2, 2, 1, 0, 0, 0, 0, -1
1503686830952,3, -5, 0, 4, 4, 4, 1, -2
1503686830974,-9, -8, -4, -6, -2, -4, -6, -16
1503686830990,-2, -1, -2, -6, -4, -3, -5, -9
1503686831012,-1, 6, 8, -1, -1, -1, -2, 0
1503686831034,4, 1, 0, -1, -3, -2, -1, -2
1503686831051,-2, -4, -9, -3, -2, -2, -1, -2
1503686831072,3, 12, 12, 7, 3, 3, 3, 2
1503686831095,5, 0, 0, 1, 0, 3, 9, 5
1503686831109,-6, -5, -11, -5, -2, -2, -5, -18
1503686831125,6, 14, 6, 4, 0, 0, 2, 5
1503686831140,0, -1, 1, -3, 0, -1, -2, 8
1503686831162,0, 5, -3, 0, 1, -2, -2, -1
1503686831185,-5, -11, -9, -9, -3, 0, -1, -2
1503686831201,0, -4, -4, -4, -3, 0, 2, -4
1503686831223,4, 15, 9, 5, 2, 2, 4, 5
1503686831244,-1, -2, -1, 2, 0, -2, -2, -12
1503686831252,-3, -1, 1, -1, -1, -1, -2, -6
1503686831274,4, 5, 0, -1, -2, 0, -3, -6
1503686831296,-2, 0, 6, 5, 3, 3, 5, 13
1503686831312,1, 2, 2, 0, 0, -2, -4, -3
1503686831334,1, -10, -8, -6, -5, 1, 4, 15
1503686831356,9, 3, 1, -5, -2, -1, 9, 24
1503686831372,-4, -4, -6, -2, -1, -2, -3, 1
1503686831395,-3, -1, 2, 0, -1, 1, -1, -2
1503686831403,-3, -4, -6, -7, -4, -3, -8, -20
1503686831425,-2, -3, -3, -5, -5, -3, -1, -7
1503686831447,1, 1, -2, -3, -2, -2, -2, 0
1503686831463,-4, -3, -3, -3, 0, -2, -5, 4
1503686831484,2, 7, 6, 6, 2, -1, 2, -7
1503686831507,6, -2, -4, -6, -6, -1, 6, 25
1503686831522,-2, 4, -4, -1, 0, -2, -3, -5
1503686831544,3, 1, 5, 4, 3, -1, -1, 1
1503686831567,-6, -5, -2, -3, -3, 0, -4, -15
1503686831582,-2, -5, -2, -1, -2, -2, -1, -13
1503686831604,2, 8, 8, 2, 1, -2, 0, 9
1503686831627,6, 7, 7, 6, 3, 0, 5, 8
1503686831642,-3, -6, -9, -8, -1, -1, 0, 0
1503686831665,-1, -1, -2, -1, 0, -3, -9, -21
1503686831689,2, 4, 1, -1, -3, 0, 0, 3
1503686831702,0, -5, 1, 1, 1, 3, 3, 6
1503686831724,4, -2, 0, 1, 0, 3, 5, 24
1503686831747,-1, 5, 2, 2, 0, -2, -1, -5
1503686831762,-4, -6, -3, -4, -1, -1, -3, -9
1503686831784,-1, -4, -4, -1, -1, 0, -2, -11
1503686831807,-1, -2, -2, -2, -4, -3, -1, 1
1503686831824,-2, 2, 2, 6, 2, 0, -1, -4
1503686831844,-1, 1, 1, -1, -3, -4, -3, -2
1503686831867,0, 1, -2, -2, 0, 1, 1, -2
1503686831883,-1, -5, -2, 1, 0, -2, -2, 1
1503686831904,0, -5, -4, -5, -3, 0, -2, -1
1503686831927,-2, 0, 0, -1, 1, -1, -2, -3
1503686831942,-1, -2, -1, 0, -1, -2, -2, -2
1503686831964,-2, -2, -1, -2, -2, 0, -1, 0
1503686831987,1, 0, -2, -2, 0, 1, 1, 0
1503686832002,0, -3, -5, -2, -1, -2, -1, 0
1503686832025,-5, -1, -2, -2, -1, 0, -2, -3
1503686832047,2, 3, 2, 1, 1, -1, 1, 3
1503686832064,1, -1, 0, 4, 0, -2, -2, 1
1503686832084,0, 0, 3, 2, -2, 0, 3, 0
1503686832107,0, 4, 3, -1, 1, 0, -3, 0
1503686832126,-9, -5, -2, -2, -2, -2, -2, -4
1503686832144,0, 0, -4, -1, 0, 0, 1, 0
1503686832168,1, -3, -2, -4, 0, -1, 0, 0
1503686832182,1, -4, -1, 0, -1, -2, -3, -2
1503686832205,1, 2, -1, -1, -2, 0, 0, 0
1503686832227,3, 1, 3, 3, -1, 0, 1, 3
1503686832235,-4, -3, -1, -3, -1, -1, -1, -6
1503686832256,2, 2, 4, 0, -3, 0, -1, -6
1503686832279,1, 2, 0, 0, 1, 1, 0, 3
1503686832295,-2, -5, -2, -3, -2, -1, -1, -3
1503686832316,3, 4, 4, 0, 0, -1, -2, -1
1503686832339,-3, -3, -1, -2, -2, 0, -1, 2
1503686832354,-2, 1, -5, -3, 0, -2, -3, -2
1503686832376,-3, -1, 1, 0, -3, -4, -1, -3
1503686832399,-3, -3, -1, 1, 0, -1, -1, -2
1503686832414,1, 4, -1, 0, 0, 0, 2, 2
1503686832436,0, 3, 7, 3, 2, 0, 0, -2
1503686832461,0, -7, -2, 2, -1, 2, 0, 2
1503686832474,0, 2, -2, -3, -1, -2, -1, 0
1503686832498,-3, 2, 1, 2, -1, -1, -2, -1
1503686832519,-2, -3, -2, -2, -4, -2, -2, -3
1503686832534,-2, -7, -4, 1, 2, -1, 1, 2
1503686832556,-3, -7, -7, -3, -2, -2, -1, -1
1503686832579,-1, -5, -2, -1, -2, 0, 0, 0
1503686832595,0, 1, 2, 1, -1, -2, -2, -2
1503686832616,-1, 0, -2, -1, -1, 0, -1, -1
1503686832639,7, 10, 1, -2, -1, 0, -1, 1
1503686832664,-2, 0, 3, 1, 1, 0, 0, 0
1503686832676,-6, -4, -6, -5, -1, -3, -2, -4
1503686832700,-2, -4, -6, -2, 1, -2, -2, -5
1503686832714,2, 1, 6, 1, 2, 0, 1, 5
1503686832736,0, -9, -5, -3, -2, 0, 0, 0
1503686832759,6, 0, -3, -1, -1, -1, -1, -2
1503686832774,-7, -3, 0, 1, -2, 0, -2, -3
1503686832790,-2, -2, 0, -2, 0, -1, -1, -5
1503686832806,-1, -1, -3, 2, 4, 1, 0, 2
1503686832830,-1, -1, 1, -2, -1, -1, -3, -2
1503686832849,5, -1, -1, -1, -2, -1, 2, 2
1503686832867,-4, 2, 1, 0, -1, -3, 0, -1
1503686832887,-4, -3, -3, -1, -1, -2, -2, -1
1503686832899,-8, -5, -3, -2, -2, 0, 0, -4
1503686832916,1, -2, 0, -1, 1, -1, -4, -1
1503686832939,3, 0, 0, -2, -3, -1, 0, 2
1503686832954,1, -1, -2, -2, -1, 0, -1, 0
1503686832977,2, 2, 3, 5, 2, 0, 0, 1
1503686832999,-2, -1, 0, 3, -1, 1, -2, 1
1503686833014,-2, -2, -2, -2, 1, 0, 0, 0
1503686833037,-1, 1, 5, 0, 0, -1, 1, 0
1503686833058,-2, -5, -3, -1, -3, -2, -2, -2
1503686833074,3, 0, -3, -4, -1, 0, 0, 1
1503686833100,2, 1, -1, -5, -2, -1, -2, 2
1503686833119,-3, 0, 0, 1, -1, 1, -1, -2
1503686833141,-1, 2, -2, 1, 0, -1, 1, 1
1503686833167,1, -3, -1, -4, -1, -1, 0, 2
1503686833178,-3, -1, -2, -1, -2, -1, -1, -2
1503686833202,0, -2, -2, -3, -1, 0, -1, -2
1503686833217,-1, -2, -2, -2, -2, -3, -3, -4
1503686833239,-1, 1, 2, 0, 2, 0, 1, 1
1503686833261,-1, -3, -4, 4, 1, -1, 1, 1
1503686833284,0, -1, -1, -5, -2, -2, -3, -1
1503686833301,-1, -3, 0, -1, -2, 0, 1, -1
1503686833321,5, 3, 0, -1, 0, 1, 4, 12
1503686833337,-5, -2, -2, 1, 0, -2, -5, -16
1503686833358,1, 0, 0, 1, -4, -1, -2, -1
1503686833381,-4, 1, 2, 2, -1, -1, 0, -1
1503686833397,-3, -3, 0, -1, 0, -2, -3, -1
1503686833418,-6, -2, -1, -2, -1, -1, 0, -8
1503686833442,-1, -1, -1, -2, -1, -1, 2, 3
1503686833457,-1, -1, -1, -5, -3, -2, -3, -4
1503686833479,-1, 2, -2, -1, 0, -1, -3, -5
1503686833503,3, 0, 1, 0, 0, -1, 1, 6
1503686833517,0, 1, -3, 1, -2, -1, -4, -14
1503686833539,1, -1, 0, -3, -2, -1, 0, 8
1503686833561,-4, -2, -1, 0, 1, 0, 0, -7
1503686833577,12, 4, 2, 1, 2, 2, 7, 33
1503686833598,1, -3, -1, -2, -1, 1, 2, 5
1503686833621,-4, -1, -1, 2, 1, -1, -2, -9
1503686833637,-4, -1, -5, -4, -3, -1, -2, -6
1503686833659,-1, 0, 1, 0, -1, -1, -4, -5
1503686833681,0, 0, 0, -2, -1, 1, -3, -3
1503686833697,-1, -4, -3, -2, -1, 0, 4, 3
1503686833718,5, 5, 3, 1, 1, -1, -1, 0
1503686833741,-2, -2, 2, 0, 0, -1, -4, -5
1503686833765,-6, -5, -4, -1, -2, -4, -5, -7
1503686833780,-1, -10, -5, -3, -2, 0, 0, -3
1503686833803,-10, -6, -9, -5, -4, -4, -2, -10
1503686833825,2, 8, 11, 9, 2, 1, 2, -2
1503686833840,2, 0, -1, 0, 1, 2, 1, 6
1503686833862,2, 12, 19, 15, 7, 3, 4, 4
1503686833885,-8, -11, -12, -11, -7, -5, -5, -2
1503686833900,9, 1, 0, -3, -4, -1, 6, 17
1503686833922,-3, -3, -3, -3, 0, 0, -2, -8
1503686833945,-2, 0, 5, 6, 4, 1, -4, -3
1503686833960,-8, -3, -6, -5, -3, -2, -4, -9
1503686833983,0, 1, 1, -2, -1, -3, -3, -2
1503686834005,0, -1, -1, 0, 3, 2, -1, -3
1503686834020,-3, -3, -3, -3, 0, 0, 0, -6
1503686834043,1, 2, -1, -5, -3, 1, -4, 6
1503686834065,1, -1, -4, -4, -2, -1, 4, 16
1503686834081,0, 1, -2, 1, -2, -5, -1, -4
1503686834105,-1, 1, -1, 1, 1, 1, 0, 3
1503686834125,9, 5, 6, 2, 1, 1, 6, 11
1503686834141,-1, 11, 6, 7, 1, -3, -9, -14
1503686834162,12, 5, 6, -2, -1, 1, 9, 5
1503686834185,-9, -12, -8, -4, -3, -1, -2, -1
1503686834201,-2, -7, -6, -2, -2, -1, 1, 4
1503686834222,3, 1, 4, 2, 4, -3, -2, 1
1503686834245,-5, -3, -2, -4, -2, -2, -5, -16
1503686834260,-14, -7, -2, 2, 0, -3, -6, -10
1503686834283,-6, -3, -4, -5, -1, -3, -1, -5
1503686834308,3, -3, -1, 2, -1, -2, -3, -3
1503686834320,-2, 0, 0, -1, 0, 0, 1, -4
1503686834342,0, -8, -12, -6, -5, 1, 1, 13
1503686834365,-12, -6, -9, -8, -5, -3, -4, -15
1503686834380,3, -3, 1, 2, 2, 0, -3, 8
1503686834409,-9, -8, -2, -2, -2, 1, 1, 3
1503686834432,-3, -10, -5, -2, -2, -6, -7, 1
1503686834443,3, 5, 2, 2, 1, -1, -8, -16
1503686834462,0, -6, -8, -4, -3, -3, -1, 1
1503686834485,-4, 4, 2, 0, -1, -2, -1, -6
1503686834502,10, -1, 1, 1, 0, 2, 5, 18
1503686834522,0, 8, -3, -3, 0, 0, -1, -7
1503686834546,7, 4, 2, -2, -1, 1, -1, -7
1503686834560,-2, 1, 4, 2, 1, 1, -2, -12
1503686834583,-1, 4, 4, 1, 0, -3, 0, -6
1503686834605,3, 2, 3, 4, 0, 0, 2, 4
1503686834620,1, 3, 4, 2, 2, -3, 0, -2
1503686834644,-2, -4, -8, -6, -4, -1, -1, 2
1503686834665,0, 0, 4, 9, 10, 3, 1, 2
1503686834680,-7, -6, -2, -4, -5, -1, 0, 1
1503686834702,-13, -12, -7, -8, -4, -4, -5, -4
1503686834725,-1, 1, -1, -1, -4, -5, -5, -3
1503686834747,3, 6, 9, 8, 5, -1, 3, 3
1503686834754,-8, -2, -2, 1, 0, 1, -4, -17
1503686834769,-1, -1, -1, -1, 0, 0, 3, 8
1503686834792,4, 1, -1, 0, -2, -2, -3, -6
1503686834815,0, -5, 0, 4, 2, 0, 2, 19
1503686834829,-8, 2, 6, 0, -1, -4, -9, -12
1503686834852,10, 10, 6, 5, 3, 5, 5, 6
1503686834874,6, 3, 2, -2, -3, -3, 2, 9
1503686834889,2, -2, -2, 3, 4, 2, -2, -14
1503686834912,5, 12, 8, 1, 0, 1, 4, 5
1503686834934,-14, -6, -4, -6, -1, -3, -5, -16
1503686834949,4, -14, -12, -6, -4, 0, 6, 12
1503686834972,6, 0, -4, 1, 0, -1, -1, 6
1503686834994,8, -10, -8, -5, -6, -4, 2, 13
1503686835017,-16, -8, -5, -4, -5, -1, -3, -15
1503686835032,6, -3, 3, 3, 1, 3, 8, 38
1503686835054,-10, -5, -3, -2, 0, -1, 0, 3
1503686835078,-2, 0, 1, 0, -2, -4, -9, -11
1503686835086,0, 5, 2, 0, -2, -1, 4, 0
1503686835107,-7, -9, -8, -3, -1, -1, 0, -3
1503686835122,-4, -8, -11, -8, -3, -1, -3, -1
1503686835146,-4, -6, -1, -3, -3, -1, 5, 7
1503686835167,-2, -2, -6, -7, -1, 0, 2, -2
1503686835182,19, 5, -4, 2, 0, 3, 12, 48
1503686835205,-4, -5, -5, -3, -5, -1, -2, -16
1503686835227,-16, -6, -5, -3, 0, -4, -3, -31
1503686835242,-2, -4, -2, -2, -2, -4, -9, -8
1503686835265,4, -3, 1, -2, 1, 0, 0, 6
1503686835287,-15, -6, 0, 2, 0, -2, -6, 8
1503686835302,-2, 15, 4, 1, 1, 2, 1, -23
1503686835325,3, 3, 3, 4, -1, 0, 0, -10
1503686835332,2, -9, -6, -7, -3, 0, 10, 28
1503686835354,5, 3, 0, 1, 1, 0, 1, -13
1503686835376,29, 9, 9, 0, -1, -1, 7, 45
1503686835385,-4, 2, 3, -3, -1, 1, 4, 6
1503686835407,4, 4, 9, 3, -1, 1, 9, 22
1503686835423,5, -4, 0, 3, 4, 2, 1, -6
1503686835445,0, -3, -6, -3, -1, 0, -11, -10
1503686835466,-3, -4, -1, -2, -3, -1, -1, -8
1503686835474,0, -5, 0, -1, 0, 2, -1, -17
1503686835497,5, 10, 14, 4, 2, 0, 3, 6
1503686835512,0, 2, 5, 3, 2, 1, -4, 10
1503686835534,8, 7, 6, 6, 1, 2, 7, 25
1503686835558,5, -3, 1, -1, -2, -4, -6, 15
1503686835572,-14, -10, -8, -1, 1, 0, -2, -10
1503686835594,-9, -11, -9, -2, -3, 0, -3, -18
1503686835618,-3, -4, -9, -5, 0, -2, -6, -36
1503686835632,17, 29, 17, 4, 2, 5, 9, 20
1503686835654,-3, -10, -12, -12, -7, -7, -5, 23
1503686835677,7, 3, 13, 7, 2, 6, 21, 54
1503686835693,-19, -6, 0, 0, 0, -4, -12, -47
1503686835714,5, -9, -3, -5, 0, 2, 8, 24
1503686835722,12, 15, 6, 6, 0, 0, 7, 31
1503686835745,3, -7, -3, 2, 0, -1, -3, 14
1503686835767,7, 9, 18, 13, 3, 1, 11, 21
1503686835789,-12, -31, -27, -13, -5, -2, -3, -12
1503686835805,-14, -6, -5, -4, -4, -3, -6, -19
1503686835827,-14, -4, 7, 2, 6, 6, -9, -50
1503686835842,8, 8, -2, -5, -8, -6, -7, -2
1503686835865,-3, -8, -9, -5, 0, -1, -1, -20
1503686835887,-6, -2, -1, 0, -1, 1, 11, 9
1503686835902,12, -6, -8, -1, 0, 3, 15, 57
1503686835918,0, -4, -5, -1, -1, -1, -2, -17
1503686835939,-3, -17, -16, -9, -6, -6, -2, 0
1503686835954,1, 4, 3, 2, 0, 1, 1, -18
1503686835977,6, 4, 2, -3, -3, 1, 8, 16
1503686835998,0, -15, -17, -7, -2, 0, -2, 2
1503686836014,-7, -1, -3, -1, -1, -4, -10, -27
1503686836037,1, 24, 25, 7, 0, 0, 1, -12
1503686836058,4, 1, 8, 3, 3, 2, 1, 17
1503686836074,-6, -2, -6, -1, 0, -1, -2, -10
1503686836097,2, -8, -8, -4, -2, -2, 2, 12
1503686836120,-3, 2, 3, 2, 1, 0, 5, -18
1503686836134,-3, -9, -7, -2, -1, -2, -1, 0
1503686836157,-4, 0, -2, 2, 1, -1, -1, -4
1503686836179,2, -5, -4, -4, -3, -2, -2, 13
1503686836195,-3, -3, -1, -3, 1, -2, -2, -6
1503686836217,1, -4, -5, -3, -1, -1, 3, 7
1503686836239,2, 0, -3, -2, -2, 0, 0, 7
1503686836255,1, 2, 2, 1, 0, 1, -1, 2
1503686836277,-1, -2, -2, -2, -1, -2, 2, 3
1503686836299,-1, 5, 6, 4, -1, 1, -1, -3
1503686836314,0, 0, 0, 2, 0, -1, -4, -1
1503686836337,-1, 0, -4, -2, -1, 0, 0, -1
1503686836359,-1, -1, -1, 0, 0, 0, 0, 1
1503686836374,-3, -9, -6, -6, -3, -2, -1, -1
1503686836397,0, 2, 2, 2, -2, -1, -2, -2
1503686836424,0, 2, 1, 0, -1, 2, 1, 0
1503686836434,2, 4, 4, 2, 0, 0, 0, 1
1503686836458,2, 9, 12, 7, 3, -1, 0, 1
1503686836479,-3, -8, -11, -8, -3, -2, -1, -1
1503686836494,-7, -1, -1, 0, -1, -1, -1, -4
1503686836516,5, -3, -10, -7, -4, -3, -3, 0
1503686836539,-2, 6, 6, 6, 1, 0, -2, -3
1503686836558,-3, -5, -6, -4, -3, 0, -4, -3
1503686836577,0, -11, -5, 0, 1, 2, 0, 2
1503686836599,1, 1, 5, 2, 2, 2, 5, 11
1503686836614,12, 18, 27, 15, 7, 6, 7, 5
1503686836637,-3, -5, -4, -7, -4, -4, -3, -5
1503686836660,-4, -4, -6, -7, -4, -2, -3, -2
1503686836674,-3, 1, -1, 0, -1, -1, -1, -1
1503686836697,-5, -16, -13, -10, -3, -4, -4, -4
1503686836705,0, -7, -2, -1, -1, 1, 1, 3
1503686836727,1, -3, -11, -7, -4, -2, -2, 0
1503686836749,0, 2, 5, 3, 0, 0, 0, 0
1503686836766,1, 6, -1, -1, 0, -1, -2, -1
1503686836787,-2, 1, 1, 1, 1, -1, -1, -2
1503686836809,1, 5, 14, 10, 3, 3, 2, 0
1503686836826,1, 2, -1, -4, -3, 1, 0, -1
1503686836847,-4, 0, 6, 0, 0, -2, 0, 11
1503686836869,4, 0, -4, -2, -3, -3, -2, -7
1503686836892,0, 0, -2, 0, -1, -1, -1, -4
1503686836907,-5, -3, -3, -2, 0, 0, -2, -2
1503686836929,8, 2, -2, -1, 1, 1, 1, 1
1503686836951,7, 6, 2, -1, -1, -1, 1, 6
1503686836966,0, 2, 1, -3, -1, -3, -1, 1
1503686836981,1, 3, 1, -1, -3, 1, -4, -3
1503686836997,-3, -2, 1, -1, 0, 0, -2, -4
1503686837019,-1, 0, 1, -1, -1, 0, 1, -1
1503686837041,-2, 1, -1, -3, -5, -2, -1, -1
1503686837062,5, 2, 0, -1, -2, 0, 1, 3
1503686837072,7, 3, 0, 6, 4, 3, 1, 2
1503686837087,-4, 0, 2, 3, 2, -1, 0, -2
1503686837109,-1, 0, -2, 2, 3, -1, -1, -3
1503686837132,3, -5, -5, -6, -4, -5, -7, -3
1503686837140,-4, -2, -1, 1, -1, -3, 0, 0
1503686837161,-8, -7, -5, -6, -4, 2, 0, -4
1503686837176,1, 0, -2, -1, 1, 5, 4, 2
1503686837199,0, 1, -2, -2, -3, -2, -3, -3
1503686837221,5, 0, 2, 1, 3, 1, 1, 3
1503686837237,8, 2, -2, -2, 1, -4, -1, 1
1503686837261,-3, -3, -1, 2, 1, -2, -2, 0
1503686837281,-1, 1, 1, 2, -1, -1, -2, 0
1503686837297,-1, 1, 0, -3, -1, 0, -2, -1
1503686837319,-3, -2, 0, 2, 0, 1, 3, 1
1503686837341,-7, -3, -1, -1, 0, 1, -3, -3
1503686837357,0, 0, 0, -2, -3, -4, -1, -2
1503686837379,-6, -4, -4, -2, 1, -2, 0, 0
1503686837401,-4, -4, 0, -1, -3, -3, 0, 0
1503686837411,3, 1, 0, -4, -2, -5, -2, 1
1503686837432,-4, -2, 3, -3, -2, -2, -2, -2
1503686837447,2, 3, 1, -1, 0, -2, 4, 7
1503686837469,5, 4, 1, 1, 0, 2, -1, 1
1503686837492,-1, -5, -3, -2, -1, 0, 1, 0
1503686837507,-1, -2, -1, -2, -1, 2, -1, -2
1503686837530,-4, -1, -3, 0, 0, 3, 2, 1
1503686837551,3, 3, 4, -1, -1, 1, 0, 2
1503686837568,2, 0, -1, -3, -2, -3, -3, -2
1503686837589,1, 0, 0, 1, 0, 0, 0, 1
1503686837612,-2, -6, -1, -3, 0, 0, -1, -3
1503686837627,2, 4, 3, 3, 2, -1, 3, 4
1503686837649,-4, -2, 0, 0, 0, -2, -3, -6
1503686837672,-5, -3, -3, -4, -2, -3, -2, -4
1503686837687,2, 1, 0, -2, -2, -1, -1, -1
1503686837709,-5, -1, -1, 1, -1, -1, 0, 0
1503686837732,4, 1, 2, 1, 3, 2, -1, -1
1503686837747,0, 0, -3, 0, 0, -1, 1, 0
1503686837769,1, 2, 3, 3, 2, 1, 0, -2
1503686837793,-2, 2, 11, 5, 1, 0, -1, 2
1503686837814,-4, -2, -4, -5, -4, -4, -3, -6
1503686837832,-3, -5, 1, 5, 0, -2, -4, -2
1503686837851,3, -1, -5, -5, -1, 0, 8, 20
1503686837875,-8, -8, -7, -7, -4, -2, -5, -11
1503686837889,6, 3, -2, 1, -1, -1, -1, -4
1503686837911,1, 0, -2, -1, -1, -1, -1, 0
1503686837919,-7, -9, -9, -6, -5, -4, -3, -7
1503686837941,-2, 0, -1, 1, -6, -8, -1, 1
1503686837966,-3, 0, 0, 0, -1, -3, -1, -1
1503686837979,-3, -4, 0, -1, -1, 0, -3, -6
1503686838001,-1, -5, -3, -1, -3, -2, -4, -2
1503686838023,-1, -3, 0, -3, -1, 1, 2, 3
1503686838040,-5, -2, -1, -3, -1, 0, -9, -14
1503686838061,-17, -3, -10, -4, -3, -3, -2, -15
1503686838083,0, -5, -4, -3, 1, -1, -1, -3
1503686838100,-3, 3, 5, 6, 3, 1, -1, -4
1503686838121,12, 0, 1, -3, -1, 2, 5, 13
1503686838143,-1, 5, 5, 4, 3, 1, -3, -17
1503686838152,-7, -2, -6, -7, -4, -6, -9, -4
1503686838175,2, -3, -6, 0, 0, -3, -2, -5
1503686838189,4, 0, 3, 1, 0, 1, 9, 8
1503686838211,11, 20, 20, 8, 7, 6, 7, 14
1503686838234,-7, -13, -14, -7, -6, -4, -7, -7
1503686838250,-8, -10, -6, -2, -3, 1, -1, -1
1503686838272,6, 0, -2, -4, 0, 0, 1, 3
1503686838294,-7, -4, -7, -4, -3, -2, -5, -14
1503686838310,2, -4, -8, -2, -2, 0, 6, 7
1503686838331,-5, -3, -3, -1, 1, -3, -5, -16
1503686838354,3, 6, 5, 0, -2, -2, -3, -4
1503686838369,-10, -9, -4, -3, -2, -1, -1, -4
1503686838392,4, -4, 1, -1, -2, 0, 0, -2
1503686838414,-13, -17, -13, -9, -4, -3, -9, -21
1503686838430,1, -3, -2, -2, 0, -1, 0, 11
1503686838452,2, 3, -6, -3, -2, -3, -2, 7
1503686838474,7, 8, 4, 0, -1, -1, -3, -8
1503686838489,0, -1, 0, 2, 1, 1, 2, 0
1503686838512,6, -6, -6, 0, 0, 0, 5, 20
1503686838536,-1, -7, -4, -2, 0, 0, 4, 3
1503686838549,0, 4, 2, 1, -2, -2, -5, -7
1503686838574,-4, 0, 3, -1, 0, -2, -2, 0
1503686838594,6, -1, -1, -1, -3, 1, 4, 26
1503686838609,-7, 1, 4, 2, 2, 0, -6, -13
1503686838631,-8, -8, -3, -5, -2, -4, -6, -17
1503686838654,5, 14, 14, 7, 3, 5, 10, 5
1503686838671,-3, 3, 4, -2, -1, 0, 0, -1
1503686838691,1, -2, -4, 1, -1, -1, -2, -4
1503686838715,-4, -3, -2, -3, 1, -2, -2, -15
1503686838738,-5, -6, -5, -4, -4, -2, -1, -2
1503686838751,-3, -4, -3, -1, -1, 1, 3, 4
1503686838776,2, 3, 1, -1, 1, 1, 1, 2
1503686838796,3, -2, -2, 0, -2, -3, -3, 4
1503686838812,-2, 1, -1, 2, 0, -1, 0, -4
1503686838834,0, 2, 5, 0, 1, -1, -4, -2
1503686838856,-4, -8, -3, -3, -3, -1, -1, 0
1503686838874,7, -6, -4, -3, 0, 0, -3, 10
1503686838894,2, 2, -4, 2, 1, 0, 2, 6
1503686838917,0, 2, -1, -1, -2, -3, -3, -5
1503686838931,-4, -7, -7, -9, -4, -4, -3, 0
1503686838954,-1, -2, -1, -1, 0, 0, 0, 2
1503686838980,1, 0, -3, 2, 1, 0, 1, 1
1503686838991,-7, 0, 1, 2, 0, 1, -2, -6
1503686839015,-3, 3, 11, 4, -1, -2, -6, -17
1503686839036,2, 2, -2, -4, 0, -1, 4, 7
1503686839052,0, -1, -1, -5, -3, -1, -1, 15
1503686839074,-4, -1, 1, 4, 1, 1, -2, -18
1503686839096,-4, -2, -1, -1, 1, 1, -2, -13
1503686839112,2, 3, 7, 5, 2, 0, 0, 4
1503686839134,2, -2, -3, -2, -1, -1, 3, 8
1503686839157,-2, -5, -4, -4, -2, -2, -6, 2
1503686839173,-1, 0, 0, -3, -1, -1, 0, -8
1503686839194,2, 5, 3, 3, -1, -2, -1, 4
1503686839217,2, -1, -4, -2, -3, 0, 0, 7
1503686839232,-2, -6, -9, -6, -2, -2, 0, 0
1503686839254,7, 10, 5, 1, 0, 0, 2, 10
1503686839277,-9, -6, -1, -2, 0, 0, -5, -13
1503686839291,-1, -2, -5, -1, -2, -2, 0, -3
1503686839310,-9, -7, -6, -6, 1, 0, -4, -19
1503686839329,1, 3, 4, 2, -1, 1, -2, 2
1503686839336,-3, -2, -8, -3, -1, -3, -4, -10
1503686839352,1, 0, 5, 1, 1, 3, 3, -5
1503686839376,3, 4, 3, 6, 2, -3, -4, -1
1503686839390,-6, -12, -8, -4, -4, -2, -1, -5
1503686839404,1, 1, 3, 5, 2, 1, -3, -5
1503686839427,-2, 4, 0, -1, -2, -2, -4, -11
1503686839449,-6, -1, -2, -2, 0, -2, -3, -4
1503686839456,1, -4, -3, -1, -2, 1, 1, 0
1503686839472,-1, -3, -2, -3, 0, -2, 1, -4
1503686839494,-1, -5, 2, -4, -3, -3, -1, 2
1503686839516,2, 5, 0, 2, -1, -3, -2, -3
1503686839531,-1, -1, -4, -6, -4, -1, 0, 3
1503686839548,-1, -3, -6, -6, -3, -2, -1, 0
1503686839569,-4, -1, 1, 0, 0, 0, -1, -11
1503686839586,3, 0, -1, -6, -1, -3, 3, 16
1503686839607,4, 11, 4, -1, 0, 1, 1, -2
1503686839630,1, -2, 2, 5, -1, -3, -3, 1
1503686839645,0, 5, -2, 1, -1, -4, -2, -6
1503686839667,5, 16, 11, 2, 1, 1, -2, 4
1503686839690,-7, -9, -6, -2, -1, -1, -4, -9
1503686839705,-1, -7, -2, 3, 1, 0, -1, 5
1503686839727,-4, -5, -4, -2, -2, 0, -1, -5
1503686839749,-4, -6, -3, -2, -1, -2, -2, -7
1503686839764,0, 3, 0, 3, 1, -2, 1, 0
1503686839788,2, -1, -2, -2, -1, 0, 2, 6
1503686839812,-1, -5, 0, 0, 1, 2, 0, 2
1503686839824,0, 1, 1, -1, -1, -1, 2, 2
1503686839848,-2, -4, -5, -5, -3, -2, 0, -4
1503686839869,-3, -2, -4, -3, 0, -2, -6, -12
1503686839885,-3, -2, -1, 1, -1, -2, -2, 2
1503686839907,-1, 1, 0, -3, -2, -1, 0, 2
1503686839930,0, 0, 0, -2, -1, -1, 1, 1
1503686839947,0, 5, 1, 0, 0, 0, -1, -2
1503686839959,-1, -4, -2, -4, -1, -2, 0, 0
1503686839974,0, 0, -2, -1, -1, 0, -1, -1
1503686839996,1, 0, 1, 1, 0, 0, -1, 3
1503686840019,0, 1, -1, -2, -2, 0, -1, 0
1503686840034,-3, -1, -2, -1, -1, 0, 0, -3
1503686840057,1, -1, -1, -2, -3, -2, -2, -1
1503686840083,-1, 2, 2, 2, 1, 0, 0, 1
1503686840094,-2, -3, -3, -5, 0, 0, -1, 1
1503686840118,0, 3, -1, -2, -3, -2, -2, -2
1503686840125,0, 1, -3, -3, 0, -1, -1, 2
1503686840150,0, 0, -2, 0, 0, -1, -2, -3
1503686840176,2, 3, 2, 0, 0, 0, -1, 1
1503686840184,-1, -5, -3, 1, 0, 0, -1, 0
1503686840207,-3, -2, -2, -2, -3, -1, -3, -3
1503686840230,-2, -4, -4, -1, -1, -2, 0, -1
1503686840244,-2, 0, 0, 1, -1, -3, 0, -1
1503686840267,1, 4, 0, -1, -2, -2, 3, 1
1503686840290,0, 1, -2, -4, -2, 1, -2, -1
1503686840305,2, -3, 2, 2, 2, 1, 1, 1
1503686840327,0, 1, 2, 0, 0, -1, -2, 0
1503686840350,2, 1, 0, 2, 1, -3, 0, -1
1503686840357,0, -4, -4, 1, -1, -3, -2, -2
1503686840379,2, 6, 5, 5, 1, 1, 1, 1
1503686840394,-4, -10, -9, -6, -2, -2, -2, -3
1503686840417,3, -2, -1, 0, 1, 1, 0, 1
1503686840439,1, 0, -1, -5, -2, 0, 0, 1
1503686840454,0, 1, 1, 1, -2, -2, -1, -2
1503686840476,0, 2, 4, 3, 2, 1, -1, -2
1503686840499,-1, -3, -5, -3, -4, 0, -3, 0
1503686840514,-4, -3, -1, 0, -2, -1, -2, -1
1503686840536,-1, -4, -2, 1, 1, -1, -4, -2
1503686840559,-1, 3, -3, -2, -2, -3, -3, -4
1503686840574,-3, -5, -3, -4, 0, -1, -1, -1
1503686840596,-1, 4, 6, 1, 1, 0, -1, 1
1503686840612,3, -1, 2, 2, 1, 1, 1, 1
1503686840627,0, 1, -1, 0, 0, 1, -2, 0
1503686840642,3, 5, 8, 2, -2, -1, -1, 1
1503686840656,0, 3, 3, 1, 2, -1, 0, 0
1503686840679,-8, -18, -15, -9, -5, -2, 1, -3
1503686840701,0, 7, 7, 5, 0, 1, -1, -3
1503686840710,3, 8, 8, 1, -2, -1, -1, -1
1503686840731,-2, -3, -3, -3, -2, -1, 1, 2
1503686840741,-1, -4, -3, -2, -1, 0, 1, 2
1503686840761,-1, -1, -3, 0, 1, 0, 2, -2
1503686840769,-5, -6, -7, -3, -4, -2, 1, 0
1503686840791,2, 8, 14, 5, 0, 3, 0, -6
1503686840807,-2, -6, -7, -4, -2, -2, -2, -4
1503686840829,-4, -3, -4, -2, -1, -2, -1, 2
1503686840853,0, 0, 0, -1, -2, -3, -1, -4
1503686840867,0, -3, -2, -4, -3, -2, -4, 1
1503686840890,0, 2, 0, 1, 2, 1, 3, 2
1503686840912,1, 2, 7, 4, 1, 1, 0, 2
1503686840920,-9, -3, 0, -1, 0, -1, -2, -7
1503686840942,4, 8, 5, 0, -2, -1, -1, 2
1503686840957,-2, -5, -4, -3, -2, 1, -2, -2
1503686840979,-3, -4, -2, -1, 1, -1, 1, -1
1503686841002,0, -2, -2, 1, -1, -1, -3, 2
1503686841017,0, -4, -2, -1, -2, 0, 1, 0
1503686841039,-6, -3, 0, -2, -4, -3, -1, -2
1503686841062,-2, 0, -2, -1, -2, -1, -2, -3
1503686841076,4, 0, -2, 0, 1, -2, 2, 3
1503686841099,-4, -2, -1, 1, 1, -1, 0, -4
1503686841122,3, -1, -2, -2, 0, -2, -1, -2
1503686841136,-5, -3, -2, -2, -1, 0, -3, -4
1503686841159,1, 2, 4, 0, -1, -4, -1, -1
1503686841182,3, 4, 2, 1, 1, 0, -2, -1
1503686841198,1, -2, -3, -1, -2, 1, -1, 2
1503686841219,0, -1, 0, 1, 0, 0, 0, -1
1503686841241,-1, 0, -1, 1, -1, -1, 0, 0
1503686841257,2, 3, 1, 1, -1, 0, -1, -1
1503686841279,-2, -3, -5, -3, -2, -2, -1, -2
1503686841302,5, 1, 2, 0, 0, 0, 1, 0
1503686841316,-6, -4, -2, -1, -2, -1, -1, -2
1503686841339,-3, -2, 0, 0, 0, 0, 0, -2
1503686841362,-1, -1, -1, -1, -1, 1, 3, 3
1503686841376,-5, -4, -3, -1, -2, 0, -3, -3
1503686841399,5, 2, 0, -3, 1, -1, 0, 1
1503686841424,-3, -3, -1, 0, 1, -1, 0, -2
1503686841436,3, 3, 4, 1, 1, 1, 1, 2
1503686841452,-1, -3, 0, 0, 1, 0, 0, -3
1503686841467,-6, -5, -4, -5, -1, -1, -3, -5
1503686841490,-2, -2, -1, 5, 4, 1, 0, 1
1503686841511,-4, 1, 4, -2, -3, -2, -2, -5
1503686841534,2, 3, 0, -1, -2, 0, 0, 2
1503686841550,8, 5, 3, -2, 0, 0, 1, 4
1503686841571,-5, -7, -5, -3, -2, -1, 1, 3
1503686841596,-5, -7, -8, -3, -4, -4, -3, -5
1503686841609,14, 19, 22, 12, 6, 5, 4, 5
1503686841631,-9, -10, -12, -12, -7, -3, -2, -2
1503686841654,-1, 3, 5, 25, 20, 6, 3, 2
1503686841670,1, 1, -2, -7, -7, -1, -2, -4
1503686841692,4, -4, -1, -7, -5, -1, 2, 3
1503686841714,-7, -5, -6, -5, -2, -2, -4, -6
1503686841729,-4, -3, -3, -2, 0, -2, -1, -2
1503686841752,-2, 2, 2, -3, -3, -2, -2, -1
1503686841774,-1, -3, -2, -1, -2, -1, -1, 0
1503686841789,-2, -3, -4, -4, -3, -2, -3, -4
1503686841811,0, -3, -1, -3, -3, -2, 0, -2
1503686841835,-4, -4, -1, -3, -2, -2, -1, -1
1503686841849,1, 2, -1, -1, 0, 0, -4, -4
1503686841871,1, 2, 1, 1, -1, 0, -1, 3
1503686841894,-5, -6, -4, -3, -2, -2, 1, -2
1503686841910,4, 8, 9, 4, 0, -1, -1, -1
1503686841931,3, 0, 2, -2, -4, -2, -2, 1
1503686841939,-2, -1, 0, 0, 0, -1, 2, 7
1503686841964,-3, -2, -1, -3, -4, -4, -5, -15
1503686841983,-3, 0, 1, 1, 0, -1, -3, -4
1503686842001,0, 1, 0, 1, -1, 0, 1, 2
1503686842014,-2, -5, -3, -2, 0, -3, 0, 2
1503686842030,2, -1, -7, -3, -1, 0, 4, -2
1503686842051,2, -1, -1, -2, -1, 2, 1, 6
1503686842074,0, -1, -2, -1, 0, 0, 1, 0
1503686842090,0, 0, -2, 1, -1, -1, -1, 3
1503686842112,-1, -2, -2, -3, -1, -2, 1, -1
1503686842134,-7, -2, 2, 3, 1, 1, -3, -3
1503686842149,3, -2, -2, -4, -3, -1, 0, -1
1503686842171,0, -3, -3, 0, 0, -1, 3, 1
1503686842195,-2, 0, 3, -2, -1, -2, -4, -8
1503686842202,-3, -6, -6, -5, -4, -4, -2, -11
1503686842223,-3, -1, -4, -2, -4, 0, 1, 5
1503686842239,-3, -8, -5, -2, 1, 0, -2, -1
1503686842263,-8, -10, -2, -5, -3, -4, -8, -14
1503686842283,5, 0, 3, 3, 1, 1, 2, 1
1503686842299,6, 5, 5, 2, 1, 0, 4, 13
1503686842321,7, 14, 10, 3, 1, -2, -4, -5
1503686842343,0, -2, -4, -3, -2, 0, 0, 2
1503686842359,-4, -5, -4, 0, -1, -1, -4, -4
1503686842381,-5, 3, 1, 2, 0, -2, -3, -9
1503686842403,-1, -4, -5, -4, -1, 1, -1, 1
1503686842419,1, 0, -1, 0, -1, 0, 3, 2
1503686842441,-6, -1, 3, 0, 1, 0, -1, -4
1503686842464,-7, -6, -2, -2, -3, -3, -3, 4
1503686842473,1, 4, 1, 1, -1, 1, 0, -1
1503686842494,9, 11, 6, 2, 0, 0, 0, 3
1503686842516,-5, -7, -6, -5, -3, -3, -3, -2
1503686842532,2, -5, -5, -2, -2, -2, 0, 5
1503686842554,-4, -3, -2, -2, -1, -2, -2, -10
1503686842576,-5, -1, 2, -1, 0, 0, -3, 0
1503686842592,-3, -6, -5, -1, -3, -2, -1, -5
1503686842614,4, 1, -1, 0, 0, -1, -1, 3
1503686842637,0, 1, -3, -4, -1, -2, -5, -1
1503686842651,1, 3, 3, 0, -2, 1, 2, 2
1503686842674,2, -1, 2, -1, 2, 1, 5, 11
1503686842699,5, 0, -4, 0, -2, -3, 0, 6
1503686842711,-3, -3, -4, -1, -1, -3, 0, -1
1503686842734,-4, -2, -1, -1, 0, 1, -3, -5
1503686842756,-5, -3, -5, -1, -2, 0, -1, -5
1503686842772,0, 5, 6, 1, 1, 0, 0, -3
1503686842795,-3, -5, -3, -2, -4, -1, -2, 3
1503686842816,-8, -13, -8, -3, -1, -2, -4, -4
1503686842834,1, -1, -1, -3, -2, -2, -2, -2
1503686842854,0, 0, 3, 3, 1, 0, 1, -3
1503686842877,-1, 1, 2, 2, 1, 0, -1, -1
1503686842892,-3, -2, -1, -2, 0, -2, -1, -4
1503686842914,1, 0, -2, 0, 0, 0, 0, 0
1503686842936,4, 1, 0, 1, -1, -1, 0, -2
1503686842944,-5, -1, 1, 0, -1, -2, -3, -5
1503686842968,2, 6, 7, 3, 1, 2, -1, 2
1503686842981,-1, -2, -1, -1, -2, -1, 0, -1
1503686843006,-5, -7, -6, -5, -5, -3, -4, -5
1503686843012,0, -2, -3, -2, -2, -1, 4, 4
1503686843035,2, 1, 1, 0, -1, 1, -1, 1
1503686843057,-1, 0, 0, -4, 0, -1, -1, -1
1503686843075,-1, 2, 1, 1, 0, 0, -3, -2
1503686843094,2, 3, 3, 1, 1, 1, 0, 1
1503686843116,0, -7, -6, -2, -2, 2, 6, 13
1503686843132,0, 0, -1, -1, -1, -3, -4, -5
1503686843154,0, 0, 1, -1, -3, -1, -4, -5
1503686843177,-6, -4, 1, -1, -1, 1, -1, -4
1503686843193,-3, -1, 4, -1, 0, -1, -3, -7
1503686843214,-2, 0, 0, -1, -1, -3, -1, -6
1503686843237,2, -1, -2, 1, -1, -2, 0, 5
1503686843252,0, -2, -3, 1, 1, 0, -1, -2
1503686843275,0, 0, 0, 0, 0, 0, -1, -2
1503686843296,1, 3, -1, -3, -3, -1, -4, -3
1503686843312,-2, -3, -5, -6, -4, -2, 1, -1
1503686843336,0, -2, 2, 3, 1, -2, -1, 0
1503686843342,-3, -3, -1, -2, -1, 0, -2, -5
1503686843371,0, 0, -1, 0, 0, -1, -1, -4
1503686843386,-4, -1, 0, -1, -3, -1, -1, -1
1503686843408,0, -7, -5, -5, -1, -2, -1, -2
1503686843424,4, 7, 7, 3, 1, 0, -3, 2
1503686843446,-1, -3, -5, -2, -2, -2, 2, 0
1503686843471,-1, 2, 2, 6, 2, -2, -2, -12
1503686843484,-2, 1, 0, -2, -1, -3, -6, -1
1503686843508,-7, -9, -6, -8, -6, -2, -5, -13
1503686843528,-2, -3, -3, 0, -4, 0, 2, 9
1503686843541,-1, -5, -8, -4, -4, -4, -4, 0
1503686843560,-10, -3, -2, -5, -4, -1, -4, -17
1503686843576,1, -2, -2, 1, -1, -2, 0, -3
1503686843597,2, -2, 4, -1, 0, 1, 0, -3
1503686843619,2, 3, 1, 4, 1, 3, 4, 16
1503686843634,-2, 3, 3, 1, 0, -3, -7, -8
1503686843656,-3, -2, -2, -3, 0, -1, 1, 0
1503686843679,1, 2, -1, 2, -1, -1, -1, -1
1503686843694,2, 4, 4, 1, 0, 0, -1, -3
1503686843716,-1, 0, 0, 7, 2, 0, -1, 0
1503686843740,0, 0, -3, -5, -4, 0, 0, -2
1503686843754,-3, -10, -4, -6, -3, -3, -5, -10
1503686843777,-1, 2, 2, -1, -2, 1, -1, 1
1503686843799,-2, -2, -6, -5, -2, -2, 4, 13
1503686843815,-3, -3, -5, -3, 0, 0, -2, -14
1503686843836,-1, -5, -3, -2, 0, -1, -2, -10
1503686843859,-3, -1, 1, -2, -2, -1, -5, -14
1503686843874,-3, -3, 0, 1, -2, -1, 1, 7
1503686843896,7, 5, 7, 4, 2, 1, 5, 13
1503686843919,-3, -1, -6, -1, 0, -1, 0, -3
1503686843934,2, 7, 9, 3, -1, 0, -2, -1
1503686843956,-4, -11, -10, -9, -6, -3, -4, 5
1503686843979,3, -1, 0, -2, 0, 0, 3, 14
1503686843994,-1, -2, -1, 0, 2, 1, -1, -8
1503686844017,3, 3, 0, 1, 0, 1, -1, -2
1503686844043,0, 3, 1, 2, 1, -3, -1, -2
1503686844061,2, -14, -11, -13, -4, -1, 7, 21
1503686844076,5, -1, -5, -3, -1, 1, 1, 12
1503686844099,-1, 8, 6, 6, 4, 2, -4, -13
1503686844114,-2, 5, 1, 2, -1, -4, -5, -6
1503686844136,-3, -3, -1, -5, -4, -1, 5, 9
1503686844159,-7, -5, 2, 1, -2, -2, -5, -13
1503686844176,-2, 2, 5, 2, 0, 0, -2, -12
1503686844196,-4, 0, -1, 3, 1, 1, -2, -8
1503686844219,-1, 0, -4, -2, -1, 0, -2, -8
1503686844234,5, 6, 2, 3, 0, -1, 1, 10
1503686844256,5, 7, 0, -3, -1, -2, 0, -5
1503686844280,-1, -4, -3, 2, -2, 0, 1, 3
1503686844294,1, 1, 6, 0, 1, 1, 2, 4
1503686844316,-4, -6, -5, -1, -1, 0, -3, -6
1503686844339,-5, -4, -2, -5, -2, -1, -4, -15
1503686844361,0, -4, -2, 1, -1, -2, -1, 8
1503686844378,1, -2, 1, 1, 2, 0, 2, 7
1503686844399,-3, -3, -3, -6, -3, -2, 0, -1
1503686844421,1, -2, -3, -2, -5, 0, 2, 13
1503686844436,-1, 3, 1, 0, 0, -3, -9, -15
1503686844460,1, 1, 1, 2, 3, 3, 2, 2
1503686844482,-2, -3, -4, -2, 0, -1, 0, -2
1503686844496,-1, -1, -2, -4, -2, -2, -3, -6
1503686844519,1, 2, 5, 5, 1, 1, 2, -1
1503686844541,0, 2, -1, 0, -2, 0, 1, 4
1503686844556,-2, -5, -2, -3, -1, -2, 1, 0
1503686844579,3, 8, 5, 4, 1, 0, -2, -2
1503686844601,-4, -2, -4, -6, -3, -3, -2, 0
1503686844616,1, 0, -1, 3, 2, 1, -3, 1
1503686844640,2, -2, 1, -2, -2, -1, 0, 0
1503686844661,-6, -4, -5, -4, -2, -1, -4, -1
1503686844679,1, 3, 7, 6, 2, 1, 1, -1
1503686844699,-1, -3, 0, -3, -3, -1, 0, -3
1503686844721,0, -2, -1, -2, 0, -1, -2, -1
1503686844736,-1, 3, 0, 4, 1, 0, -1, -1
1503686844759,-2, -2, -2, -5, -2, -3, -1, -1
1503686844782,0, -3, -5, -2, -3, -2, 0, -3
1503686844796,-1, -4, -5, -5, -1, -3, 0, 1
1503686844820,0, 0, 4, 2, 3, 1, -2, 0
1503686844842,-1, -3, -3, 1, 0, 1, -1, -1
1503686844850,0, -5, -3, -4, -1, -1, -1, -1
1503686844857,-3, -3, -2, -3, -4, -1, 0, 1
1503686844882,1, -1, -2, -2, -2, -1, 2, 1
1503686844901,-1, -6, -5, -3, -3, 0, -2, -2
1503686844917,-1, -1, 4, 3, 3, 1, 0, -1
1503686844939,2, -1, -3, -3, 0, -1, -1, 0
1503686844961,-2, -1, -5, -6, -2, -3, 0, -1
1503686844976,0, 1, -3, 2, 1, -1, -2, -2
1503686844999,-1, -2, -2, -1, -2, -1, 0, -1
1503686845022,-3, -3, -3, -2, -3, -1, -3, -2
1503686845036,-1, -2, -3, 2, 0, -1, -2, -1
1503686845059,0, -2, 2, 1, 0, 0, 0, -1
1503686845082,-1, -1, 1, 0, -2, -1, 1, 1
1503686845096,-2, 1, 0, -1, -1, 0, 0, -2
1503686845119,-1, -1, 2, -1, 1, 0, 0, 0
1503686845141,-3, -3, -4, -4, -2, -1, -1, -2
1503686845158,-2, -6, -4, -3, -1, -1, -1, -1
1503686845179,1, 2, 3, -1, -2, -2, -2, -2
1503686845202,-2, -3, -5, -2, 0, 1, -2, -3
1503686845217,4, 9, 7, 5, 2, 0, -3, 1
1503686845239,0, 5, 8, 2, 0, 1, 1, 1
1503686845261,-1, 2, -1, 1, -1, -2, 1, 1
1503686845284,-1, -4, 0, 0, 0, -1, -1, 0
1503686845299,1, 0, 0, -2, -2, -2, 0, -1
1503686845321,-1, -3, -2, 0, 0, 0, -1, -2
1503686845344,-3, -5, -9, -5, -2, 0, -2, -1
1503686845360,-2, -5, -8, -3, -3, -3, -2, -4
1503686845382,-2, -7, -2, -2, -1, -4, -2, -3
1503686845404,-3, -3, -5, -3, -3, 1, 0, 0
1503686845421,-1, 4, 2, 0, -1, 0, -2, 0
1503686845441,0, 2, 1, -1, 0, -2, -2, 0
1503686845464,-1, -1, 3, 2, 0, 1, 3, 3
1503686845480,-3, -2, -2, 0, -1, -1, -1, -3
1503686845501,0, 4, 1, 2, 1, 1, -1, 2
1503686845524,1, -1, 0, -1, 0, -1, -1, -1
1503686845539,1, -5, -4, -3, -2, 0, -1, -2
1503686845561,1, 5, 4, 1, 0, -1, 0, -1
1503686845585,4, 9, 9, 3, 0, 0, -2, 0
1503686845599,-2, 1, 0, -1, -2, -1, -2, -1
1503686845621,0, -4, 1, -2, -1, -1, -1, 0
1503686845644,-4, -7, -2, 0, 2, -1, 0, -1
1503686845659,1, 8, 1, -1, -2, -1, 3, 0
1503686845681,-4, -5, -6, -4, -2, -2, -1, -1
1503686845704,1, -1, 5, 5, 0, 0, 0, 2
1503686845721,3, 6, 7, 4, 2, 1, 0, -1
1503686845744,1, -2, 0, -2, 0, 0, -1, 1
1503686845766,-8, -12, -12, -6, -5, -3, -4, -4
1503686845779,-2, 1, 0, -3, 0, -1, -2, -4
1503686845801,1, 0, -5, -2, -1, -3, -3, 0
1503686845824,-5, -8, -9, -3, -4, -4, -2, -1
1503686845839,0, 0, 0, -3, -4, -1, 1, 2
1503686845862,-2, -3, 1, 1, 0, -3, -1, -2
1503686845884,8, 4, 3, 1, 1, 2, 5, 13
1503686845899,-2, -1, 1, 0, 0, 1, 0, -7
1503686845922,2, 10, 13, 4, 1, 2, 0, 0
1503686845944,-4, -3, -4, -2, -4, -4, -6, -2
1503686845974,0, 0, 2, 2, 2, 2, 2, 1
1503686845990,6, 17, 16, 8, 4, 3, 5, 3
1503686846012,-1, -5, -7, -3, -4, -2, -3, 0
1503686846034,-2, -2, 0, -2, -2, -3, -4, -2
1503686846049,-2, -6, -6, -3, 1, 3, 1, 1
1503686846072,-2, -4, -4, 0, -3, -3, -8, -16
1503686846094,0, 5, -1, -2, -1, 0, -1, -2
1503686846109,0, 2, 4, 1, 1, 0, 1, 2
1503686846132,1, -3, -2, 0, -1, -1, 1, 3
1503686846157,-2, -2, -1, -4, -1, -1, 1, 2
1503686846169,0, -2, -1, -2, 0, 1, 6, 3
1503686846192,-3, -2, 1, 0, 0, 0, -3, -1
1503686846214,1, 3, 3, 1, 0, 0, 3, 0
1503686846236,1, 1, 0, 1, -2, -2, -3, -2
1503686846252,-1, -4, -4, -4, -3, -2, -2, 0
1503686846274,-1, -2, -2, 0, -1, -1, -2, -2
1503686846296,-2, -2, -2, 0, -2, 0, -3, -1
1503686846312,0, 0, 3, 2, -2, -2, -3, 2
1503686846334,2, 0, 0, -3, 0, -1, 1, -1
1503686846357,0, 0, -2, -1, -2, -1, -3, 0
1503686846372,2, -1, -1, -1, -1, 0, -1, -1
1503686846394,-1, 5, -1, -3, 2, 0, 1, 1
1503686846416,5, -8, -4, -1, 0, 1, 2, 12
1503686846433,-6, -4, -6, -3, -1, -3, -4, -7
1503686846454,0, 4, 5, 1, -1, -2, 0, -1
1503686846476,-2, 10, 10, 2, -1, -1, -7, -11
1503686846492,-5, -10, -7, -2, -4, -3, -4, -3
1503686846514,-2, -4, -6, -1, -1, -1, -2, -1
1503686846536,3, 1, 1, -1, -1, 2, 3, 3
1503686846552,-1, 4, 11, 5, 2, -1, -1, -2
1503686846574,-1, -5, -7, -5, 0, -2, 0, 2
1503686846598,3, 0, -3, -2, -1, -3, -3, 4
1503686846612,-4, -1, 0, -3, -1, 1, 0, -5
1503686846636,-2, -5, -10, -5, -7, -5, -2, -3
1503686846656,-1, -6, -2, -3, 1, 1, 2, 1
1503686846672,-4, -5, -3, 0, 2, 0, 0, -4
1503686846694,-10, -6, -4, -2, -1, -3, -6, -18
1503686846716,2, 10, 6, 3, 0, 1, 1, 1
1503686846732,0, -4, -1, 1, -1, -1, 2, 2
1503686846754,1, -3, -6, 0, 0, -2, 0, 2
1503686846762,1, -3, -3, 2, -1, 0, -1, 1
1503686846784,-3, 1, 1, 0, 2, -1, -1, -2
1503686846806,0, -4, -1, -1, -3, -1, 2, 3
1503686846821,-1, -3, -3, -2, -1, -1, 0, -1
1503686846844,-3, -10, -9, -7, -5, -2, 0, -1
1503686846866,3, 6, 4, 3, -2, -3, -3, -2
1503686846881,-4, -1, -1, 1, -1, -3, -11, -16
1503686846904,-3, 0, 1, 0, 1, 0, 0, 0
1503686846929,1, -3, -4, -3, 0, 2, 5, 11
1503686846941,-1, 0, -1, 0, 1, -1, -1, -4
1503686846967,10, 17, 14, 9, 3, 4, 7, 15
1503686846986,-4, -4, -2, -2, 0, 4, 5, -8
1503686847001,-10, -6, -3, -2, -3, -2, -8, -13
1503686847024,-1, -4, -3, -3, -1, -3, -4, -4
1503686847046,-2, -4, -1, 0, 2, 1, 6, 10
1503686847068,-4, 5, 1, -1, 0, -4, -6, -9
1503686847084,2, 0, 2, -1, -1, 2, 4, 9
1503686847106,-1, 0, 0, 0, -1, -1, -1, -2
1503686847131,2, 2, 1, 3, 0, 2, 2, 0
1503686847144,2, -3, -2, -1, 1, -1, -2, 6
1503686847166,-4, -3, 1, 0, -1, -2, -1, -8
1503686847174,-7, 5, 5, 0, -1, 3, 2, -18
1503686847196,1, -8, -8, -6, -1, -4, 0, -2
1503686847211,-1, -2, 1, 0, -1, 1, 3, 11
1503686847233,2, 1, 1, 0, 1, -2, -2, -4
1503686847248,-1, -2, -3, -3, -4, -3, -1, -2
1503686847264,-7, -9, -5, -6, -2, -2, -3, 8
1503686847286,-3, 2, 3, 2, 0, -1, -1, -9
1503686847297,1, -3, -3, -5, -3, -3, -4, -1
1503686847316,5, 10, 1, 0, -1, 1, 3, 22
1503686847339,-2, -3, -1, -2, 1, 1, -2, -2
1503686847354,-4, -2, 1, 2, 2, -2, -3, -8
1503686847376,9, 1, 0, -1, -2, -1, 6, 11
1503686847399,-4, 8, 4, 4, 1, 1, -2, -27
1503686847414,-6, -2, -4, 1, 0, -2, -2, -5
1503686847436,1, -2, 0, 0, -2, 1, 7, 9
1503686847459,-2, -1, -1, -2, 0, -2, -2, 0
1503686847467,-1, 3, 0, 1, 1, -1, 0, -2
1503686847488,7, 2, 0, -2, 0, -3, -1, 9
1503686847504,-2, 3, 4, 3, 1, -1, 0, -1
1503686847519,-1, -8, -8, -6, -4, -2, -7, -8
1503686847535,-7, -3, -3, 0, 0, -1, 1, -3
1503686847556,1, 4, 2, -1, -2, -2, -3, 1
1503686847581,0, -3, 0, -3, -1, -1, 3, 20
1503686847595,2, 1, 0, 1, -2, 0, 0, 4
1503686847616,1, 0, 0, -2, -1, -2, 5, 5
1503686847641,-3, 0, 2, -1, -2, 1, -1, -10
1503686847654,0, 0, -1, 1, 0, -1, 0, -5
1503686847676,-4, -1, 2, 1, 1, 2, -6, -18
1503686847700,0, 1, -3, -2, 0, 0, -4, -2
1503686847714,1, 4, 4, 2, 0, 0, 0, -3
1503686847736,1, 0, 2, -1, 0, 0, 1, 4
1503686847759,0, -1, -1, 0, -1, -3, 0, -2
1503686847775,1, 1, 1, 0, 1, 0, 1, 5
1503686847796,2, -1, -2, -1, -2, -3, 0, 5
1503686847818,1, 3, 3, 2, -2, -2, 2, 2
1503686847826,0, -1, -2, 0, 1, 2, 1, 1
1503686847840,0, 7, 6, 0, -2, -1, -2, -3
1503686847856,-2, -5, -2, -1, 0, -2, -7, -3
1503686847879,-1, -2, -4, -4, -3, -1, -4, -5
1503686847894,-1, -3, -5, -2, -1, 0, 2, 3
1503686847916,4, 3, 4, 2, 1, 2, 4, 4
1503686847939,-6, -3, -4, 2, 0, 1, -3, -3
1503686847954,-2, 3, 3, 2, -1, -1, -3, -6
1503686847980,-1, -4, 0, -2, -2, -4, -3, 0
1503686847999,-4, -1, 0, 1, 1, 3, 5, 6
1503686848014,5, 1, 2, 1, 1, 0, 4, 19
1503686848041,-4, -7, -7, -3, -2, -6, -4, -12
1503686848059,0, -3, -1, -1, -2, -2, 2, 2
1503686848081,1, 6, 5, 1, 1, 1, 0, -3
1503686848096,1, -4, -2, 0, 1, 0, 1, 12
1503686848118,-6, 9, 10, 2, -2, 0, -6, -11
1503686848141,-3, -6, -8, -6, -2, -1, -4, -5
1503686848156,-3, -12, -6, -5, -2, -1, 4, -1
1503686848179,1, 4, 1, -3, -2, -2, -1, -3
1503686848203,1, -2, -3, 1, 0, 0, -1, 0
1503686848216,-17, -8, -7, -5, -4, -5, -8, -15
1503686848239,-1, -6, -6, -3, -1, -3, -5, -1
1503686848261,6, 0, 0, 0, 1, 1, 2, 6
1503686848276,-5, -5, -5, -2, -2, -3, -1, -5
1503686848299,1, 7, 2, 2, -1, 0, -4, -6
1503686848321,4, 3, 2, 1, -1, -1, -2, -4
1503686848339,5, 10, 12, 5, -1, 2, 3, 5
1503686848358,4, 0, 4, 4, -2, -1, -2, 3
1503686848366,-2, -3, -2, -5, -4, 1, -1, -1
1503686848388,-2, -3, -1, 1, 1, -3, -2, -1
1503686848411,4, -2, 4, -1, 0, 1, 1, 6
1503686848426,-7, -2, -11, -3, -2, -2, -4, -12
1503686848448,4, -5, 2, -6, -4, -2, -1, 5
1503686848473,-3, -1, 1, 0, -1, 2, -1, -14
1503686848493,-13, -3, 1, 6, 1, -1, -2, -9
1503686848517,0, -7, -9, -7, -4, 0, 4, 8
1503686848540,-5, -6, -4, 0, 3, 0, -5, -12
1503686848561,1, -2, -1, -1, -3, -1, -2, 2
1503686848576,1, 4, -2, -2, -2, -3, -2, 2
1503686848599,-1, -2, -4, -3, -2, 0, 3, 8
1503686848621,-2, 4, 7, 3, 2, 3, -2, -19
1503686848637,-2, -1, 3, 4, 4, -1, -3, -1
1503686848658,6, 10, 8, 7, -1, -3, -3, -3
1503686848682,0, -1, 0, -3, -1, 0, 3, 6
1503686848696,-2, -3, -5, -3, -2, -3, -3, -4
1503686848719,-1, -2, -3, -3, 1, 2, 1, 1
1503686848742,5, 7, 9, 4, 2, 0, -1, 8
1503686848757,-3, -6, -5, -4, -3, -4, -2, -3
1503686848779,-1, -6, -5, -1, -1, -1, 0, -3
1503686848801,0, -1, 1, -1, 1, 0, 1, 11
1503686848816,-1, 0, -1, -1, 1, 1, 0, -1
1503686848839,-2, -2, -3, -3, -2, -1, -1, -3
1503686848861,-5, -11, -8, -4, -2, 0, 1, -4
1503686848869,-1, 0, 1, -2, -1, 1, -1, -2
1503686848890,-1, -2, -6, -2, -2, -2, -3, 0
1503686848913,5, 2, 2, 0, -1, 2, 4, 12
1503686848928,-5, -2, 0, 0, 0, -1, -1, -5
1503686848951,0, 1, 3, -1, -1, 0, 1, -2
1503686848966,0, -1, -1, 0, 1, 0, -2, -1
1503686848989,-2, 0, -1, 1, -1, -1, -2, -1
1503686849012,-1, -3, -2, -1, -2, -2, -4, -2
1503686849033,0, 3, 5, 1, 0, -2, -2, -2
1503686849055,-2, -9, -6, -8, -5, -1, 0, -1
1503686849070,2, 0, 2, -1, 1, -1, -2, -1
1503686849093,1, -1, 3, 2, 0, 1, 0, 1
1503686849117,-5, -7, -5, -3, -4, -1, -1, 0
1503686849124,0, -1, 0, 2, 1, 0, -3, -2
1503686849139,-3, -3, -4, -4, -2, -2, 0, -3
1503686849161,1, 1, -1, 2, -2, -1, 1, 1
1503686849184,1, -4, 0, -1, 0, -1, 1, 1
1503686849198,-2, -1, -2, 0, 1, 0, -1, -1
1503686849221,2, 4, 0, -1, 0, -1, 1, 0
1503686849249,-1, 1, -1, -3, -2, -5, -1, -2
1503686849259,-1, 3, 6, 0, -1, 2, -1, 1
1503686849281,2, 6, 7, 1, 0, 2, 1, 0
1503686849303,0, -2, 3, 4, 0, -1, -2, 0
1503686849319,-4, 3, 4, 0, 0, -1, -2, -1
1503686849341,-4, -14, -12, -6, -2, 0, -1, 0
1503686849363,-1, -3, -3, -3, -1, -1, -1, 1
1503686849379,0, 2, -1, -1, -2, -2, -1, -1
1503686849401,0, 0, -1, -3, -1, -1, -2, -2
1503686849423,2, 10, 8, 3, 1, -1, 1, 0
1503686849438,-3, -7, -6, -6, -4, -2, -3, -2
1503686849461,-2, -3, -2, 0, -2, -1, 0, -1
1503686849484,-2, -3, -2, -2, -1, -1, -3, -4
1503686849498,-2, -6, -4, -2, -1, -1, -1, -1
1503686849522,0, 2, 3, 1, 1, 0, 0, -1
1503686849543,0, -7, -4, -3, -1, -2, -1, -1
1503686849560,1, 1, 1, 1, -3, -1, -2, -1
1503686849581,3, 2, 5, 4, 3, 2, 4, 3
1503686849604,0, 1, -3, -2, -2, 0, -1, 1
1503686849619,-4, -1, -3, -2, 3, 1, 0, -1
1503686849641,-2, -2, -1, 2, 1, -2, 1, 1
1503686849663,-4, -5, -6, -6, -3, -2, -3, -3
1503686849681,-4, -4, -5, -2, -4, -4, -3, -4
1503686849701,-1, -3, -1, -3, -3, -1, -2, -3
1503686849724,2, 2, -1, 1, -1, 2, 0, 0
1503686849738,2, 3, 2, 1, -1, -2, 0, 2
1503686849761,-1, 1, -1, 1, -1, 0, 0, -1
1503686849777,-4, 1, 0, -3, -2, -3, -3, -1
1503686849798,-2, -3, -3, -3, -1, -1, -1, -1
1503686849816,-1, -8, -4, 1, -2, -1, 2, -1
1503686849837,-2, -1, 2, -1, 1, 1, 2, -1
1503686849852,3, 7, 7, 3, 0, 0, 1, 0
1503686849874,-2, -7, -2, -5, 0, -3, 0, -1
1503686849896,-3, -2, -5, -2, -1, -1, -3, -1
1503686849912,1, 1, -1, 1, 0, 0, -1, 2
1503686849934,-2, -2, -3, -4, -2, -2, -2, 0
1503686849956,-2, -2, 0, 2, 0, 0, -1, -1
1503686849971,-1, -2, -4, -5, -2, -1, -1, -2
1503686849987,1, -1, 1, 2, 0, 0, 0, 1
1503686850001,0, -1, -1, -1, -1, -1, -1, 0
1503686850024,-1, -1, -1, -1, 0, 1, 0, 1
1503686850046,-2, -3, -2, -1, 0, 0, -1, -2
1503686850061,-3, -2, -1, 0, -1, -2, -3, -3
1503686850077,-3, -5, -3, -4, -3, -1, -2, -3
1503686850092,-2, -1, -3, 0, -1, 0, 1, 1
1503686850114,-2, -3, 0, -1, -2, -2, -2, -3
1503686850137,-2, 0, 0, 0, 0, -1, 0, 1
1503686850153,-1, -4, -3, -2, 2, 1, 0, 0
1503686850174,0, -2, -4, -3, -3, 0, -1, 0
1503686850196,-4, -1, -2, -1, 0, -1, -2, -5
1503686850203,2, 0, 0, -2, 0, 0, 2, 2
1503686850212,-2, -3, -6, -4, -1, 0, -3, -1
1503686850234,-2, -3, -2, 0, 5, 0, 1, 1
1503686850257,4, 0, -2, 0, -1, -1, 0, 0
1503686850272,-3, 0, 2, 5, 3, -1, 0, 0
1503686850295,-3, 0, -2, -4, -5, -3, -3, -5
1503686850319,1, -1, 0, -4, -3, -3, 0, 0
1503686850331,-3, -2, 0, 1, -1, -1, -1, -1
1503686850354,-4, -2, -2, -1, 0, 0, -1, -2
1503686850376,1, 6, 4, 0, -2, -1, -3, -1
1503686850392,-1, -4, -5, -2, -3, -2, -1, 0
1503686850414,-3, -5, -1, 1, 1, -2, -3, -1
1503686850436,-1, -3, 0, -2, 0, 0, 1, -6
1503686850453,3, 0, -1, 0, -2, 0, -1, -2
1503686850474,0, 0, -2, -3, -2, 0, 0, 5
1503686850497,-5, 0, 2, 0, 2, 0, -1, -4
1503686850512,2, 1, 1, 0, -1, 0, 1, -2
1503686850534,1, -2, 0, 2, 1, 0, -1, -5
1503686850557,1, -1, 1, -1, -5, 1, 2, 13
1503686850571,-1, -2, -3, -2, -2, -3, -3, -12
1503686850602,-1, -2, 0, -1, -1, 1, -1, -1
1503686850624,-4, -3, 1, 1, -3, -1, -1, -5
1503686850646,0, -2, -6, -5, 1, -2, 1, 0
1503686850662,0, 0, 0, 1, -2, -3, -3, 3
1503686850683,0, 0, 4, 1, -1, -1, 3, 1
1503686850706,2, 0, 0, 2, 0, 0, -1, -2
1503686850721,3, 4, 1, -1, -3, 0, 0, 3
1503686850743,-7, -8, -6, -5, -2, -3, 0, 1
1503686850766,5, 1, 1, 1, -1, 1, 3, 16
1503686850781,7, 3, 0, 1, 0, -2, -1, -2
1503686850803,-1, -5, -6, -3, -1, 0, 1, 3
1503686850812,-3, 0, 0, -4, 0, -2, -2, -4
1503686850834,-3, -2, -1, -3, -2, -1, 0, -9
1503686850857,1, -1, -1, 1, 0, -1, 0, 1
1503686850879,-6, -2, 0, -1, 0, 0, -2, -2
1503686850895,2, 1, 2, -1, -3, -2, 0, 4
1503686850916,2, -2, -6, -3, -2, -1, 3, 2
1503686850938,-4, -5, -3, -4, 1, 1, -2, -1
1503686850961,1, 0, 0, -1, 0, 0, -2, -2
1503686850969,-3, 0, 2, 3, 0, -3, -3, -6
1503686850984,-1, -3, 0, -3, -2, 0, -2, -3
1503686851006,7, 10, 8, 1, 1, 0, -1, 8
1503686851029,-10, -9, -14, -8, -8, -5, -3, -3
1503686851043,7, -2, -7, -3, 0, -4, -2, 1
1503686851066,6, 10, 14, 7, 3, 3, 2, 6
1503686851090,0, -6, -10, -10, -4, -2, -1, -7
1503686851103,0, -2, 1, 1, 1, 2, -3, 10
1503686851126,-10, -7, -4, -1, 0, 0, 0, -4
1503686851148,-3, -2, 2, 10, 1, 2, 6, 0
1503686851164,4, 11, 7, -1, 0, -3, -2, -4
1503686851186,-4, -5, -3, -1, 1, 1, 4, 16
1503686851208,3, 3, 2, 12, 3, -9, -4, -6
1503686851225,2, -3, -2, -2, 1, -1, -1, -6
1503686851253,5, 2, -1, -7, -6, 3, 0, -4
1503686851268,5, 0, -2, -3, -2, 4, 5, 25
1503686851283,-7, -4, -3, -3, -2, -6, -7, -16
1503686851306,-11, -10, -2, -4, -1, 2, -1, -8
1503686851329,-3, 16, 8, 4, 2, 3, -5, -28
1503686851343,-9, -22, -17, -10, -5, -7, -3, 6
1503686851366,-5, -7, 0, -5, -3, -2, -4, -12
1503686851388,0, -3, -9, -5, -2, -2, -3, -5
1503686851404,5, 4, 13, 5, 2, 0, 0, -1
1503686851427,7, 2, 2, -1, 0, 0, -1, 8
1503686851448,-3, 5, -1, 0, -2, -1, -6, -22
1503686851464,5, -1, -3, -2, -4, -3, 5, 18
1503686851486,-6, -4, -3, -2, -1, -2, -1, -3
1503686851511,1, 0, 0, 0, -2, 0, 3, 5
1503686851523,-4, -7, -5, -9, -5, -3, 2, 8
1503686851546,8, 8, 10, 10, 8, 7, 7, 15
1503686851569,-5, -4, -5, -4, -2, -5, -5, -8
1503686851583,-11, 0, 2, 1, -1, 1, -3, -10
1503686851614,8, 6, 3, 1, 5, 4, 5, 5
1503686851638,4, 5, 2, 0, 5, -3, -4, -1
1503686851662,5, 0, -3, 0, -3, -3, -2, 3
1503686851674,-5, 5, 5, 0, -2, 4, 8, 16
1503686851689,-1, -7, -9, -2, -2, -2, 1, 3
1503686851704,4, 7, 14, 4, 4, 2, 4, 6
1503686851729,-6, 4, 3, -1, -1, 0, -8, -23
1503686851748,-12, -17, -15, -5, -2, -3, -4, 0
1503686851765,-4, 5, 3, 1, -2, -4, -5, -12
1503686851786,14, 7, 0, 0, -2, 0, 8, 9
1503686851802,8, 4, -2, -6, -4, -4, -3, -1
1503686851816,-3, -1, 1, 0, -1, -1, -3, -5
1503686851838,-5, 3, 1, -2, 1, 0, 0, -5
1503686851863,-3, -4, 0, -1, -4, -4, -4, -5
1503686851869,0, -3, 3, 0, 0, 0, 2, 7
1503686851877,1, 10, 11, 6, 0, -2, -5, -1
1503686851900,-5, -3, 1, -3, -4, 0, 1, -7
1503686851921,-3, -7, -7, -4, -1, -3, -1, 3
1503686851937,-1, -6, -6, 0, -3, -3, -2, -3
1503686851958,-1, 4, 3, 2, 0, -1, -3, 3
1503686851981,-1, -2, -3, -4, -2, -1, -1, 3
1503686851998,-3, 1, 5, 3, 2, -1, -3, 2
1503686852020,-1, -4, -2, -1, -4, 1, 0, 0
1503686852041,1, 6, 9, 2, 2, 0, 1, -4
1503686852056,3, -4, -2, -3, -1, 0, 1, 5
1503686852080,-1, -7, -8, -1, 0, -2, -2, 2
1503686852102,-6, -4, 0, 2, -2, 0, -1, -4
1503686852116,4, -1, -1, -1, 0, 0, 1, 3
1503686852140,-2, -3, -4, -2, 0, -2, -1, -1
1503686852161,1, 0, -3, -3, 1, -2, 2, 10
1503686852176,3, -1, -1, -1, -1, 1, -1, -1
1503686852198,0, 2, 1, 2, -2, 0, 0, -4
1503686852221,-1, 1, -1, -1, -1, -1, 0, 1
1503686852238,0, 1, 1, -2, -1, 0, -1, -1
1503686852258,-3, -4, -5, -1, -1, 0, -1, -12
1503686852281,-6, -1, 0, -4, -1, -1, -2, -2
1503686852300,0, -6, -4, -1, -2, -1, -1, -1
1503686852326,-3, -2, -2, 1, -1, 0, -1, -1
1503686852341,-1, -1, 1, -3, 0, -2, -1, 1
1503686852356,2, 2, -1, -2, -2, -2, 0, 14
1503686852379,0, -4, -1, -1, -2, 0, -1, -2
1503686852406,-2, -2, -6, -3, -2, -3, -1, -4
1503686852416,0, -1, 3, 2, 1, 1, 0, 4
1503686852439,0, 0, 3, 0, -2, -2, -1, -6
1503686852461,-5, -3, -2, -1, 1, 1, 0, -8
1503686852477,-1, 4, 5, 0, 1, 1, 1, 0
1503686852502,3, 8, 2, 3, -1, -2, -3, -4
1503686852521,-7, -15, -15, -12, -3, -2, 0, -7
1503686852537,1, 2, 1, 1, 0, -2, -1, 1
1503686852559,1, 2, -3, 3, 1, -3, -2, 0
1503686852581,-2, -6, -8, -5, -3, -3, -4, -1
1503686852598,0, 1, 0, 1, -1, 1, 2, -3
1503686852614,1, 1, -2, -2, -2, -1, -1, -1
1503686852626,-4, 0, 0, 1, -1, -2, -2, -3
1503686852648,1, -4, 2, -3, -2, 0, -2, -3
1503686852673,-1, -3, -6, -3, 0, -4, -1, 1
1503686852680,-4, -3, 0, -4, 0, 3, 2, -1
1503686852703,1, -1, -1, 1, 0, 1, 1, 0
1503686852723,-2, -4, -1, -2, -2, -2, -1, -2
1503686852743,0, -5, 0, -1, 1, 1, -1, -2
1503686852753,-1, 0, -6, -5, -1, -3, -5, -5
1503686852770,0, -2, -2, 1, -1, -1, 0, 2
1503686852791,1, 3, 4, 2, 0, 0, 1, 3
1503686852813,-2, -3, -3, -3, -3, 0, -4, -1
1503686852828,0, -4, -5, -3, -3, -2, -4, -7
1503686852851,-4, -5, 0, 0, -1, -1, -1, -3
1503686852873,0, -7, -3, -3, -3, -2, -1, 1
1503686852888,-2, 0, -3, -2, -1, -1, 1, 1
1503686852911,-2, -2, -2, -5, -3, 1, 0, 1
1503686852933,0, -1, -1, -1, -1, -1, 0, -2
1503686852948,0, 0, 0, 2, 0, -2, 0, 0
1503686852971,-1, 1, 2, -2, -3, -2, 1, 0
1503686852993,-3, 0, -4, -1, -1, -2, -2, -2
1503686853008,1, 5, 6, 3, 3, 0, 0, 0
1503686853032,0, -2, -2, -1, -1, 0, 1, -2
1503686853053,-3, -4, -2, -1, -1, -2, -2, -3
1503686853083,-1, -1, -4, -1, 0, -2, -1, -3
1503686853091,-2, -3, -5, -4, -2, -2, 0, -2
1503686853113,-1, -2, 4, 1, -1, 0, -1, 2
1503686853122,2, 6, 7, 1, 0, 0, 1, 0
1503686853144,-3, -4, -9, -8, -4, -2, -2, -3
1503686853160,0, 0, 0, 1, -1, -1, -2, 0
1503686853181,0, 1, 2, -1, -1, 0, -2, 0
1503686853206,1, -2, -2, -3, 0, 0, -1, 3
1503686853219,-1, -2, 0, -1, 1, -1, 0, -3
1503686853241,-2, -3, -1, 1, -2, -1, 0, 0
1503686853263,-2, -1, 1, 1, -2, -2, -3, -3
1503686853280,-4, -2, 2, -1, -1, -3, -3, -3
1503686853301,2, 0, -2, -3, -2, 1, 0, 0
1503686853323,-1, 1, 2, 0, 1, -1, 0, 0
1503686853341,-2, 1, 2, 3, 0, 0, -1, -1
1503686853361,2, -2, -5, -3, -4, -1, -2, 1
1503686853383,-2, 0, 0, 3, 0, -1, 2, 0
1503686853399,0, -1, -2, -3, -1, -1, -2, -1
1503686853421,-1, 3, 2, 1, 1, -1, 1, 0
1503686853444,2, 2, 3, 1, 1, 2, -2, -2
1503686853461,-3, -2, -4, -4, -1, -1, -4, -1
1503686853482,-3, -3, -4, -3, -2, -2, -1, -3
1503686853503,-2, -4, -3, -4, -2, -1, 0, -3
1503686853519,0, 1, 3, 9, 1, -2, -1, -3
1503686853542,1, 2, 7, 2, 1, 0, -1, 1
1503686853564,-2, -2, -3, -4, -2, -1, 0, -1
1503686853580,-1, -1, 0, -2, -1, -1, -3, 0
1503686853601,0, 1, 4, -1, 0, 0, 0, 3
1503686853623,-2, -1, -1, -3, 0, -2, -1, -1
1503686853643,0, -4, -6, -2, -4, -1, -1, -1
1503686853661,2, 4, 7, 2, 0, -1, -2, -2
1503686853686,-2, -11, -8, -3, 0, 0, -1, 0
1503686853706,6, 6, 6, 4, 0, 0, 4, 1
1503686853721,-5, -5, -8, -5, -2, -2, -3, -6
1503686853744,2, 4, 3, 1, 0, 0, -1, 1
1503686853766,-2, -6, -7, -2, -1, -1, -3, 0
1503686853781,-2, -5, -1, -1, 0, 0, 1, -1
1503686853803,-1, 2, -2, -2, -1, -3, -4, -2
1503686853826,-2, -3, -6, -5, -3, -1, 0, -2
1503686853833,-3, -4, -3, -1, -4, -1, -1, -5
1503686853855,1, 2, -2, -1, -2, 0, -3, -1
1503686853871,-3, 0, -1, 0, 1, -1, -2, 0
1503686853892,-2, -2, 0, 0, 2, -1, 0, -2
1503686853915,0, 8, 3, 2, -1, 2, 0, 1
1503686853931,-1, -4, -2, -4, -4, -2, 1, -3
1503686853953,0, -3, 2, 0, 0, -2, -3, 0
1503686853979,-2, -3, -1, 1, 1, -3, -4, -5
1503686853991,2, 2, 0, 0, -1, -1, -1, 2
1503686854013,-3, -2, -1, -4, -3, -2, -1, -3
1503686854035,-6, -7, -4, -2, -2, -1, 1, -3
1503686854051,-3, -4, -2, -3, -1, -2, -4, -4
1503686854073,0, 0, 2, 2, 0, 3, 3, 3
1503686854096,-2, -3, -5, -5, -3, -1, 1, 0
1503686854104,-2, 2, 1, 5, 5, 1, -2, 0
1503686854126,0, -1, -2, -6, -3, -1, 2, 2
1503686854141,-4, -4, -3, -1, -2, 0, -2, -2
1503686854163,3, 6, 3, 1, 0, 0, 1, 4
1503686854187,-1, -1, -3, 0, 2, -1, -1, -2
1503686854201,-5, -2, -2, -2, -3, -1, -3, -2
1503686854223,-2, -6, -1, -2, -4, -2, -2, -1
1503686854246,2, 1, 0, 2, 0, 0, 1, -1
1503686854261,-8, -4, -1, 0, 0, -1, -1, -5
1503686854284,1, 0, 2, 2, -1, 0, 2, 4
1503686854306,-2, 1, 0, -1, 0, -2, -1, -6
1503686854321,8, 1, 0, -1, 3, 1, 1, 3
1503686854343,-1, -2, -3, -6, -2, -2, -2, -2
1503686854366,4, 1, 0, 1, 2, -3, 0, 3
1503686854381,0, -2, -3, 0, -1, 2, 1, 0
1503686854403,3, 4, 4, 1, -3, -1, -3, 0
1503686854426,-1, -4, -3, -3, -4, 0, 4, 6
1503686854441,-6, -5, -5, -3, -3, -4, -4, -5
1503686854463,1, -3, -2, 0, 0, -1, -1, -2
1503686854486,-1, 0, 1, 0, 1, 2, 2, 9
1503686854501,0, 1, -1, 0, 2, 0, -2, -7
1503686854523,-3, 2, 1, 1, 1, 0, -6, -6
1503686854548,-1, 4, 5, 2, 0, -1, -2, -11
1503686854561,-4, 0, -2, -3, -6, -3, -8, -11
1503686854586,-7, -2, -3, 0, 0, -1, -3, -3
1503686854598,-3, -5, -5, -2, -4, -2, -4, -10
1503686854624,0, -2, 0, -3, 0, -2, -4, 0
1503686854635,-1, -5, -7, -4, -2, 0, 2, 2
1503686854662,-5, 0, -1, 1, -2, -2, -4, -3
1503686854672,2, 4, 7, 1, 1, -1, 0, 2
1503686854695,-5, -3, -5, -4, -1, -2, -4, -6
1503686854718,9, 2, -2, -3, -3, -3, 3, 3
1503686854732,-3, -3, 0, 1, 0, 0, -3, -9
1503686854756,-2, -2, -1, -1, -1, -2, 1, 8
1503686854779,-3, -2, -1, 2, -1, -1, -3, -3
1503686854801,-5, 1, 3, 0, 0, 2, -2, -11
1503686854817,-2, -7, -6, -4, 0, -3, -3, -8
1503686854839,4, 1, -1, 0, 1, 1, 1, 8
1503686854861,-2, 4, 3, 1, 1, 0, -3, -8
1503686854876,-4, -8, -5, -1, -1, -1, -2, -5
1503686854899,-7, -9, -7, -10, -6, -3, -1, 0
1503686854921,-3, 3, 0, 3, 0, 0, -1, -19
1503686854936,1, 6, 5, 1, 0, -1, -2, 2
1503686854961,3, 2, 1, 3, -1, -1, 3, 11
1503686854974,5, -1, 1, -1, -2, 0, 1, 9
1503686854996,2, -1, 0, -3, 0, -2, -1, 1
1503686855019,-4, -1, 3, 3, -2, -2, -3, -6
1503686855041,15, 5, -1, 1, 0, 3, 4, 22
1503686855056,-1, 2, -1, 1, 2, 0, 0, 0
1503686855079,1, -1, 0, -2, -4, -3, 2, 13
1503686855101,-6, -1, -1, 0, -1, 0, -3, -4
1503686855117,-13, -5, 4, 0, -2, -4, -11, -18
1503686855139,0, -2, -2, -2, 0, 2, 2, 1
1503686855162,-4, -3, -5, -2, -2, -1, -3, -9
1503686855176,1, 0, -1, 1, 1, 1, 0, 0
1503686855187,1, -1, -3, -5, -3, -2, -2, -2
1503686855206,6, -2, -3, -3, -2, -2, -1, -4
1503686855229,4, 3, 3, 1, 1, 1, 2, 6
1503686855237,-2, 1, 2, 5, 0, 1, -3, -13
1503686855262,-8, -3, -1, -2, 0, -1, -2, -9
1503686855281,-2, 0, 4, 2, -1, -2, 1, 4
1503686855289,2, -3, -3, -3, -3, 2, 2, -1
1503686855303,-3, 0, 3, 2, 2, 2, 5, 7
1503686855326,4, 5, 0, 0, 1, -1, -3, -9
1503686855348,5, 5, 2, 3, 0, -1, -2, 11
1503686855363,1, 1, 6, 2, 1, -1, 2, 2
1503686855388,-5, -16, -18, -9, -3, -3, -4, -2
1503686855408,-2, -7, -4, -2, -1, -1, -1, 2
1503686855424,-5, 1, 4, 3, 0, -2, 2, -10
1503686855446,-4, -2, -2, 0, -3, -6, -4, -12
1503686855462,-1, -1, 2, -1, 2, -1, -5, -9
1503686855476,-2, -1, 1, 2, -3, -7, -3, 4
1503686855499,-5, -6, -2, -2, 0, -2, -2, -7
1503686855523,-8, -1, -3, -3, -2, -2, -2, -7
1503686855536,1, 3, 3, 0, -3, -7, -2, -2
1503686855559,-5, -3, 1, -1, 2, 2, 0, -5
1503686855581,3, -1, 1, 2, 0, 7, 2, 6
1503686855597,2, 0, -1, -2, -1, -1, -3, 2
1503686855619,4, -2, -3, -5, -4, -2, 1, -1
1503686855641,-1, 0, 0, 5, -1, 0, 0, -3
1503686855656,0, -13, -14, -8, -4, -3, -1, 0
1503686855679,-4, -3, -4, -8, 0, -3, -5, -7
1503686855701,-16, -10, -5, -3, -3, -4, -7, -7
1503686855716,-4, 8, 7, 2, 0, 0, -1, -2
1503686855739,6, 5, 11, 4, 3, 2, 4, 7
1503686855761,1, 1, -1, -1, -1, 0, -5, -8
1503686855768,-9, -10, -10, -9, -4, -3, -8, -10
1503686855791,3, 0, -3, -2, -3, -1, -4, -6
1503686855799,3, -1, -1, -2, -1, 2, 5, 9
1503686855823,11, 2, -2, 2, 0, -1, 1, 9
1503686855837,2, 0, -1, -2, -1, 1, 0, 5
1503686855860,-3, -4, 0, 0, -3, -4, -4, -2
1503686855881,0, -1, 0, 0, 2, 1, 0, 0
1503686855896,-2, -1, 3, 2, 0, 0, -2, -1
1503686855919,-1, -1, -1, 1, -1, -3, 0, -1
1503686855941,1, 1, -1, -2, -3, -5, -5, -4
1503686855962,2, -4, -5, -7, -3, -2, 2, 13
1503686855979,-7, -2, 1, -1, -3, 0, -2, -14
1503686856001,4, 1, 1, 1, 3, 2, 5, 8
1503686856016,-4, -4, -3, 1, 0, 1, -2, 1
1503686856039,-1, -2, -4, -3, -2, 0, -6, -12
1503686856062,-2, -5, -2, -5, -2, -3, -3, -5
1503686856076,-2, 4, 2, 3, 2, 1, 3, 2
1503686856099,1, 1, 0, 2, 0, -2, 0, 1
1503686856121,-3, 0, 2, -1, -4, 0, -1, -1
1503686856136,5, -1, -3, -3, -2, -2, 2, 4
1503686856166,1, -1, -2, 0, -2, -2, -2, -3
1503686856181,2, 1, 0, -2, 1, 0, -2, 0
1503686856196,-7, -5, -4, -5, -3, -2, -4, -7
1503686856219,3, 3, 4, 2, 1, -2, 2, 1
1503686856241,-3, -2, -3, -3, -1, 0, -1, -2
1503686856256,-4, 1, 1, 4, 4, 1, -2, -9
1503686856280,-2, -5, -3, -4, -4, -3, -4, -2
1503686856301,0, -3, -1, -2, -3, 1, 2, 9
1503686856316,1, 0, 0, 0, -1, -1, -1, 0
1503686856339,1, 0, 1, -1, 1, -1, 0, 2
1503686856364,-2, 3, 5, 4, 0, 1, -1, -2
1503686856376,-4, 4, 7, 1, 0, -3, -2, -10
1503686856399,-3, -12, -12, -7, -3, -4, 0, -2
1503686856421,2, -2, -4, 0, 1, -2, 2, 2
1503686856436,-3, -4, -1, 0, -3, -3, -1, -2
1503686856461,-2, -4, -7, -4, -3, 0, -1, 1
1503686856481,9, 3, 2, 1, 3, 1, 2, 13
1503686856503,2, 3, 2, 2, 1, 3, 0, -1
1503686856519,-7, -5, -3, -2, -1, -1, -3, -6
1503686856541,-3, -2, 1, 1, -1, 1, 1, 9
1503686856564,3, 6, 7, 4, 1, 0, 1, -2
1503686856579,-3, -4, -5, -4, -3, -2, -2, -8
1503686856601,0, 4, 10, 5, 2, -2, -3, -3
1503686856623,0, 3, -2, 1, -2, -2, 2, 1
1503686856639,4, -1, 3, 5, 3, 0, 2, 5
1503686856662,-4, -7, -9, -6, -3, -1, 0, -3
1503686856683,-5, -3, -6, -5, -4, -4, -7, -9
1503686856699,-4, -11, -10, -11, -3, 0, -1, -1
1503686856721,-2, 3, 7, 1, 0, 0, 1, -6
1503686856743,-3, 5, 0, 2, -1, -3, -3, -7
1503686856759,1, -4, -4, -4, 0, -2, 0, 2
1503686856781,0, -4, -6, -8, -3, -2, -2, -4
1503686856803,1, -2, -4, 2, 0, 1, -1, 1
1503686856819,-3, -3, -1, -4, -1, -1, 1, -1
1503686856842,2, -1, -3, -2, -2, 0, -1, -2
1503686856865,5, 8, 6, 7, 2, 0, -1, 5
1503686856879,5, 4, 3, -1, -1, 1, 0, 2
1503686856901,0, 1, 5, 2, -1, 0, 0, -6
1503686856909,-1, -5, -4, -4, -2, -3, -4, 0
1503686856933,-1, -2, -2, -4, -3, 2, 0, -3
1503686856953,1, 2, 3, 1, 2, 2, 1, 4
1503686856968,4, 5, 6, 4, 2, 2, 1, 2
1503686856999,3, 3, 7, 1, 0, 1, 2, 3
1503686857013,-6, -13, -11, -8, -5, -1, 2, 1
1503686857028,-1, 0, 0, 3, -1, -4, -4, -7
1503686857051,-3, -10, -8, -7, -1, -1, -1, -2
1503686857074,-4, -6, -5, -8, -5, -1, -3, 13
1503686857088,-4, -6, -9, -4, -1, -1, 0, -8
1503686857111,2, 3, 4, 8, 2, 0, 1, -1
1503686857133,-2, -1, 3, 3, 1, 0, -1, -4
1503686857148,2, 6, 5, 2, 0, 0, 1, 1
1503686857171,-1, 1, -3, -5, -3, -1, 1, -1
1503686857193,-6, -5, -2, -3, -2, -3, -7, -17
1503686857208,-2, 0, 1, 1, 2, -3, -3, -1
1503686857231,5, -2, -3, -2, 0, -1, 4, 11
1503686857253,1, 3, -2, -3, -1, 1, 3, -4
1503686857269,3, 5, -7, -1, 0, 0, -4, -4
1503686857291,-6, -4, -1, -5, -4, -4, -4, -3
1503686857313,0, -2, 0, -3, -1, -1, 4, 15
1503686857328,-3, -1, 1, 1, -1, 0, -4, -12
1503686857351,1, 6, 7, 6, 1, -2, -2, -4
1503686857374,0, -2, -2, -4, -2, -2, -1, -1
1503686857395,-2, -6, -5, -2, 0, -2, 0, 0
1503686857411,0, 0, -1, 1, -1, -1, 0, -2
1503686857434,1, 1, 3, 4, 3, -1, -1, 2
1503686857449,-1, 0, -1, -3, -2, -3, -2, -7
1503686857463,-1, 1, -1, 0, -2, -1, -2, -1
1503686857486,-1, -1, 2, 0, -3, -1, -2, -1
1503686857502,-1, -4, -1, 0, 1, -2, 2, -1
1503686857523,1, 2, 1, 1, 0, -1, -2, -3
1503686857546,-1, 0, -2, -4, -1, 0, 2, 0
1503686857561,1, -1, -2, 2, 0, 0, 1, 1
1503686857583,-1, 0, -1, -2, -2, -1, 1, 1
1503686857606,-1, -2, -3, 1, 0, -1, -2, 0
1503686857622,-1, -1, 0, -3, -2, -1, -1, -2
1503686857643,-1, -3, -4, -3, -2, -1, -2, -2
1503686857651,-2, -1, 1, -1, 0, -1, -1, -1
1503686857674,-1, -1, 0, -2, 0, 1, -1, 0
1503686857695,2, -2, -4, -4, -3, -3, -1, -1
1503686857711,-3, -5, -4, -4, -2, -1, -1, -1
1503686857733,-2, 0, -3, 1, 1, 2, 1, -1
1503686857755,0, -1, 0, 1, -2, -3, -1, 1
1503686857771,-1, -2, -3, -1, 0, -3, -1, -5
1503686857793,2, -1, -1, -1, 0, 1, -1, -2
1503686857815,-2, -4, -2, 0, -2, -3, -2, 0
1503686857831,0, 1, 0, 0, 1, 2, 1, -1
1503686857853,-2, 1, 0, 2, -1, -1, -2, 0
1503686857875,-3, -5, -7, -4, -4, -1, 0, -2
1503686857891,0, 2, 3, 0, -1, 0, -1, -1
1503686857913,0, -3, -3, -5, -1, -3, -2, -1
1503686857935,1, 1, 0, -1, -1, -3, 1, -1
1503686857951,1, 4, 9, 6, 2, 2, 0, -1
1503686857978,-3, -2, 3, 0, -1, 1, -1, -2
1503686857995,0, 0, 3, 1, -1, -5, 1, 1
1503686858011,-3, -5, -6, -3, -1, -1, -2, -3
1503686858033,0, -1, -1, 0, -2, 0, -2, -1
1503686858055,0, -2, -2, -4, -2, 1, -2, -1
1503686858073,1, 2, -3, -1, 0, -1, 0, 0
1503686858093,-1, 2, -4, 0, 1, -2, -2, 0
1503686858115,-3, -7, -2, 3, 1, -1, 1, 1
1503686858131,-2, 1, 1, -1, -2, 0, -2, -1
1503686858153,2, 0, 2, -1, -2, -3, 2, 1
1503686858178,-3, -3, -1, -2, -2, -1, 0, -2
1503686858191,3, 2, 0, 0, 0, 0, -1, 2
1503686858213,-2, -2, 0, 2, -1, 1, 0, 0
1503686858235,-2, -1, -4, -5, -2, -1, -3, -4
1503686858251,-2, -1, 0, -2, 0, -4, -4, -3
1503686858274,-2, -1, -1, -2, 0, -1, 1, -1
1503686858295,0, 1, 4, 2, 0, -1, -2, -1
1503686858317,2, -1, -3, -4, 0, -1, 2, 0
1503686858325,-2, -4, 0, 0, -1, 0, 0, 0
1503686858349,-1, 2, 1, 1, -1, -1, -1, 0
1503686858363,0, 0, 1, 0, -1, 0, 0, 0
1503686858386,0, -2, 1, 1, 0, -1, -3, -1
1503686858409,-2, -1, -2, -3, 0, -1, 1, 12
1503686858423,-2, -1, -3, -3, -2, -3, -6, -7
1503686858446,-2, -2, -4, -3, -2, -2, -3, -7
1503686858468,-1, -3, -2, -3, -4, -2, -3, -2
1503686858484,1, -1, 2, 1, -2, -1, -2, -4
1503686858506,-1, 0, -3, -2, 0, 0, -1, -2
1503686858528,0, 0, -1, 0, 0, 0, 0, -2
1503686858545,1, -2, -4, 0, -1, -3, 0, 0
1503686858566,0, -4, -5, -3, -2, 0, 1, 2
1503686858593,1, 3, 3, -1, 0, -2, -1, -5
1503686858604,-3, -2, -1, 2, -1, 0, 0, -2
1503686858626,3, 2, 4, 1, 1, 1, -6, -2
1503686858650,1, 0, -1, 1, 1, 2, 4, 4
1503686858664,-2, 2, 3, 0, 2, 1, 1, 4
1503686858686,-3, -3, 3, 3, 2, 1, 2, -3
1503686858709,-5, -5, -6, -4, -2, -1, -2, -2
1503686858731,-2, 0, 2, -1, -1, 1, 0, 1
1503686858746,1, 2, 2, 1, 0, 0, -3, -2
1503686858769,0, -4, -3, -3, -2, -1, 2, 1
1503686858788,-4, -1, 1, -2, -4, -3, -2, 0
1503686858806,5, 0, 1, 1, 0, -1, 0, 1
1503686858828,0, 1, -2, 0, -1, -2, 0, 0
1503686858836,1, -1, -2, -4, -1, -3, -2, -1
1503686858857,1, -2, -1, -2, -3, -5, 0, -2
1503686858866,-3, -2, 1, 2, 0, 1, 0, -2
1503686858888,-2, -1, -5, -4, -3, -2, -2, -3
1503686858903,3, 12, 12, 3, 0, -3, -2, -3
1503686858926,-1, -4, -4, -1, -1, -1, -4, -4
1503686858949,-3, -3, -6, -3, -1, 0, -2, 1
1503686858963,-3, -2, -1, -6, -4, -1, 1, -1
1503686858987,0, 0, 2, 5, 5, 2, 2, 2
1503686859015,-3, -3, -1, -1, 1, -1, -2, -2
1503686859037,-2, -2, -2, -1, -2, -1, 2, -1
1503686859054,6, 1, 3, 5, -1, 1, 3, 6
1503686859083,-4, -3, -2, -4, -4, -2, 0, -2
1503686859098,3, 3, 0, -3, -2, 0, 2, 4
1503686859113,-4, -3, 1, 0, 0, -2, 0, 5
1503686859135,-3, 0, 2, 0, 2, 1, -3, -7
1503686859158,3, 1, 0, 0, -2, -1, -3, 5
1503686859173,-2, -2, -4, -3, -4, -1, 1, -1
1503686859195,2, 1, 0, 0, 1, 0, -3, -5
1503686859218,0, 4, 5, 2, 0, 1, 1, -2
1503686859233,-15, -9, -5, -1, -2, -1, -4, -13
1503686859256,-5, 21, 21, 10, 5, 2, -3, -10
1503686859277,0, -16, -15, -9, -5, -3, -2, -4
1503686859300,5, 14, 9, 2, 2, -1, -2, -1
1503686859316,-9, -8, -6, -5, -3, -5, -6, -22
1503686859338,0, -2, -3, -3, -2, 1, 1, 5
1503686859360,-3, -5, -4, -1, -3, -2, -6, -4
1503686859375,3, -1, 0, 2, 1, 1, 1, 5
1503686859397,0, -6, -5, -3, 1, 4, 5, 7
1503686859420,-1, -2, -2, -3, -3, -2, 3, 10
1503686859435,6, 0, -2, -2, -2, -1, -2, 11
1503686859458,-1, 0, 0, -1, 1, 0, 4, -2
1503686859483,3, 2, 1, 0, -2, -1, -5, -4
1503686859495,-3, -4, -3, -3, -1, -2, 1, -1
1503686859517,-5, 0, 4, 1, -1, 0, 2, -6
1503686859540,0, -2, 0, -1, 0, 1, 0, 2
1503686859550,-11, -2, 4, 2, 1, -1, -2, -10
1503686859570,-11, -19, -11, -3, -1, -3, -5, -8
1503686859577,-4, -9, -5, -2, 0, -2, 0, -8
1503686859600,3, 2, -3, -3, -2, -1, -1, 0
1503686859618,-5, -9, -8, -3, -4, 1, 6, 19
1503686859631,-10, -2, -3, 0, 0, -1, -3, -15
1503686859645,-1, 3, -2, -5, -4, 0, -3, -10
1503686859660,-8, -4, -1, -3, -1, -5, -6, -18
1503686859675,4, 9, 3, 1, -1, 2, 1, -1
1503686859697,1, 0, 4, 0, 0, -4, -6, -8
1503686859706,-6, -9, -6, -6, -4, -2, -1, -5
1503686859728,0, -1, 2, 1, 3, 2, -3, -4
1503686859753,3, -1, -2, -1, -1, 1, -4, 0
1503686859765,-3, -6, -4, 3, 2, 2, 2, -12
1503686859780,4, -2, -5, -4, -2, -3, 5, 9
1503686859796,0, 5, -1, 0, 0, 1, 1, 1
1503686859821,7, 4, 10, 5, 4, 2, 7, 10
1503686859827,-6, -6, -8, -4, -5, -3, -3, -4
1503686859848,-2, 4, 4, 0, 1, -3, -7, 1
1503686859871,-5, -3, 1, 0, -1, -1, -3, -5
1503686859889,3, 2, 1, -1, -2, 1, 3, 6
1503686859908,5, 6, 8, 5, 1, -1, 1, 15
1503686859931,-1, -8, -7, -3, 0, -2, 4, 0
1503686859945,12, 16, 15, 4, 2, 2, 2, 13
1503686859962,-3, 1, -1, 3, 1, 0, -2, -4
1503686859976,1, 4, 5, 0, -1, 1, 3, -2
1503686860006,18, 12, 9, 4, 1, -1, 1, 7
1503686860021,-11, -7, -13, -7, -2, -4, -9, -22
1503686860029,-1, 1, 0, -1, -4, -3, 0, -3
1503686860053,-13, -4, -1, -4, -2, -4, -11, -6
1503686860066,9, 8, 5, 4, 1, 0, 0, 1
1503686860088,2, 0, 4, 4, 0, 1, 5, 12
1503686860111,2, -3, -4, -2, -1, -1, -3, -1
1503686860128,-1, -4, -4, -1, -1, 0, 3, 3
1503686860148,0, -2, -1, -1, -1, -1, 0, -3
1503686860171,2, 4, 5, 1, 0, 2, 0, -4
1503686860193,-4, -1, 0, 1, 0, 1, 4, 1
1503686860208,-12, -3, 4, -1, 1, -3, -6, -18
1503686860232,1, -4, -5, -4, 0, 0, 1, 3
1503686860239,7, 12, 13, 6, 4, 4, 8, 8
1503686860261,-2, 2, -6, -3, -2, -3, -2, -17
1503686860283,11, 7, 4, 2, -3, -1, -2, 7
1503686860291,-5, -7, -3, 0, 0, -1, -4, -11
1503686860313,6, 4, 4, 0, 0, 2, 3, 5
1503686860328,0, 1, -1, -2, -4, -1, -6, -11
1503686860351,0, -4, -7, -2, -3, -3, -1, -5
1503686860373,4, -3, -2, 0, 2, 0, 2, 3
1503686860389,0, 2, 0, -1, 0, -1, 1, 5
1503686860413,-7, -12, -3, -1, -1, -3, -1, 2
1503686860434,3, 3, 1, -1, -2, 1, 1, 2
1503686860448,0, -3, -1, -2, -1, -1, -1, 0
1503686860471,-6, -1, 1, -1, 1, 2, 0, -1
1503686860493,-2, 2, -1, 1, -2, -2, -3, -12
1503686860511,-2, -4, -3, -3, -2, -1, -3, -6
1503686860525,-7, -4, 2, 3, 0, 0, 2, -5
1503686860539,-2, -1, -4, -5, -1, 0, 2, 9
1503686860561,5, 5, -2, 0, 1, -2, 2, 1
1503686860583,-5, -4, -1, -4, -1, 0, -1, -11
1503686860599,2, 0, -3, -4, -1, 0, -1, 8
1503686860624,0, 7, 5, 6, -1, -1, -5, -3
1503686860643,1, -2, -1, -1, 0, 0, -1, -2
1503686860659,0, -1, -3, -2, -3, -3, 1, 2
1503686860681,-3, -1, -1, -1, -1, -2, -4, -6
1503686860690,-2, -4, -4, -3, 0, 0, -2, 1
1503686860710,-1, -1, -1, -1, -1, -1, 2, 0
1503686860733,2, 4, 5, 2, 1, 0, -3, -2
1503686860748,3, 6, 13, 7, 3, 1, -1, 0
1503686860771,-4, -8, -9, -7, -4, -3, -7, -6
1503686860793,-3, -7, -2, -2, -2, -2, 1, -2
1503686860802,3, 3, -1, 2, 2, 2, 3, 1
1503686860826,-3, -5, -6, -7, -1, -5, -4, 1
1503686860839,-2, -2, -3, -3, -2, -1, 0, 0
1503686860862,4, 0, -1, 0, 0, 1, 2, 4
1503686860884,1, 0, 3, 2, 2, 0, 1, 1
1503686860898,-1, -4, -3, 0, -1, 0, 0, -1
1503686860913,-5, -2, 1, 0, 0, -2, -3, -4
1503686860931,-1, 0, -2, -1, -2, -1, 3, 6
1503686860950,-5, -2, -1, 0, 2, -1, -3, -9
1503686860973,3, 1, 0, -2, -2, -2, -1, -1
1503686860988,1, 1, 3, -2, -1, 2, 1, -3
1503686861011,0, -3, -4, 0, -1, -1, -2, -2
1503686861033,1, 0, -1, -1, 0, -2, -4, 1
1503686861048,1, 1, -1, -1, 0, 1, -2, -5
1503686861064,1, -1, 1, 0, 0, 0, 1, 7
1503686861079,12, 6, 8, 8, 4, 5, 8, 17
1503686861102,-3, -3, -3, -1, -2, 0, -2, -1
1503686861123,-5, -4, -3, -5, -3, -3, 0, -5
1503686861146,-3, -8, -5, -1, -1, -3, -2, -4
1503686861162,-7, -9, -3, 2, 0, 0, 0, -1
1503686861184,-4, -2, -6, -12, -7, -2, -6, -6
1503686861206,-4, -6, -6, -1, -1, -1, -2, 0
1503686861222,0, 3, 3, -1, -1, 2, 3, 5
1503686861243,1, 1, -1, -3, -2, 0, -4, 1
1503686861251,-5, -3, -1, 1, -4, -2, -6, -2
1503686861288,0, -1, -3, -2, 0, -1, 0, -1
1503686861306,-2, -4, -5, -1, -1, -3, -5, -8
1503686861326,0, -3, -5, -4, -3, 0, 3, -5
1503686861341,2, 3, 9, 6, 0, -1, -2, 4
