1503694930456,-4, -8, -4, -3, -11, -1, 0, -1
1503694930481,-1, -3, -4, 0, 2, -2, -1, -3
1503694930502,0, -4, -6, -3, -9, -2, -2, 0
1503694930516,-1, 1, -2, -1, -5, -2, -1, 0
1503694930539,0, 0, 1, -1, 2, 0, -2, -1
1503694930561,-1, 1, 2, 1, -4, -3, -2, -3
1503694930576,-1, -2, -1, 0, -1, -1, -1, 0
1503694930591,0, 2, -1, 0, -2, 0, 0, 1
1503694930606,1, 3, 2, 3, -1, -2, 0, 0
1503694930628,1, 0, 0, 1, -10, -4, -4, 0
1503694930652,0, -2, -3, -2, -14, -3, 1, 0
1503694930667,-1, -4, -2, -1, 0, 0, 0, -2
1503694930690,0, -1, -1, -1, 2, 1, 0, -1
1503694930713,-2, 2, 3, -1, 1, 1, -1, 2
1503694930727,0, -1, -3, 3, 19, 4, -1, -1
1503694930749,5, 4, -1, 1, -3, 0, -1, -2
1503694930775,-4, -3, 2, 0, 0, -1, -1, -3
1503694930787,33, 14, 4, -1, -3, -1, 1, 4
1503694930810,-12, -8, -1, -2, 0, 0, 0, -1
1503694930832,-3, -3, -4, 0, 1, 0, -2, -2
1503694930847,-7, -3, -7, 2, 5, -2, -2, -4
1503694930869,-7, -8, 0, 14, 41, 8, 3, 1
1503694930892,-11, -4, 1, -6, -16, -3, -4, -1
1503694930910,-13, 0, -2, -6, -18, -3, 0, 0
1503694930930,-6, -4, 2, -5, -8, -3, 0, 2
1503694930954,-24, -17, -8, -2, 4, -2, -5, -7
1503694930967,16, 12, 4, 4, -9, 5, 4, 4
1503694930990,-2, -2, -2, -6, -3, -4, -1, -1
1503694931012,-5, -2, 0, -1, -9, -3, -1, -2
1503694931034,1, -1, -2, -2, 3, 2, -4, -3
1503694931049,13, 2, 3, 0, -1, -1, 0, -1
1503694931072,14, 4, 1, 0, -3, -1, 2, 4
1503694931094,-2, -2, -1, -3, 2, -2, -2, -5
1503694931111,-9, -3, -1, -1, -1, -3, -2, -2
1503694931118,-8, -2, 0, 1, 3, 1, -1, -2
1503694931139,3, 2, 0, -1, 2, -1, -1, 0
1503694931161,0, -4, 0, 0, 0, 0, -1, -2
1503694931177,-48, -19, -13, -7, -3, -5, -8, -16
1503694931199,14, 1, 1, 3, 1, 2, 2, 3
1503694931221,14, 8, 2, -1, 0, -2, 0, 2
1503694931236,3, 3, 2, -2, 2, -1, 1, 1
1503694931259,1, 0, 0, 0, -2, -2, -1, 0
1503694931282,8, 0, 2, 2, 2, 1, 2, -1
1503694931297,4, 1, 0, 0, -3, -1, -1, 1
1503694931319,2, 2, 0, -1, 0, 0, 1, -1
1503694931348,-9, -4, -4, 0, 0, -1, -2, -2
1503694931356,3, 3, 1, 0, -1, -1, 0, 1
1503694931379,0, 0, 1, 1, -1, 0, 1, 0
1503694931401,3, 1, 1, -3, -2, 1, -1, -1
1503694931424,0, -1, 0, -2, -3, -2, -2, -3
1503694931439,0, 1, -1, -1, 0, -2, 0, 2
1503694931461,2, 0, -1, 0, 0, -1, -1, -2
1503694931484,0, -3, 0, -2, -3, -2, 0, 1
1503694931499,1, 0, -1, -1, 0, 1, -1, 0
1503694931522,7, 6, -1, -1, -3, 0, -1, 0
1503694931547,-4, 0, 1, 0, -1, -1, -2, 1
1503694931559,-7, -2, -3, 0, -1, 0, 0, -1
1503694931589,0, 1, -3, 0, 2, 0, -1, 0
1503694931614,-3, 0, 1, -5, -7, -5, -1, -2
1503694931634,3, 1, 0, -1, 1, -1, 0, 2
1503694931650,-5, -2, -5, -1, 1, 0, -2, -1
1503694931672,0, 1, -1, 2, 4, -1, 1, -1
1503694931694,-5, -2, 0, -3, -1, -2, -2, -1
1503694931709,2, -2, -2, 1, 1, -2, -2, 0
1503694931732,0, 1, -1, -1, -1, -1, -2, 1
1503694931754,0, 1, 0, 1, -6, 1, 0, -1
1503694931777,2, -2, 0, 1, -1, 1, 0, -1
1503694931792,5, -1, 0, -1, 7, -2, 0, 1
1503694931816,-1, -1, -1, -1, -4, -1, 1, -1
1503694931829,-3, -2, -1, 1, 4, 0, -1, -3
1503694931852,-1, 1, -2, -2, -6, 0, 1, 1
1503694931874,-1, -2, 0, -1, 1, 0, -1, -1
1503694931890,-1, 0, 1, 0, 1, 1, 1, -2
1503694931912,-3, -2, -2, -3, -5, -3, -2, -3
1503694931934,-2, -1, -2, -1, 2, -1, -4, -2
1503694931950,-3, 1, -1, -4, -10, -4, 1, 2
1503694931972,-2, 0, -1, 6, 11, 1, 0, -2
1503694931994,3, -1, 0, -2, -2, 1, -2, 1
1503694932009,2, 2, 1, 2, 2, -2, -2, -3
1503694932032,-2, -1, -2, -5, 0, -2, 1, 0
1503694932054,2, 1, 1, 0, 15, 1, -2, -1
1503694932069,0, -3, -3, -4, -8, -1, -1, -1
1503694932092,5, 2, 0, 0, -7, -2, -1, 0
1503694932117,-7, -5, -1, -1, -1, -1, -2, -2
1503694932130,1, 2, 1, 0, -2, -1, 0, -2
1503694932153,3, 0, -2, -5, -5, -2, 1, 1
1503694932174,-2, -2, -1, -3, -4, -1, 0, 0
1503694932188,-1, 1, -2, 0, -1, -3, -2, 1
1503694932204,2, 3, 1, 2, 2, -2, 0, 1
1503694932220,-2, -2, 0, 0, 4, 1, -2, 0
1503694932241,1, 2, 0, -1, 1, -1, 1, 2
1503694932264,-4, -1, 0, -1, -8, -3, -3, -2
1503694932279,2, -1, -1, -1, -1, -2, 1, -2
1503694932301,2, 0, -3, 1, -3, -2, 1, 1
1503694932324,-3, -1, -1, -3, 2, 1, -2, -3
1503694932346,-1, -2, 0, 3, 15, 2, 1, -2
1503694932361,-1, -3, 0, -5, -6, 0, -2, -2
1503694932385,-3, -3, -2, -2, -4, 1, -2, 0
1503694932392,0, 2, 2, 3, 0, 0, -1, -1
1503694932414,-1, 2, -1, 0, -3, 0, 0, -1
1503694932436,-1, -4, -2, 1, 0, -2, -1, -2
1503694932459,0, 2, -1, -1, 0, 0, -1, 2
1503694932474,-4, -4, -2, 0, 1, -2, -2, -1
1503694932497,2, -1, -1, 0, 11, 1, 1, 0
1503694932512,-2, 0, 0, 0, -4, -2, -1, 0
1503694932534,-4, -1, 0, 0, -2, 1, -1, -2
1503694932557,0, -2, -2, -1, -2, -2, -2, -1
1503694932572,0, 1, 3, -2, -2, -2, 0, 1
1503694932595,-1, 0, -1, -4, -1, -2, -1, -1
1503694932616,0, -2, -3, 0, 1, -1, -1, -4
1503694932632,0, 0, -3, 0, -4, 0, -1, -1
1503694932655,1, 1, -1, 5, 10, 0, -1, -1
1503694932676,-3, -6, -1, -5, -2, -2, -2, 0
1503694932692,-3, -3, -1, -2, -6, 0, -1, -2
1503694932714,1, 0, -1, 0, 0, 0, 1, 0
1503694932737,-2, 0, -1, -3, 0, 0, -1, 0
1503694932753,0, -2, 0, -2, 0, -1, 2, -3
1503694932766,-1, -3, -3, 0, -6, -4, -3, -2
1503694932781,-1, -1, 0, 1, -1, 1, 1, 0
1503694932804,-3, 1, 2, 3, -3, -2, -2, -1
1503694932826,0, -3, -2, 2, 2, -2, 0, -1
1503694932841,-3, -2, 0, -3, 0, 0, 0, 2
1503694932864,-1, 0, -2, 1, -2, -3, 1, 0
1503694932890,1, -1, -2, -2, -1, 0, -1, 0
1503694932901,-1, 2, 0, 1, 0, 1, -1, -1
1503694932924,0, -1, 0, 2, 11, 2, 0, -2
1503694932946,-1, 1, 0, 1, 0, -1, 0, -1
1503694932961,2, 0, 1, -4, -3, 2, 0, -1
1503694932984,0, -1, -4, 0, -3, -2, -2, 0
1503694933006,-2, 0, -1, -2, -2, -1, -1, -2
1503694933023,2, -1, 0, -1, 1, -1, 1, -1
1503694933044,0, -2, -1, -2, -4, -2, -1, -2
1503694933066,-3, -3, -3, -3, -7, -3, -2, -1
1503694933081,-1, -1, 1, 0, -4, 0, 0, 0
1503694933104,-2, -2, 0, -2, 0, -3, 1, 0
1503694933127,-2, -1, -2, 1, 2, 0, -1, -2
1503694933141,-1, -2, 1, -3, -3, -2, -1, 0
1503694933164,-3, -1, -2, 0, -8, 1, -2, 0
1503694933186,0, 2, 0, 0, 6, -1, 0, -3
1503694933201,0, 0, 0, 0, 0, -2, -5, 0
1503694933225,-1, -2, -1, -2, 0, 0, -1, -1
1503694933246,0, -1, -2, -3, 0, -1, 1, -1
1503694933268,-1, -2, -1, 0, 6, 0, -4, -1
1503694933284,-1, 1, 1, -1, -7, -2, -2, 1
1503694933307,-4, -4, -3, 1, -2, -3, -1, -2
1503694933328,1, 1, -1, 2, -2, -1, 1, 0
1503694933344,0, 1, -2, 0, 2, -1, -1, 0
1503694933367,0, -1, -1, -4, -2, 0, 0, -2
1503694933388,0, 4, 2, -1, -1, 0, -3, 0
1503694933404,0, -3, -1, 0, -6, 0, 2, -2
1503694933426,-1, -3, 0, -1, -1, -2, 0, 0
1503694933448,-4, -3, -4, -4, -2, -2, -2, -1
1503694933464,1, 0, -1, 1, 1, -1, 0, 1
1503694933486,0, 0, 2, -4, -6, -1, 0, -1
1503694933508,-2, -1, 1, -1, -2, 2, 0, 0
1503694933524,2, 0, -3, -1, 5, -1, -1, -2
1503694933546,0, -1, -1, 0, -1, -3, -2, 0
1503694933568,1, -1, 0, 1, 2, 0, -1, 0
1503694933584,-1, -3, -1, -2, -4, -1, -2, -2
1503694933606,-2, -1, -1, 0, -1, -2, -2, -1
1503694933628,0, -2, -2, -2, 3, 0, 0, 0
1503694933644,-3, -1, 0, 2, 1, -1, -1, -1
1503694933666,0, 0, -1, 0, -2, -1, -1, -3
1503694933688,-2, -2, -1, 2, 7, 1, 0, -2
1503694933706,-1, -1, -2, -3, 2, -2, -2, -1
1503694933729,0, 0, 1, -1, -4, -1, 1, 1
1503694933748,2, 0, -1, -1, -3, 1, -2, -3
1503694933764,2, 1, 1, -1, -1, 0, 0, 1
1503694933786,0, 3, -1, -5, -3, 0, -1, 1
1503694933808,-5, -5, -3, -2, -4, -1, -1, 2
1503694933824,-2, 0, -3, -2, -2, -1, -1, -4
1503694933846,-2, -2, -2, 2, 1, -2, -2, -1
1503694933868,0, 1, 0, 0, -8, -1, 1, 1
1503694933884,0, -1, -2, 2, 6, 0, -1, 0
1503694933906,-1, 0, 0, 0, 2, 0, 0, -2
1503694933931,-3, -5, -2, -1, -3, -2, 0, -2
1503694933944,0, 1, 1, 0, 1, -2, 1, -1
1503694933966,0, 2, 2, -1, -2, 1, -1, 1
1503694933988,-1, -1, -1, 1, 5, -1, -2, -1
1503694934005,-1, -1, 0, -3, 1, 0, 0, 0
1503694934026,2, -2, -2, 0, 0, 1, -1, -1
1503694934048,1, -1, 0, -3, -1, -1, 0, -1
1503694934064,-2, 0, -2, 1, -2, -3, -2, -3
1503694934086,-2, -1, -1, 1, 7, -2, -2, -2
1503694934108,0, -1, 0, -2, -5, -1, -1, -1
1503694934124,1, -2, -3, -1, -3, -2, 0, -2
1503694934146,-4, -1, 0, -1, -5, -1, -1, -2
1503694934168,1, 0, 0, -2, -3, -3, -1, 2
1503694934190,0, -2, -2, -3, -1, -2, 0, 1
1503694934199,-2, -3, -2, 0, 8, 0, -1, 0
1503694934221,-2, 1, -1, -1, -3, -1, -2, -1
1503694934236,0, -1, -2, -1, -6, -2, -1, -1
1503694934259,1, 0, 1, -1, -1, -1, -1, -1
1503694934281,1, 1, -1, -2, -4, 0, 1, 0
1503694934299,-4, -1, -1, 0, -2, -1, -1, 0
1503694934318,0, -1, 0, -3, 3, -1, 0, -1
1503694934341,1, -2, -1, 0, 0, 1, 2, 2
1503694934356,-2, 0, 0, 0, 1, -1, 0, -3
1503694934379,0, 0, -3, -2, -3, -3, -1, -1
1503694934401,0, -2, 1, 1, -4, -1, -3, -1
1503694934416,1, 0, 1, -3, -4, 0, -1, -2
1503694934439,-1, -2, 0, 1, 0, -1, 1, 0
1503694934461,-2, 0, -1, 1, 1, -1, -1, -1
1503694934476,-1, -3, -3, 0, 2, 0, -1, -1
1503694934500,0, 1, 1, 0, 1, 0, 1, 1
1503694934521,-1, 0, 1, 3, 7, -1, 1, 0
1503694934538,-2, -2, -1, -2, -4, -1, -2, -4
1503694934559,-2, -3, 1, -3, -3, -2, 0, -1
1503694934581,-1, 1, -2, 6, 12, 3, 1, 0
1503694934596,3, -1, 0, -3, -7, -3, -1, 0
1503694934618,1, 2, -2, -1, 4, 2, 0, 0
1503694934641,-3, -3, -1, -2, 2, -1, -3, -1
1503694934656,2, 0, -2, -4, -6, -2, -1, -1
1503694934679,-8, -3, 0, -1, -8, -1, -1, -4
1503694934702,23, 11, 0, -6, -9, 1, 1, 0
1503694934716,-3, -2, 2, 0, -3, -2, -2, 1
1503694934739,-9, -6, -3, 0, 3, -1, -2, -4
1503694934761,1, 3, -1, -1, 0, -1, 1, 0
1503694934777,-3, -5, -3, 0, 2, 0, -1, 1
1503694934799,-5, -3, -2, -2, 3, 0, -2, -4
1503694934821,0, -2, -3, 1, -4, -2, 0, -1
1503694934839,-2, -2, 0, 3, 19, 0, 0, 1
1503694934859,-1, -2, 0, -1, -2, -1, -1, -1
1503694934881,-6, -2, -2, -4, -9, -2, -1, -3
1503694934896,0, 1, -1, -3, -4, -2, -1, 0
1503694934918,0, 1, 1, 2, -3, 0, -2, 0
1503694934941,0, 0, -2, -2, -6, 1, -1, 1
1503694934956,1, -1, -1, -3, 2, -1, 0, 0
1503694934983,0, -1, 0, 1, -1, 1, -1, -1
1503694935008,0, 0, -2, -2, -6, -2, -1, 1
1503694935030,0, 1, 0, 5, 7, -1, 0, -3
1503694935046,0, -1, -2, -3, -8, -1, -1, 0
1503694935068,-3, -3, -4, -2, -1, 0, 0, 0
1503694935090,-1, 0, -1, -3, -4, -1, -1, 0
1503694935106,-4, -1, 2, 0, 4, 1, -2, 0
1503694935128,0, 2, -1, -2, -3, 1, -1, 1
1503694935150,0, -1, -1, 0, 4, -1, -1, -1
1503694935173,-8, -5, -1, 0, 0, -2, 0, -2
1503694935188,4, 1, -2, 2, -1, 0, -1, -1
1503694935211,1, 0, -1, -4, -2, 0, -1, -3
1503694935219,-1, 1, -1, -3, -14, -5, -2, -2
1503694935241,-1, -1, -2, -4, -1, -3, -2, 0
1503694935264,2, 0, -2, -1, -4, 0, 0, 1
1503694935273,-2, -2, -4, -2, -4, 0, -1, -2
1503694935293,-1, -3, 1, -2, 1, -1, -1, -3
1503694935308,2, 0, 0, -2, 3, 0, 1, 3
1503694935330,2, 1, 1, 1, -1, 1, 0, 1
1503694935353,-2, 0, -1, 1, 3, -2, -2, -1
1503694935368,-1, 2, 0, 2, 6, 0, -1, -2
1503694935390,0, -3, -2, -3, -9, -2, -1, 0
1503694935415,-1, -3, -5, -3, -1, 0, -1, -1
1503694935435,-3, 0, 0, 0, 3, 0, 0, -3
1503694935458,-1, 0, 0, 1, 1, 0, 0, 0
1503694935473,0, -1, -1, 1, 1, 0, -1, -5
1503694935488,0, 1, 0, -2, -1, -2, -2, -1
1503694935510,0, 1, -4, -2, 0, 1, -1, 2
1503694935542,0, 0, 1, 0, 0, 0, -3, -2
1503694935564,1, -1, 1, 7, 16, 0, -1, -2
1503694935579,0, -1, -1, -1, -4, -1, 0, -2
1503694935601,-5, -3, -3, -4, -6, -1, 0, -2
1503694935624,1, 2, 1, -3, -6, -3, 0, 2
1503694935639,0, 1, 2, -3, -8, -2, -1, 0
1503694935661,-2, -2, -5, -4, 4, -1, -2, -1
1503694935684,2, -1, -1, -1, -5, -3, 0, -1
1503694935699,-1, -2, -1, 0, 0, 1, 1, 0
1503694935721,-2, 0, 1, 3, 2, 0, -2, -2
1503694935744,0, -1, -1, -2, 0, 0, -1, 0
1503694935759,-1, -3, -3, 0, -1, -1, -2, -1
1503694935781,-2, -1, -1, -3, -2, -2, 0, 0
1503694935803,1, 2, 0, -1, -1, 1, 2, 1
1503694935813,-1, 0, 0, -1, 0, -1, -1, -2
1503694935834,1, -1, -2, 0, -3, -2, -1, 0
1503694935857,-1, -2, 0, 0, 0, 2, 0, -1
1503694935872,-1, 1, 0, -4, -2, -1, 0, -2
1503694935894,-2, -1, 2, 0, -5, -4, -2, 2
1503694935917,0, 0, 0, -2, 3, -1, -1, -2
1503694935932,3, -2, -1, -2, -3, 0, 1, 2
1503694935954,-3, -2, -4, -4, -6, -1, -1, -4
1503694935977,-1, -2, 2, 0, -1, 0, -2, -1
1503694935984,0, -1, -1, -3, 2, 0, 0, -2
1503694935999,0, 1, 3, 4, 1, 1, 0, 0
1503694936021,2, 2, -1, -1, 1, 0, 0, 0
1503694936044,0, 0, 0, 0, 4, -2, -1, -2
1503694936066,3, -2, 1, -2, -7, 1, -2, 2
1503694936081,-3, -3, -2, -1, 0, -2, 0, -1
1503694936103,0, -1, -3, -5, -9, -3, 0, -1
1503694936126,1, 0, 0, 0, -1, -2, -1, 0
1503694936141,-1, 1, 0, -1, -7, -4, -3, -4
1503694936163,0, 0, 2, 8, 21, 3, 1, 1
1503694936187,3, 3, 0, -4, -7, 0, 2, 2
1503694936201,-3, -2, -1, 1, -4, 0, -2, -4
1503694936224,-3, -6, -2, -3, -14, -2, -2, 3
1503694936247,0, 0, -19, -6, 1, -2, -1, -2
1503694936261,-1, 2, 7, -2, 4, 2, 0, -1
1503694936292,-4, -3, -3, 14, 7, 8, 4, -3
1503694936315,2, -4, -11, -8, -13, -4, -2, -1
1503694936337,3, 7, 3, -12, -47, -10, -4, 0
1503694936352,1, 25, 0, -4, -11, -1, 0, -7
1503694936374,-2, 3, 0, -3, 14, 0, -1, -2
1503694936397,0, 12, 10, -6, -30, -10, -3, -1
1503694936413,7, 18, 13, 6, 25, 9, 3, 8
1503694936434,-6, -4, 8, 4, 40, 7, -4, -3
1503694936457,9, 16, 12, 2, -18, -2, 4, 2
1503694936472,6, -10, -26, -5, 2, -5, -1, -3
1503694936494,-9, -12, -5, 25, 49, 11, 2, 0
1503694936517,3, -12, -11, -13, -17, -6, -2, 1
1503694936531,4, -3, -5, -14, -17, -8, -2, -1
1503694936554,-4, 0, 13, -6, -8, -5, -4, -5
1503694936576,-1, 38, 54, 0, -8, 13, -1, -2
1503694936592,0, -23, -5, 12, -9, -12, 0, 6
1503694936615,-6, 10, 17, -2, -1, 9, 1, -6
1503694936637,-3, 8, 10, 7, 2, -6, -5, -2
1503694936652,-5, -51, -65, 3, 33, 8, -1, 0
1503694936675,-3, -2, 1, 0, -6, -5, -3, -3
1503694936697,-5, -3, -25, -4, 12, 12, -3, -10
1503694936712,-3, 6, 10, -10, -16, -15, -4, -3
1503694936734,1, 29, 47, 13, 6, 11, -1, -9
1503694936757,12, 24, -33, 15, 18, -18, -4, 8
1503694936772,-13, -56, -77, -62, -50, 29, 11, 1
1503694936794,-4, -10, -11, 28, 31, -25, -11, -1
1503694936818,-33, 19, -58, -50, -16, -21, -16, -75
1503694936832,-29, -14, -5, -54, -92, -78, -40, 1
1503694936854,-8, -20, 22, 19, 3, 5, -1, 20
1503694936877,-74, -76, -65, -32, 35, -55, 7, -20
1503694936892,12, -25, 14, -26, -23, 127, 41, -22
1503694936915,-26, -30, -8, 23, -10, -128, -62, -79
1503694936929,-13, 10, -11, 1, -6, 9, 4, -17
1503694936944,30, 42, 20, -10, 2, 110, 65, 35
1503694936966,8, 27, 16, 33, 24, -21, -4, 17
1503694936989,1, 15, 12, 14, 43, 0, -5, 10
1503694937003,-2, 27, 21, 19, 32, 8, -1, -18
1503694937026,-1, -6, -8, -3, -27, -3, -5, -15
1503694937049,5, 6, 9, -2, -18, -4, -3, 2
1503694937064,-16, 8, 27, 17, 20, -10, -15, -27
1503694937086,-3, -21, -17, 1, -9, -11, -5, 1
1503694937109,-5, -3, -14, 1, 37, 13, 5, -2
1503694937124,9, 13, 13, 29, 98, 26, 8, 14
1503694937146,0, -8, -4, -9, -33, -12, -4, 3
1503694937155,-3, 9, 8, 10, 10, 3, -1, -7
1503694937178,1, -3, -6, -12, -14, -3, 0, 2
1503694937199,-2, 1, 1, -5, -1, 3, 0, -14
1503694937214,2, 8, 13, 22, 55, 16, 2, 11
1503694937237,0, -9, -8, -15, -18, -8, -1, 9
1503694937259,-3, 1, 2, -2, -16, 1, 1, -2
1503694937274,4, 8, 8, 0, -1, 1, -1, 1
1503694937297,0, 0, 2, 6, 8, 8, 3, 1
1503694937322,0, 3, 3, -1, 1, -5, -3, 0
1503694937327,2, -1, -2, 6, 2, 3, 2, 1
1503694937349,1, 2, -2, -3, 17, 5, 1, -1
1503694937364,-3, -3, -3, -1, -4, -3, -2, -2
1503694937388,0, -1, 2, 5, 10, 4, -1, 1
1503694937408,0, 0, -1, -1, 2, -2, -1, 1
1503694937417,-1, 0, 1, -2, -13, -1, 2, 0
1503694937438,0, -2, 0, 0, 3, 1, -2, -2
1503694937455,-2, 0, -2, -3, -12, -3, -2, 0
1503694937477,0, -3, -4, -3, -6, 0, 0, 0
1503694937499,-1, -1, 1, 7, 10, 0, -1, 0
1503694937514,-1, -1, 2, -1, -14, -7, -2, -3
1503694937537,0, 0, 0, 10, 9, 5, 2, 1
1503694937559,-1, -1, -2, -12, -24, -8, -3, -1
1503694937574,-3, -2, -1, 1, 3, 1, 0, 0
1503694937590,-2, -4, -2, -2, -16, -3, -2, -2
1503694937603,-1, -5, -2, 3, 9, 3, 1, -1
1503694937619,-2, -2, -4, -3, 8, 3, -1, -2
1503694937634,-2, -3, -4, -10, -11, -1, -1, 0
1503694937658,1, 1, 2, 4, -14, -1, 0, 0
1503694937678,-11, -6, -2, -2, -6, -5, -2, -3
1503694937694,0, 0, -1, 0, 2, -1, -2, 1
1503694937717,-8, -3, 0, 0, 12, 1, 1, 2
1503694937738,4, 0, -1, 3, 8, 1, 0, -2
1503694937757,-7, 1, -3, -2, 6, 0, -2, -4
1503694937777,9, 2, 1, 2, 3, 2, -1, 1
1503694937799,7, 3, 0, -1, -2, -1, 1, 0
1503694937814,6, 5, 5, 8, 5, 2, 4, 2
1503694937837,-10, -7, -3, -2, 7, 0, -2, -5
1503694937859,2, -1, 3, 1, 1, 1, 3, 7
1503694937874,-3, -3, -7, -6, 3, -3, -5, -4
1503694937897,12, -4, -3, 3, 4, 3, 4, 5
1503694937918,-11, -3, -9, -7, -6, -5, -2, -1
1503694937941,-4, -8, -14, -8, -4, -8, -7, -8
1503694937957,-3, -5, 9, 6, -9, 3, 6, 11
1503694937979,-20, -20, -4, 4, 5, 0, -4, -9
1503694938001,-8, 9, -3, -2, 1, 0, -3, -3
1503694938017,44, 20, 5, -4, 0, 2, 8, 54
1503694938039,3, 4, 3, 1, -2, 1, 0, -15
1503694938062,-14, -10, -5, -4, 0, -1, 0, -8
1503694938077,-1, 2, 4, -2, 0, -1, -2, -10
1503694938099,-5, -3, 3, 4, 1, 0, -3, -5
1503694938121,6, -1, 0, -1, 1, -2, -1, 13
1503694938136,20, 14, 26, 4, -4, -1, -3, -4
1503694938159,-12, -11, -10, -5, -4, -1, -3, -14
1503694938181,-7, 1, -2, -3, -5, -3, -2, -5
1503694938196,-4, 4, 10, 6, 3, 2, 0, -13
1503694938218,7, 28, 30, 16, 7, 3, 0, -12
1503694938241,-8, -32, -49, -19, -6, -1, -4, -9
1503694938257,15, -11, -9, -9, -3, -3, 4, 40
1503694938279,-1, -7, -10, -7, -5, -3, -2, -4
1503694938301,-7, -3, -5, -1, -1, -5, -4, -10
1503694938317,-8, -6, 0, -2, 0, -1, -2, -8
1503694938338,-4, 5, -5, -3, -1, 0, 2, 1
1503694938361,-15, 5, 10, 2, -1, -1, -2, -11
1503694938369,7, 0, 2, 2, 2, 2, 5, 20
1503694938390,-3, 1, -3, -3, -2, -3, -4, -9
1503694938399,2, 8, 9, 6, 2, 2, 1, 6
1503694938421,-7, -7, -1, -1, 0, -2, 0, -3
1503694938437,4, -1, -1, -1, -2, -1, 1, 4
1503694938461,1, 4, 3, -2, -1, 0, -1, -2
1503694938481,1, 3, 3, 3, -1, 0, -1, -3
1503694938497,1, -5, -1, -3, -1, 0, -3, 0
1503694938519,2, 0, -2, 2, -1, -2, -1, -1
1503694938541,-1, 1, -1, -4, -7, -1, -2, -2
1503694938557,1, 2, -1, -4, -2, 0, -1, -2
1503694938579,-1, -1, 3, 2, 2, -1, 0, 0
1503694938601,5, 5, 3, 1, 5, 1, 0, 0
1503694938617,0, -1, -1, -2, -5, -3, -3, 0
1503694938639,-3, -4, -4, 0, 3, -1, 0, -2
1503694938662,2, -3, 3, 0, 2, 1, 2, 1
1503694938676,-2, 7, -6, -4, -3, -3, -2, -4
1503694938691,3, -4, -7, -4, -7, -2, -2, 0
1503694938706,-4, -3, -8, -4, -2, -2, 1, 1
1503694938730,3, 3, 3, 2, 3, 1, -1, 1
1503694938751,-2, 3, 5, -1, 3, 0, 0, 3
1503694938766,7, -5, -4, 2, 3, -2, 2, 6
1503694938789,-8, 2, -3, -6, -10, -5, 0, -1
1503694938811,-3, -4, -3, 2, 8, -1, 1, 0
1503694938826,7, 9, 1, -6, -4, -2, -2, -4
1503694938848,-7, -10, -10, 1, 6, 1, 0, -4
1503694938871,5, -11, -5, -2, 6, -1, -4, -1
1503694938893,-8, -4, -28, -16, -17, -7, -7, -5
1503694938908,1, -28, -27, -1, 2, -4, 2, 5
1503694938931,-3, 8, 14, 1, -3, 2, 0, -1
1503694938953,5, 12, 18, 8, 3, 1, 0, 4
1503694938968,3, 8, 3, -2, 1, 1, 0, -1
1503694938991,7, 17, 26, 9, -1, 2, 3, 2
1503694939013,-12, -2, 1, -5, -8, -2, -5, -14
1503694939029,4, -2, 0, 4, 7, 1, 0, 5
1503694939051,1, 2, 4, -4, -9, 0, -2, -2
1503694939073,-12, -25, -28, -15, -12, -6, -6, -3
1503694939088,4, 3, 5, 2, -5, -1, 2, 1
1503694939111,-2, 7, 1, 4, 4, 0, 2, 1
1503694939133,-1, -1, 4, 4, 4, 2, 0, -3
1503694939148,-4, -5, 5, 3, -1, -1, -9, -5
1503694939171,-18, -10, -6, 0, 8, 0, -1, -16
1503694939193,2, 18, 18, 5, -5, -2, 1, 0
1503694939208,8, -6, -4, -2, 21, 2, -2, 4
1503694939233,-22, -10, -5, -8, -17, -7, -5, -14
1503694939253,13, -1, -5, -3, -2, 0, 6, 21
1503694939276,-4, -10, -12, -11, -11, -1, 3, -13
1503694939298,24, 10, 1, 1, -6, 5, 7, 22
1503694939313,5, -1, -6, 3, -3, -2, -3, 6
1503694939329,-4, -23, -23, -8, -8, -6, -6, -18
1503694939350,-8, 1, 6, 5, 19, 5, -2, 10
1503694939373,-1, 10, 4, 5, -4, -3, -1, -8
1503694939388,1, -16, 8, -4, -4, -3, 10, 9
1503694939411,16, 19, 19, 2, 2, -1, 3, 13
1503694939435,-4, -10, -19, -11, -20, -5, -8, -4
1503694939448,4, 16, 13, 7, -6, 1, -4, -10
1503694939471,-9, -19, -23, -6, 9, 9, 23, 17
1503694939493,-15, 12, 16, 3, 14, 4, -4, -10
1503694939509,9, 16, 11, 4, 0, 0, -5, -5
1503694939530,-14, -23, -26, -4, 4, -4, -4, -10
1503694939553,1, -9, -6, -8, 8, 1, -17, -20
1503694939569,-10, 1, 6, 13, 30, 5, -5, 4
1503694939590,-3, 18, 15, 0, -4, -5, -5, 1
1503694939613,-11, 14, 18, 5, -7, -1, -3, -7
1503694939629,4, -5, -8, -10, -27, -10, 2, 4
1503694939703,-12, -10, -4, 16, 35, 13, 16, 17
1503694939719,-1, 9, 7, 5, 6, 6, -2, -12
1503694939741,-17, -22, -26, -13, -12, -6, -19, -13
1503694939763,3, -5, -1, -7, -9, -4, -2, -12
1503694939786,10, 3, 2, 0, -5, 0, 5, 2
1503694939803,19, 14, 15, 1, -5, -4, 5, 29
1503694939823,-4, 39, 52, 13, -2, -3, -5, -15
1503694939846,-5, -9, -14, -2, -7, -4, -3, -13
1503694939861,11, 2, -1, 3, -14, -2, 1, 11
1503694939883,-5, 3, 1, 2, 9, 3, 4, -2
1503694939906,-27, -3, 4, -4, 0, 2, -2, -12
1503694939921,4, -2, -8, 2, 6, 1, -2, -15
1503694939943,-3, 2, -1, 2, 15, 0, 3, 5
1503694939966,-3, -24, -27, -12, -14, -4, -8, -2
1503694939981,8, -11, -9, -8, -6, -5, -4, 17
1503694940005,-30, 10, 16, 6, 5, 3, 14, 20
1503694940026,6, -13, -12, -7, -3, -3, -1, -7
1503694940041,7, 10, -3, -6, -10, -4, -5, 1
1503694940063,13, -5, -10, 0, -4, -1, -5, -8
1503694940086,22, 33, 13, -1, -5, -2, -5, 5
1503694940101,9, 14, 13, 5, 2, 2, -1, -3
1503694940123,-10, -3, -2, -1, -1, 3, 6, -5
1503694940146,-8, -16, -5, 10, 13, 4, 0, -1
1503694940161,-3, -18, -9, -12, -7, -4, -2, -3
1503694940183,-28, -22, -13, -6, -5, -2, -6, -15
1503694940207,-2, 1, 0, 4, 9, 4, 9, 20
1503694940221,-2, -5, -8, -7, -4, -3, -12, -22
1503694940244,0, -17, -19, -3, -12, -6, -3, 5
1503694940266,-2, 3, 12, 1, 6, 1, 3, 4
1503694940282,-19, -5, 4, -1, -4, -1, -4, -14
1503694940303,37, 11, 4, 4, -1, -2, 0, -3
1503694940326,-18, -31, -16, -22, -13, -8, -7, -16
1503694940342,1, 22, 19, 7, 2, 0, 3, 9
1503694940364,5, 7, 0, 0, -4, -2, -1, 3
1503694940386,25, 9, 16, 12, 5, 4, 1, -7
1503694940401,13, -9, -14, -12, -4, -1, 5, 13
1503694940423,-33, -11, -9, 4, 2, -2, 0, -7
1503694940446,9, 34, 42, 18, 4, 2, 2, -1
1503694940461,-19, -17, -22, -12, -2, -2, -3, 0
1503694940483,-14, -8, -10, -5, -2, -3, 0, 2
1503694940508,4, 1, -2, -5, -4, -1, -2, -7
1503694940521,19, 11, 2, 0, 2, -1, 0, 10
1503694940543,5, -2, 0, -1, 3, 1, 13, 6
1503694940566,-10, -3, 2, 20, 0, 3, 3, 6
1503694940581,-8, -13, -7, -9, -4, -1, -6, -11
1503694940603,-27, -5, -6, -3, -2, -3, -11, -24
1503694940626,-1, -8, -9, -8, 4, 1, 2, 1
1503694940643,-2, -1, 0, -1, 3, 1, 1, -2
1503694940663,24, 12, 1, 1, 1, -1, -6, -4
1503694940687,-5, 0, -1, 5, 7, -1, 0, -5
1503694940701,-1, 4, 5, 1, 1, 0, -1, 4
1503694940723,28, 20, 2, -4, -9, -4, 0, 7
1503694940746,16, -26, -13, 1, 3, -1, 1, 6
1503694940768,-3, 3, 8, -9, -8, -2, -2, 2
1503694940783,-4, -7, -3, -3, 4, -1, -4, -4
1503694940806,-11, 2, -1, 2, -1, 0, -2, -5
1503694940828,-1, 0, 7, 13, 8, 3, 3, 5
1503694940844,-30, -12, -8, -14, -19, -11, -10, -20
1503694940866,2, -4, -3, -8, -13, -4, -8, -3
1503694940888,5, -2, 1, 10, 3, 5, 3, -12
1503694940903,10, -4, -6, -5, -1, 0, -1, 2
1503694940926,-6, 9, 0, 3, 9, 2, -5, -2
1503694940949,-18, -8, 1, 2, 10, 3, 4, 12
1503694940963,15, -3, -5, 4, 21, 6, 0, 4
1503694940986,14, 8, 1, -8, -10, -5, -2, 4
1503694941008,-7, -2, -4, 1, -3, 0, 4, 3
1503694941023,-7, -6, -4, -5, -10, -3, -4, 2
1503694941046,8, 6, 5, -7, -10, -3, 1, 2
1503694941068,-5, 6, 5, 2, 1, -1, -7, -2
1503694941083,0, 21, 22, 5, 0, 1, 3, 1
1503694941106,-6, -10, -8, -1, 1, -1, 4, -1
1503694941128,26, 3, -2, 4, 5, 1, 4, 10
1503694941143,-38, -12, -10, -4, -7, -2, -3, -13
1503694941166,-4, 0, 3, -9, -15, -4, -3, -5
1503694941189,11, 0, -8, 0, 9, 1, 5, 8
1503694941203,-17, -8, -3, -2, 6, 0, -1, -10
1503694941226,-13, -10, -11, -2, -2, -5, -4, 3
1503694941249,1, 3, 3, 8, 4, 0, 0, -3
1503694941263,3, -12, -17, -4, -9, -3, -2, -1
1503694941286,-7, -2, 1, 6, 34, 5, -6, -21
1503694941309,2, 8, 6, -5, -12, -1, -5, 3
1503694941324,21, 10, 6, -1, -15, -1, -2, -6
1503694941348,-9, -2, 2, 6, -3, 4, 6, 8
1503694941368,2, 3, 5, -1, -8, -2, 1, 5
1503694941383,2, -5, -9, -11, -13, -5, -4, -1
1503694941406,-6, -5, -3, 1, 4, 0, 4, 6
1503694941428,-7, -1, 1, -7, -17, -3, -1, -4
1503694941443,19, 11, 9, 3, 6, -2, -1, 7
1503694941466,-18, -10, -11, -5, -6, -1, -1, -1
1503694941489,4, -1, -1, 0, 2, 0, 0, -2
1503694941503,4, 4, 2, 0, 5, 0, 1, 1
1503694941526,-1, -1, 4, 3, 0, 2, 0, 1
1503694941550,-1, 4, 1, -3, -10, -3, -2, -1
1503694941563,-2, -1, 1, 3, 0, -2, -3, -4
1503694941586,-9, -13, -9, -3, 2, -2, -3, -2
1503694941608,3, 14, 13, -1, 0, 0, 2, 2
1503694941624,2, -4, -5, -2, 2, -2, -3, -3
1503694941646,-2, -5, -3, -1, 5, -1, -1, 3
1503694941668,3, 2, -3, -3, 0, -3, -6, -10
1503694941691,-5, -1, 0, 2, 6, 1, 2, 4
1503694941706,2, 1, 1, 2, -2, -1, -1, -9
1503694941729,-7, -4, -3, -2, -7, 0, 4, 2
1503694941751,0, -4, -3, -2, -3, 0, -1, -5
1503694941766,-11, -3, -1, -2, -3, 0, 1, -2
1503694941789,-1, 10, 5, 5, 3, 1, -2, -9
1503694941811,19, -5, -7, -4, 3, -1, -2, -6
1503694941827,8, 1, 7, -1, -7, -2, -2, 1
1503694941851,-1, 0, -2, -3, -8, -4, -6, -5
1503694941858,1, 5, 5, -2, -8, -2, -2, 17
1503694941879,5, 7, 7, 0, 1, 1, 2, 3
1503694941901,2, 17, 17, 3, -4, -3, 3, -3
1503694941920,7, -9, -12, -4, 0, 1, 3, 14
1503694941939,-11, -7, 2, -1, -1, -3, -14, -19
1503694941961,1, 5, 1, -1, 0, 3, 10, 9
1503694941976,8, -2, -7, -1, -1, 1, 3, 1
1503694941991,2, 9, 8, 3, 3, 0, -1, -5
1503694942006,-1, 6, 6, 1, 0, -1, 2, -3
1503694942029,-8, -35, -27, -8, -3, -4, -8, -9
1503694942053,-7, -1, 2, -4, -2, 0, 0, 1
1503694942066,22, 22, 1, -5, -3, -6, 0, 11
1503694942089,-6, -7, 1, 4, -3, 2, 4, 10
1503694942111,4, 17, 17, 6, 2, 0, 2, 7
1503694942126,-2, 5, 0, -2, 1, 0, 7, 6
1503694942148,-14, -8, -7, -1, 0, -3, -7, -16
1503694942171,1, -8, -6, -2, -3, 0, 4, 2
1503694942187,2, 16, 25, 5, 3, -1, -3, -21
1503694942209,-14, -6, -1, 2, 2, -1, -6, -11
1503694942231,4, -5, -8, -2, -3, 1, -3, 4
1503694942246,-2, 0, 1, 1, 0, 0, 1, 1
1503694942268,1, 2, -5, -2, -4, -1, -2, 1
1503694942291,-6, -14, -10, -1, -3, 0, 1, 2
1503694942306,7, 3, -6, -4, -1, -2, -2, -3
1503694942329,6, -7, -23, -6, -4, -3, -1, -13
1503694942351,-6, -9, -6, -3, 0, -1, -5, -9
1503694942366,4, 4, 5, 0, -1, -1, -1, 11
1503694942390,-10, -2, 6, 3, 0, -1, 1, 1
1503694942411,9, 3, 0, 3, 2, 2, -6, 7
1503694942426,-4, -13, -3, -6, -2, -1, 0, 7
1503694942448,-14, -2, 2, -1, 0, 1, -2, -10
1503694942471,-6, 6, 3, -3, -1, -1, -1, -14
1503694942486,-3, -1, 2, 1, 1, 0, 0, 2
1503694942508,13, 42, 24, 6, 2, 1, -3, -4
1503694942531,3, -14, -12, -1, -1, -1, 3, 9
1503694942546,-2, -9, -4, 1, 1, 0, 0, 2
1503694942568,-8, 3, 5, 1, 2, 1, 2, 1
1503694942591,-1, -5, 1, -4, -1, -2, -1, -2
1503694942613,19, 10, 19, 7, 4, 0, 3, 13
1503694942629,-4, -11, -14, -2, 8, 1, -1, -3
1503694942651,-17, -19, -19, -8, -8, -2, -2, -7
1503694942673,-9, -5, -1, -1, -5, -1, -7, -18
1503694942690,-1, -8, -9, -7, -3, -2, 2, 0
1503694942711,10, 0, -4, -3, -3, -2, 2, 4
1503694942733,-1, 3, -6, -1, -3, 0, -3, -3
1503694942748,6, -4, -5, -2, 0, -2, -3, 10
1503694942771,2, 9, 5, 0, 0, 0, 0, 5
1503694942793,-5, 1, -2, 2, -2, 1, 0, -4
1503694942808,1, -5, 2, 1, 2, -2, -2, -4
1503694942831,0, -6, -5, -3, -4, -2, -4, -9
1503694942852,4, 9, 13, 3, 1, 0, 4, 4
1503694942868,-1, -4, -4, -2, -3, -1, 0, 2
1503694942892,-3, -1, 2, 0, -1, 0, -4, -5
1503694942912,7, 7, -10, -3, -7, 0, 3, 9
1503694942928,-4, 0, 3, -4, -2, -2, 0, 3
1503694942951,-3, 1, 2, -3, 0, 0, -2, -2
1503694942972,-4, 2, 8, 1, 0, 0, 2, 2
1503694942988,0, -2, 0, -1, -4, -2, -4, -5
1503694943011,-3, -3, 0, -1, -2, -1, 2, 3
1503694943032,-2, -1, -2, -1, -2, -2, -2, -6
1503694943041,3, 1, 2, -3, 0, -1, 1, -1
1503694943063,-3, 1, 10, 0, -9, -1, 1, -14
1503694943079,1, -1, 0, -4, -4, 1, -3, 1
1503694943101,0, -1, -5, 0, 1, -1, -1, 8
1503694943123,0, 0, -1, 1, 2, 0, -1, 2
1503694943138,-1, -11, -7, -1, 2, 0, -3, 0
1503694943152,-9, -1, -5, 0, 3, 1, -2, -5
1503694943169,9, -2, -1, -2, 1, -2, -1, 5
1503694943191,8, 26, 13, 5, 2, 1, 4, 8
1503694943212,-4, -17, -13, -5, -3, -3, -5, 0
1503694943228,-6, -5, 6, 0, -2, -1, -1, -3
1503694943251,7, 7, 11, 4, 2, 1, -2, -6
1503694943273,12, -4, -5, 0, 1, 1, 3, 11
1503694943288,-2, -3, -3, -2, -2, -1, -6, -11
1503694943311,-2, -3, -4, -2, -1, 0, -2, 0
1503694943333,1, -2, 0, -1, -4, -2, 2, 2
1503694943348,-3, -1, -7, -5, -1, -2, -1, -7
1503694943371,1, -12, -4, 1, 3, 1, -1, -3
1503694943396,1, 3, 0, -1, -2, -1, -1, 3
1503694943408,-4, 1, -6, -4, -1, -2, -1, -10
1503694943432,4, -1, -5, 0, 0, 0, 0, 0
1503694943453,-2, -1, -2, 2, 4, -1, -1, 2
1503694943469,2, 0, 4, 1, -2, -2, 0, 8
1503694943491,-4, 4, 0, -4, -2, -2, -3, -5
1503694943513,1, 6, 7, 1, -1, -1, -1, -1
1503694943535,-1, -7, -4, -1, 0, 0, 1, 0
1503694943551,-4, -10, -5, -5, -5, 1, 2, -1
1503694943573,-6, 1, 5, 2, -2, -2, -3, -1
1503694943597,-2, 3, 8, 1, 1, -1, -2, 0
1503694943611,0, 1, 3, -1, -6, -3, 1, 0
1503694943633,-1, -1, -1, -1, -5, -3, -6, -15
1503694943655,0, -1, -2, -1, 4, 2, 1, 2
1503694943671,-2, -5, -4, -1, -1, -1, 0, 2
1503694943693,1, -2, -3, 3, 4, -1, -2, 0
1503694943715,0, 9, 3, -3, 2, 0, 2, 2
1503694943737,-5, -10, -12, -3, -5, -3, -1, -1
1503694943753,3, 1, 4, 0, -6, -1, 1, 2
1503694943775,2, 14, 20, 6, 4, -2, -3, -2
1503694943792,-4, -1, 1, -1, -3, -1, 3, 4
1503694943807,1, -5, -4, -1, -2, -2, -3, 7
1503694943821,0, -4, -6, 0, 0, 1, 4, 1
1503694943843,1, 6, 2, -1, -1, 1, 2, 2
1503694943866,-3, 0, 6, 1, 3, -2, -1, -3
1503694943881,2, -2, -6, -2, -3, 0, -1, -1
1503694943903,-2, -6, -7, -3, -4, -3, -1, -3
1503694943926,-9, -1, -4, -3, -3, -1, 0, -10
1503694943942,-2, -1, 0, -1, 3, -1, -1, -7
1503694943966,4, 2, -3, 1, -1, -1, 0, 7
1503694943986,3, 2, 3, -2, 0, -1, 0, 4
1503694944001,5, 1, 1, -3, -3, -3, 1, 0
1503694944023,2, 0, -1, -1, -2, -2, -1, 1
1503694944046,2, -1, -4, 0, -1, 0, -6, -4
1503694944061,2, -5, -6, -8, -7, -3, -4, 0
1503694944083,-2, -14, -11, 3, 12, 3, 1, 9
1503694944106,-6, -4, -3, -3, -5, 0, 2, -1
1503694944121,-3, -2, -3, -1, 0, -2, 1, 7
1503694944143,0, 11, 15, 6, 2, 0, -2, -8
1503694944167,-3, 2, -3, -4, 2, 1, -3, -11
1503694944181,-7, 1, 2, 0, -8, -2, -4, -9
1503694944203,-5, -15, -18, -7, -1, -1, -6, -11
1503694944226,-1, 12, 11, 4, 0, 0, -1, 3
1503694944241,-8, -10, -9, -3, 1, -3, -2, -20
1503694944263,-8, 3, 6, 3, -1, -1, -8, -3
1503694944285,11, 30, 46, 12, 3, 2, 5, 7
1503694944302,12, 11, 8, 7, 0, 1, 4, 10
1503694944323,-1, -24, -18, -12, -1, -2, 0, 1
1503694944346,-5, -15, -14, -4, -1, -2, -1, -3
1503694944361,-5, -6, -14, -7, -5, -2, -1, 0
1503694944383,5, 11, 6, 1, -2, -3, 3, -1
1503694944406,3, 8, 13, 6, 2, 2, 0, 4
1503694944421,4, -9, -14, -5, 0, 1, -1, 0
1503694944444,-6, -6, -1, 2, 0, 0, -1, -1
1503694944465,4, 0, -5, -5, -2, -2, 0, 2
1503694944488,-4, 4, 1, -1, 5, 0, 1, 0
1503694944503,-6, -4, -7, -7, -9, -6, -4, -4
1503694944518,-6, -9, 2, 7, 20, 5, -3, -6
1503694944533,4, 7, -4, -2, -13, -1, 5, 6
1503694944555,0, 12, 12, 6, -2, -1, -3, -5
1503694944578,-9, -7, 0, 2, -3, -4, -3, -5
1503694944593,0, -2, -10, -8, -10, -5, 1, -1
1503694944615,-9, -14, -3, 0, 3, 0, -7, -9
1503694944638,-2, 3, -2, 0, -3, -1, 0, -3
1503694944653,1, -4, -9, -1, 1, 0, 0, 3
1503694944675,-5, -17, -9, -8, -11, 0, 0, 0
1503694944697,6, 4, 1, -1, 9, 0, 0, 4
1503694944713,-1, -6, -9, -4, -2, -2, 0, 1
1503694944735,5, 15, 20, 6, 0, 0, -1, -4
1503694944758,-2, 20, 34, 10, 4, 1, 2, 7
1503694944774,-1, -5, -11, -5, 0, -2, -1, 0
1503694944795,6, 5, 4, 0, 0, 1, 3, 3
1503694944817,-1, -9, -16, -8, -3, -1, -5, -2
1503694944834,2, -1, -1, 0, -2, -1, 1, 1
1503694944855,0, -4, -8, -7, -5, -1, 1, 1
1503694944877,-1, 0, 1, -1, 1, 2, 0, 2
1503694944893,0, 5, 16, 13, 3, 2, -2, -1
1503694944915,1, -4, -4, -1, -3, -3, -2, 0
1503694944939,-3, 0, 2, 0, 0, -3, -1, -3
1503694944946,1, -4, -11, 0, -2, 0, -1, -3
1503694944968,-12, -8, 0, -3, -2, -4, -2, 0
1503694944985,5, -1, 1, -1, -1, 0, 1, 1
1503694945006,1, -10, -17, -6, -6, -1, 0, 0
1503694945035,-3, -7, -7, 0, -2, -2, 0, 3
1503694945057,2, 3, -3, 1, -3, -1, 0, 1
1503694945074,-2, -7, -11, -6, 4, -2, -2, 0
1503694945095,-1, 4, 6, -1, -4, 1, 0, 1
1503694945117,0, 8, 0, 0, 0, 0, 0, -1
1503694945133,-6, -8, -5, 3, 3, -2, 0, -1
1503694945155,-8, -17, -18, -8, -6, 0, -3, -4
1503694945177,-10, -5, -12, -6, -1, 0, -2, 0
1503694945193,5, -11, -8, 0, -1, -2, -2, -1
1503694945216,6, 9, 8, 2, 0, 0, 2, 1
1503694945237,-1, -1, -7, -4, -3, -2, -2, -4
1503694945253,-3, 3, 6, -1, 0, 0, -5, -11
1503694945275,6, 31, 38, 8, 4, 0, 2, 3
1503694945297,1, -4, -4, 0, 1, 1, -2, 2
1503694945313,1, -4, 0, -4, -2, 0, 4, 8
1503694945335,-10, -7, -6, -1, -6, -2, -3, -11
1503694945357,10, 19, 26, 9, 3, 1, 2, 6
1503694945380,-9, -13, -19, -7, -5, -4, -7, -14
1503694945395,-5, -8, -7, -4, -1, -2, -3, -2
1503694945418,10, 2, -1, 0, 0, 2, 2, 11
1503694945442,-5, -2, -3, 1, 2, -2, -1, -7
1503694945464,1, 1, 0, -1, -6, -2, 3, -1
1503694945471,0, -2, -3, -1, 0, -3, -4, -13
1503694945486,1, 7, 7, 8, 6, 0, -4, -7
1503694945511,-7, -6, -6, -1, 5, 0, -3, -9
1503694945530,2, 2, -1, -6, -5, -4, -3, -3
1503694945546,1, 26, 31, 2, 0, -2, 0, -7
1503694945568,2, -14, -20, -4, -2, 1, 0, -5
1503694945590,-4, -10, -8, 0, 3, 0, -4, -11
1503694945606,2, -1, -2, -1, 2, -4, -3, -5
1503694945628,1, -1, 0, 2, 4, 2, -1, 14
1503694945651,4, -3, -7, 0, 2, 3, 0, 8
1503694945667,2, -7, -9, -7, -11, -3, 3, 14
1503694945688,0, -3, -3, 4, 7, -2, -3, -7
1503694945712,18, 21, 11, 1, -1, 1, 2, 11
1503694945725,-6, 3, 10, 3, -1, 0, 2, -12
1503694945748,-4, -7, -5, -2, -4, -3, -8, -14
1503694945771,-4, -4, 8, 0, 0, 1, 1, 8
1503694945786,-11, -7, -18, -4, -3, -1, 0, -37
1503694945808,-16, -7, -16, -6, 0, -2, -8, -24
1503694945830,4, -1, -5, -2, -3, -4, -4, 17
1503694945847,-4, -1, 0, 1, -1, 1, -1, 7
1503694945868,-3, 7, -3, -2, 2, 0, -1, -18
1503694945891,5, 5, 13, 6, 2, 0, 4, 11
1503694945906,8, 30, 29, 4, 3, 4, -4, -6
1503694945928,-3, -24, -15, -4, 3, 1, 5, 10
1503694945952,-3, -2, 0, -5, -4, -2, -8, 7
1503694945966,6, -3, 2, -2, -3, -1, 2, 8
1503694945988,-14, -12, -8, -1, -5, -2, 6, -31
1503694946011,1, -1, -7, -3, -2, -1, -3, 2
1503694946026,9, -3, -7, -2, -2, 1, 1, 18
1503694946048,0, 3, 7, -2, -3, -1, 4, 18
1503694946070,12, -4, -10, -5, -1, -1, -5, -17
1503694946085,-3, 3, 1, 3, 5, -5, -7, 2
1503694946108,-17, -3, 2, 0, -1, 1, -1, -15
1503694946131,-10, -12, -11, -3, -7, 1, 4, -19
1503694946148,9, -1, -3, 3, 1, -2, -2, 19
1503694946168,6, 24, 6, 1, 0, 0, 4, 21
1503694946192,-2, -3, 2, -4, -5, -2, -5, -41
1503694946206,1, -10, -5, -4, -4, 1, 9, 12
1503694946228,-13, -3, 1, 2, -1, -7, -17, -24
1503694946251,7, 6, 4, 2, 3, 1, -7, 12
1503694946265,1, 9, 12, 1, 2, -2, -4, -9
1503694946288,5, -16, -5, 0, -1, 1, -2, 6
1503694946311,-2, -10, -7, -1, 0, 3, 8, 10
1503694946333,5, 3, -2, -1, 0, 1, 8, 7
1503694946349,15, 28, 22, 7, 3, 0, 5, 15
1503694946370,-9, -16, -13, -2, -3, -1, 8, -10
1503694946393,-6, 0, 2, -4, -5, -1, -10, 4
1503694946408,1, 2, -1, -3, -3, -4, -5, 7
1503694946431,-7, -3, 4, 1, 1, -2, -2, 4
1503694946454,-7, -10, -14, -5, -4, -1, 2, -3
1503694946468,0, -1, 2, 0, 3, 0, 2, 3
1503694946491,-5, -10, -13, -4, -3, -1, 0, 0
1503694946499,-4, -13, -8, -2, 3, 1, -5, -24
1503694946521,4, -6, -9, -1, -4, 1, 8, 26
1503694946543,-5, -4, -4, -1, 1, -1, -7, -11
1503694946559,18, 4, -4, 1, 2, 0, -2, 7
1503694946581,-2, -8, -7, -3, -2, 2, 7, 5
1503694946603,-15, 1, 6, -2, -3, -5, -3, 4
1503694946619,3, 15, 17, 5, -1, -3, -10, -28
1503694946641,-22, -17, -7, -1, 0, -2, -2, -18
1503694946663,-5, -10, -7, 1, 3, -2, -7, -12
1503694946679,-20, -5, 1, 6, 5, -3, -8, -39
1503694946693,-3, -9, -4, -2, 1, 2, 0, -5
1503694946707,-17, -8, -3, -2, 6, 2, -1, -10
1503694946709,24, 22, 9, 5, 1, 3, 15, 48
1503694946731,-5, -15, -16, 1, -1, -1, -6, -25
1503694946753,-24, 5, 9, 1, 2, 0, 0, 18
1503694946768,1, 11, 14, 3, 0, -2, -1, -9
1503694946791,0, -20, -20, -11, -2, -3, -2, 11
1503694946813,-12, -2, -4, 4, 0, -2, -5, -16
1503694946829,-1, 5, 8, 2, 1, 3, 9, 5
1503694946854,5, 6, 2, 1, 2, 4, 5, 9
1503694946873,10, -7, -7, -2, 1, -2, 0, 3
1503694946888,-1, -2, -3, -2, 0, -1, -3, -33
1503694946910,-7, 1, 6, 0, 0, -1, -1, -8
1503694946933,7, -7, -9, 1, 1, -1, -3, 14
1503694946949,-8, -10, -11, -4, -3, -1, 1, 11
1503694946971,1, 15, 6, -1, -2, -3, 2, 13
1503694946994,-17, 0, 8, 5, -1, -1, -2, -9
1503694947001,-13, -1, 0, -2, 0, 0, 6, 20
1503694947024,7, 22, 10, -1, -1, -2, -1, -2
1503694947039,-14, -12, -10, -5, -5, -3, -9, -9
1503694947062,-1, -2, 0, 0, 3, 0, 0, 1
1503694947084,-14, 2, 9, 6, 2, 2, 6, 5
1503694947099,4, -6, -4, 1, 3, 2, -3, -6
1503694947122,-10, -11, -7, -4, -2, -3, 0, -5
1503694947144,8, -4, -7, -3, -4, -3, 4, 27
1503694947159,0, 0, 0, 0, 1, 0, -3, -16
1503694947181,8, 7, 4, 3, 2, 0, 1, 5
1503694947189,7, 5, -1, 1, 2, 2, -3, -4
1503694947211,-7, -6, 0, 3, -5, -1, -3, -5
1503694947233,-8, 2, 4, -1, -2, 0, -2, -5
1503694947255,2, -10, -6, 2, 3, -1, 1, -2
1503694947270,-4, -8, -10, -4, -3, -4, -2, -2
1503694947293,-6, 8, 5, 2, 4, 0, -1, -2
1503694947315,0, -21, -7, 8, 7, 2, 2, 5
1503694947331,9, 8, 9, -3, -3, -2, 2, 6
1503694947353,-1, 7, 10, -2, -1, -2, -5, -4
1503694947375,-9, -2, 10, 6, 4, 2, -1, -2
1503694947383,-3, -12, -12, -6, -2, -1, 1, 4
1503694947405,8, -6, -8, -4, -2, -1, -1, -2
1503694947423,3, 16, 16, 23, 20, 0, 3, -1
1503694947443,3, -12, -10, -5, -8, -1, -1, 4
1503694947450,10, -3, -4, -1, 0, -2, -1, -1
1503694947473,-4, -19, -14, -10, -8, -4, -1, 4
1503694947496,-1, -2, -10, 0, 4, 0, 0, 1
1503694947510,-1, 6, 7, 16, 27, 6, 2, -1
1503694947534,-1, -6, -3, -7, -9, -5, -2, -4
1503694947559,3, 9, 9, 2, 1, 0, 0, 0
1503694947571,-2, 1, 2, 0, 4, 2, -2, -6
1503694947594,6, 3, 3, -5, -8, -2, 1, 3
1503694947616,-14, 2, 3, -5, -9, -4, 0, -3
1503694947631,5, 10, 3, -2, -2, -2, -1, 1
1503694947653,3, -1, -2, 1, 5, 1, 0, -4
1503694947675,-4, 2, 0, 0, 2, 0, -2, 0
1503694947684,2, 6, 5, -1, -13, -4, -1, 0
1503694947705,4, -1, 1, 0, -1, -1, 0, 1
1503694947713,-3, -3, 4, -3, -12, -2, -2, -3
1503694947735,0, -1, 3, 6, 0, 2, 0, 0
1503694947743,0, -5, -1, -2, -3, -1, 0, -2
1503694947766,2, 0, 0, 2, 6, 0, -2, 1
1503694947781,-3, -5, -6, -5, 0, -2, -3, -4
1503694947810,-3, -12, -6, 0, 2, 0, -1, -1
1503694947826,0, -7, -3, 13, 17, 2, 2, 3
1503694947834,-1, 2, -1, 0, -1, 0, 1, 1
1503694947855,-2, -1, -1, 2, 5, 0, 0, 1
1503694947870,0, 7, 2, -1, 0, 1, 0, -1
1503694947893,1, -1, -3, 3, 17, 3, -1, 1
1503694947916,1, -4, -5, -4, -7, -2, -2, -1
1503694947930,-2, -5, -9, -3, -1, -2, 0, -1
1503694947953,2, 2, -1, -2, -3, -1, -1, 3
1503694947975,-1, 3, -1, -2, -1, 0, 1, 1
1503694947983,-1, -21, -7, -2, 1, -1, -1, -1
1503694948007,0, 0, 0, -1, -2, -2, 0, 1
1503694948021,-2, 6, 1, 1, 4, 1, -2, -3
1503694948043,1, 7, 7, 1, -4, -1, 2, 0
1503694948066,2, 18, 9, -1, -1, 1, -1, -3
1503694948081,-1, -13, -10, -4, -2, -2, -1, 1
1503694948096,-5, -14, -3, 0, -6, 1, 0, 0
1503694948104,2, 6, 8, 3, 4, 2, 1, 0
1503694948128,-1, 2, 2, 0, -4, -2, -3, -1
1503694948141,1, 0, -15, -6, -6, -2, -1, 1
1503694948163,-2, -8, -3, -2, -10, -3, -3, -1
1503694948185,2, 2, -9, 0, 1, -1, 0, 1
1503694948208,-4, -18, -11, -3, 0, -1, 0, -3
1503694948224,-13, -4, 1, -4, 0, -3, -2, -8
1503694948245,3, 1, -3, 1, 1, -1, 0, 1
1503694948268,-6, -2, -3, -7, -3, -1, -4, -1
1503694948283,-4, 7, 15, 2, 0, 1, 0, -5
1503694948306,3, -1, 1, 0, 3, -1, 0, 4
1503694948329,-3, -4, 1, 0, 1, -2, -2, -8
1503694948343,3, 11, 6, -1, 1, -1, -1, 6
1503694948366,9, 2, 8, 5, 1, 1, 0, 7
1503694948388,-4, -16, -6, 4, -3, -2, 0, -3
1503694948403,3, 8, -3, -2, 0, -1, 0, 1
1503694948425,7, -9, -14, -3, 0, 0, 0, 1
1503694948448,-5, 1, -3, -3, -2, -1, -2, -3
1503694948465,-1, -8, -11, -5, -3, -1, -1, 1
1503694948485,5, 24, 7, 0, 1, 0, -3, -1
1503694948508,-11, -16, -14, -3, -2, -3, -2, -3
1503694948523,5, 10, 28, 11, 2, 2, 1, 5
1503694948545,-8, -20, -7, -1, -3, -2, -2, -2
1503694948568,-4, -3, -2, -3, 1, -1, -2, -4
1503694948584,2, 9, -3, -1, -1, -1, 0, 0
1503694948606,2, -1, -1, -2, -2, 0, -1, 1
1503694948629,6, 16, 10, 1, -2, -3, -2, -1
1503694948645,14, 7, -9, -4, 0, -2, 1, 1
1503694948666,-7, -12, -7, 0, 1, 0, 0, -6
1503694948688,-2, -1, 2, -2, 0, -1, 0, 6
1503694948696,5, 37, 41, 19, 2, 2, 2, 4
1503694948718,3, -11, -18, -12, -2, -1, -6, -2
1503694948734,-1, -16, -22, -7, -3, 0, -2, -9
1503694948756,-2, -14, -10, -3, -2, -1, -1, 2
1503694948777,-3, -13, -9, -1, -1, -3, -1, -2
1503694948793,5, 4, -2, 2, 1, 2, 2, 3
1503694948815,-4, -1, 2, -4, 0, 0, 3, -1
1503694948837,-6, -1, 0, 2, 0, -2, -3, -6
1503694948853,5, 10, -7, -5, -2, -1, 0, 3
1503694948876,1, 4, 12, 3, 2, 0, -3, -6
1503694948897,-7, 2, -8, -3, -4, -1, 0, -8
1503694948913,10, -3, -1, -1, -1, 0, 3, 5
1503694948936,0, -4, 1, 4, 0, -2, -2, 5
1503694948957,-4, 6, 8, -3, -2, 0, -3, -5
1503694948973,-6, -11, -14, -6, 0, -1, -1, 2
1503694948995,-4, -5, -1, 2, 0, -2, -2, 0
1503694949017,0, -5, -1, 0, -3, -1, 4, 4
1503694949034,4, -6, -6, -2, -1, -1, -1, 4
1503694949055,-9, -5, -4, 1, 0, -1, -1, -1
1503694949064,-5, -2, -1, -2, -1, -3, 1, -1
1503694949085,0, -10, -5, 1, -2, -1, -2, -3
1503694949108,4, 2, -4, -2, 0, 0, -1, 3
1503694949130,6, 4, 0, 0, 1, -2, 0, 0
1503694949145,-7, -6, 2, 4, -2, -4, -6, -3
1503694949160,1, -8, 0, -1, 1, -1, 0, 4
1503694949176,2, 10, 13, 2, -1, -1, 2, 10
1503694949197,1, 9, 11, 6, 2, 1, -3, -6
1503694949220,-1, -1, 0, 0, -2, -1, 0, 4
1503694949237,0, 3, -1, 1, 2, 1, 1, -1
1503694949257,-2, 2, -3, -3, -2, -2, -3, -3
1503694949266,3, -3, -14, -5, -6, -2, -1, -1
1503694949288,-9, 1, 10, 2, 2, -2, -1, -4
1503694949313,14, 9, 11, 8, 3, 1, 4, 15
1503694949326,-2, -6, -7, -3, -1, -3, -3, -5
1503694949348,0, 0, -1, -6, -1, 1, -3, -8
1503694949371,-1, 5, 9, 2, 1, 0, -3, 1
1503694949385,-4, -6, -8, 0, -2, -3, 0, -2
1503694949409,-1, 0, 3, 1, -1, 0, -2, 2
1503694949430,-1, -7, -4, -2, 0, -2, 2, 2
1503694949446,-4, 2, 16, 8, 3, 0, 1, 7
1503694949471,1, -4, -18, -4, -5, 0, 1, 6
1503694949497,2, -1, -7, -6, -1, -1, -4, -3
1503694949513,-4, 0, 4, -3, 1, -1, -3, 4
1503694949529,-1, 4, -9, -6, -2, -3, -3, -11
1503694949550,6, 23, 12, -1, -2, 0, 1, 3
1503694949565,-1, -1, 0, 2, -2, 0, 0, -3
1503694949588,-8, -7, -11, -3, -2, -2, -2, -6
1503694949611,10, 9, 0, -1, 2, -5, -1, 2
1503694949633,-1, -8, -4, 0, -1, -1, -2, -5
1503694949648,-9, -11, -5, -2, -2, 0, 0, -2
1503694949656,0, 1, 0, -3, -12, -1, 0, 1
1503694949677,-3, 3, 3, -2, 0, 0, 0, -2
1503694949700,2, -11, -14, -3, -2, -2, -1, -2
1503694949716,-1, 3, 1, 2, 5, 1, -3, 2
1503694949742,1, -5, -6, -1, 1, -2, -1, -2
1503694949760,2, 5, 1, -2, -1, 0, 1, 0
1503694949782,-4, 12, 13, 4, 5, 0, 0, -2
1503694949798,5, -1, -6, -2, -1, -1, 1, 2
1503694949820,1, 2, 2, 0, 0, -1, -2, -2
1503694949830,0, -6, -5, -4, -2, 0, -1, 3
1503694949851,-2, 5, 7, 2, 1, 0, 1, 4
1503694949866,-4, 9, 20, 4, -1, 0, 0, 0
1503694949888,-1, -4, -9, -5, -6, -1, 0, 3
1503694949913,-3, 0, 5, 3, 2, 1, 0, -2
1503694949917,-2, -5, -7, -2, 0, -1, -3, -2
1503694949944,-1, -1, 1, -2, 0, -1, -2, -5
1503694949955,2, 3, 6, 3, -3, 1, 2, 4
1503694949980,-7, 14, 29, 10, 2, -1, -1, 1
1503694950000,-5, -5, -7, -2, -2, -1, -4, -8
1503694950016,-1, -8, -9, -3, -3, 0, 1, -1
1503694950037,6, -2, -15, -7, -1, 0, 2, 4
1503694950060,-2, -13, -13, -3, -1, -1, 0, 0
1503694950083,-1, 8, 15, 1, -1, -1, 0, -3
1503694950097,-3, -8, -4, -1, 0, -3, -4, -4
1503694950120,-11, -7, -7, 0, 2, 0, -3, -2
1503694950143,-7, -11, -12, -4, -4, 0, 2, -5
1503694950158,4, 0, -8, -4, -1, -1, -1, 0
1503694950180,3, -3, -10, -4, -2, 0, 1, 1
1503694950202,-3, 7, 20, 4, -1, 0, -1, 0
1503694950218,0, -10, -10, -5, -1, -1, -2, -2
1503694950240,-3, -9, -15, -5, -1, 0, -4, -2
1503694950262,-3, -6, -2, -2, -1, -1, 2, 7
1503694950278,3, 4, 6, 4, 0, 0, 0, 0
1503694950300,1, 11, 7, 0, 1, 1, 1, 7
1503694950322,1, 3, 2, -1, -2, -1, 0, -4
1503694950337,-1, 15, 18, 6, 1, 0, 4, 22
1503694950359,0, -6, -8, -6, -1, -4, -4, -11
1503694950384,3, 2, 2, 2, 0, 1, -1, -4
1503694950406,2, 3, 3, 3, -2, -1, 1, 0
1503694950421,-2, -11, -3, -2, 1, -1, 0, -7
1503694950444,-3, -2, -5, -6, -4, -2, -3, -5
1503694950474,-6, -10, -11, -5, -4, -2, -3, -8
1503694950488,-1, -7, -5, -5, -1, -2, -4, -2
1503694950511,2, 1, 0, 0, 0, 0, 2, 4
1503694950533,11, 8, 4, 4, 1, 0, 0, 11
1503694950548,-4, -2, -6, -2, -2, 0, 0, -7
1503694950570,5, 2, -7, -2, -1, -1, 1, 0
1503694950593,-1, -6, 1, -1, -3, -1, 0, 3
1503694950608,-4, -6, 0, -2, -1, -1, -3, -5
1503694950630,-7, -10, -3, -4, -2, -2, 0, 0
1503694950653,3, 4, 7, 3, 3, 0, -1, 3
1503694950668,-1, 6, 2, 2, -1, 1, -3, -5
1503694950690,-4, -2, -1, 1, -1, 0, 1, 1
1503694950713,-2, 0, -6, -2, -2, -2, -2, -1
1503694950728,-3, -15, -9, -3, -2, -1, -1, -1
1503694950750,5, 1, 0, -2, 1, 0, -1, 2
1503694950787,-6, 0, 2, -1, -3, -1, -1, 0
1503694950790,-4, 2, -3, -4, -1, -2, -1, -4
1503694950810,-2, -5, -5, -3, -1, 1, 0, 0
1503694950833,6, 9, 8, 3, 1, 1, 1, 1
1503694950848,-9, -4, 2, 2, 0, -1, -3, -2
1503694950870,-6, -2, -4, 1, 0, -2, -3, -15
1503694950893,0, -1, -4, -5, -3, 0, -2, -2
1503694950908,-8, -9, -9, -5, -1, -3, -3, 2
1503694950930,4, 7, 7, 2, -2, 1, 2, 3
1503694950953,3, 6, 9, 4, 0, 0, -2, 2
1503694950975,3, 1, 5, 2, 1, -2, -1, -2
1503694950990,-2, -8, -10, -3, -1, 1, 0, 0
1503694951016,3, -10, -4, -3, -2, -1, -2, 1
1503694951035,4, -1, -6, -2, -1, 0, 2, 2
1503694951050,-14, -6, 3, 1, 0, -2, -2, 5
1503694951073,-3, -4, -9, -2, 0, 1, -1, -2
1503694951095,2, -5, -9, -1, 0, -2, 1, 0
1503694951110,3, 10, 8, 1, -2, 0, 3, 2
1503694951133,3, -4, 6, 3, -2, 0, -3, -7
1503694951155,1, 0, -6, -5, -1, -2, -1, -6
1503694951170,1, 3, 5, 1, -2, -2, -2, 9
1503694951193,-5, 0, -2, -1, 1, -1, -3, -4
1503694951217,-3, 0, -4, -5, 0, 0, 0, 0
1503694951230,0, -6, -6, -1, -2, 1, -3, -4
1503694951253,1, 4, 1, 2, -1, 0, 1, -1
1503694951275,-9, -6, 2, 0, 0, 1, -4, -12
1503694951290,2, 0, 6, 3, -4, -3, 0, 3
1503694951313,-5, 3, 0, -4, 1, 0, 1, -6
1503694951335,2, -2, -4, -2, -3, 0, 0, 0
1503694951350,3, 2, 5, 1, 1, -2, 2, 19
1503694951373,4, 10, 4, -1, 1, -1, -1, 0
1503694951395,4, 12, 1, 1, 2, 0, 1, 2
1503694951410,1, 1, -2, -2, -4, -1, -4, 1
1503694951433,3, 9, 6, 5, 1, -1, -3, -10
1503694951457,2, -3, -1, -2, 0, -2, 1, 0
1503694951470,-3, -5, -9, -4, -2, -1, -4, -12
1503694951494,-6, -13, -10, -1, 0, -2, -1, 0
1503694951515,-3, 2, 7, -1, 0, -1, 2, 1
1503694951530,-2, -6, -8, -3, -2, -1, -1, -1
1503694951553,-3, -4, 1, 3, 0, 1, -1, -6
1503694951575,0, 2, -4, 1, 2, -1, 0, -2
1503694951590,-2, -1, 5, 0, -1, -2, -4, -2
1503694951606,6, -4, -4, -3, -3, -1, 0, 11
1503694951621,-7, -20, -20, -8, -3, 0, -1, -6
1503694951643,-3, -8, -6, -1, 0, 0, -3, -2
1503694951666,-9, -3, 5, -1, -2, -2, 0, 1
1503694951681,6, 10, 5, 2, -2, -2, 1, 2
1503694951703,1, 3, 4, 3, -1, -1, 1, 2
1503694951727,4, 3, -1, 1, 0, 0, 2, 6
1503694951741,-2, -2, -4, -2, -1, 0, -2, -2
1503694951763,-2, 10, 14, 2, 2, 2, 0, -4
1503694951787,0, 7, 3, 0, 0, -1, 1, 0
1503694951801,3, -8, -5, -2, -1, 0, -2, 6
1503694951830,-1, -1, -6, 1, -1, -4, -2, -7
1503694951846,-2, -4, -1, 0, 1, -2, -1, -1
1503694951861,7, 10, 1, -1, -1, -1, 0, 6
1503694951883,-1, 4, -4, 0, 0, -1, -2, -2
1503694951906,-7, -9, 1, 2, -2, -3, -2, -9
1503694951935,-4, 3, 13, -1, -1, 0, -1, -5
1503694951943,1, 4, -6, -3, -1, -1, 1, 5
1503694951966,-10, -9, -5, -3, -1, 0, -3, -10
1503694951988,-1, -10, -6, -5, -3, -2, 0, 0
1503694952003,3, -2, -7, -1, 0, 0, -1, -1
1503694952026,0, 0, 4, 2, -1, -2, 1, 8
1503694952048,-3, -4, -2, -1, -3, -1, -1, -3
1503694952064,-1, -2, -1, -1, -2, 0, -2, 0
1503694952086,-2, -2, -2, 0, -1, 0, 2, 0
1503694952108,-2, -1, -1, 0, 0, -1, 0, 1
1503694952123,0, 0, -4, 1, 2, -1, -2, -5
1503694952146,-1, 13, 20, 3, 1, 0, 0, 4
1503694952168,-2, -5, -16, -3, -2, -1, 1, 4
1503694952183,0, 2, 1, 0, 0, -2, -3, -9
1503694952206,-2, -5, -1, -2, 0, -1, -3, -11
1503694952228,-3, -18, -10, -6, -3, -3, -5, -3
1503694952243,-1, 0, 0, -1, -1, 1, 0, 5
1503694952267,3, 1, -1, 1, 0, 0, 1, -7
1503694952288,0, 7, 8, 0, -2, -1, 2, 2
1503694952303,-1, -4, 14, 8, 1, 0, -2, 4
1503694952326,-1, -5, -9, -4, -1, 0, -4, -3
1503694952348,-3, 3, -2, 3, 0, -1, -2, -2
1503694952363,1, 6, 6, 0, 0, -1, -1, 0
1503694952379,-2, -2, 6, 4, -1, -1, -1, -3
1503694952393,-4, -1, -4, -4, -2, -2, 2, 1
1503694952415,2, -4, -1, -1, 0, 0, -1, 3
1503694952438,-4, 6, 22, 5, 0, -1, -1, -8
1503694952453,0, -3, -6, -6, -2, -2, -2, -2
1503694952475,1, -6, -6, -2, 0, -2, 0, 6
1503694952498,0, 1, 1, 0, 0, -1, 0, 1
1503694952513,0, -3, -5, 0, -1, 0, -1, -1
1503694952535,2, 10, 8, 6, 2, 2, 1, -5
1503694952559,-8, -10, -3, -3, -1, 1, -1, 1
1503694952573,2, -6, -2, -2, -2, 0, 0, 0
1503694952596,-1, 1, -5, -1, -1, -2, -1, 0
1503694952618,-3, 3, -2, -1, 1, -1, -1, -4
1503694952633,2, -1, 0, -2, -3, -1, -1, 2
1503694952659,1, 2, 5, 2, 0, 0, 1, 5
1503694952678,4, 11, 8, 0, 0, -1, -1, -4
1503694952693,-6, 1, -3, -4, 0, -3, 0, 2
1503694952708,4, 2, 0, 1, -2, -1, -2, 3
1503694952723,-13, -8, -2, 2, 0, -1, -1, -10
1503694952746,5, 8, 1, -2, -1, -1, -3, -2
1503694952768,9, 18, 13, 6, 1, 1, 3, 10
1503694952783,-6, -9, -8, -6, -3, -1, -3, -7
1503694952806,4, -2, -1, -4, -4, -1, 0, -7
1503694952828,3, 4, 0, -1, 1, 0, 1, 5
1503694952850,-7, 9, 16, 5, 1, 0, 0, -3
1503694952866,-2, -2, 0, 1, -1, 0, -1, 1
1503694952888,-3, 0, -2, -2, 1, -3, -2, 2
1503694952910,-2, 1, 6, -1, -1, -1, -1, -6
1503694952927,-1, -1, -3, 2, -1, -2, -3, -11
1503694952948,-10, -13, -12, -5, -2, -3, 0, -2
1503694952970,3, 1, -1, 2, 2, -1, 1, 2
1503694952986,4, 4, 4, -1, 0, 1, 0, 12
1503694953008,13, 2, 3, 2, -2, -2, 4, 14
1503694953031,4, -1, 1, 0, -1, 1, -4, 4
1503694953046,-3, -1, -4, 0, -1, 0, -1, -5
1503694953068,-5, 0, 3, -1, 2, -1, -2, -6
1503694953090,-6, -12, -10, -2, -3, -1, 1, 0
1503694953106,-3, -2, -4, -3, -3, 0, 0, -5
1503694953130,-1, -3, 2, -2, 0, -1, -1, 0
1503694953150,3, 2, -2, 0, 1, 0, 0, 11
1503694953166,-1, 3, 2, 0, 2, 0, -2, -10
1503694953188,-5, -2, 6, 2, -2, -1, -1, -6
1503694953210,-2, 7, 14, 4, -2, -1, 1, 2
1503694953226,1, -5, -7, -5, -3, -1, -2, 1
1503694953248,2, 1, 1, -1, -1, -1, -3, -3
1503694953270,2, -5, -6, 1, -1, 0, 0, 3
1503694953293,-1, 10, 8, -1, -2, 0, -3, -6
1503694953308,-18, 3, -1, 2, 3, -2, -3, -18
1503694953337,-2, -13, -9, -4, -2, 0, 0, -15
1503694953346,18, -2, -9, -1, -1, -1, 2, 4
1503694953368,-16, 4, -2, -4, -2, -3, -7, -49
1503694953391,-1, 3, 1, 4, 2, 0, 1, 4
1503694953407,11, 14, 8, -3, -3, -1, 3, 22
1503694953428,6, 1, 0, 3, -1, -1, -1, 11
1503694953450,-1, -5, 3, 4, 3, 4, 3, 12
1503694953472,9, 0, 0, -3, 0, 0, 2, 22
1503694953488,-8, -5, 3, -4, -3, -2, -2, -1
1503694953510,3, 1, -4, 2, 0, -1, 1, 3
1503694953526,-4, -1, -6, 0, -2, -3, 1, -7
1503694953548,-7, -10, -2, -5, 2, -2, -2, -5
1503694953570,3, -7, -3, -1, -1, 2, 1, 2
1503694953586,5, 3, -5, 1, -2, -1, 2, 2
1503694953608,-7, -15, -10, -3, -2, 1, 0, 2
1503694953615,1, 2, -3, 0, 0, 0, 0, -11
1503694953638,7, 8, -1, -1, -1, -2, -3, -4
1503694953660,-3, -4, -1, -3, -3, -1, 0, 0
1503694953676,-4, 11, 16, 3, 1, -1, -2, -7
1503694953700,-4, -12, -9, -5, -2, -1, -1, 0
1503694953720,4, 10, 9, 0, 0, -1, 0, 3
1503694953735,2, 2, 0, -1, 0, 1, 2, 14
1503694953758,-4, -2, 0, -2, -3, -3, -2, -12
1503694953779,10, -2, -7, -1, 1, 0, 4, 10
1503694953802,-20, -3, 1, 8, 0, 0, -3, -27
1503694953818,8, 2, -5, -4, -1, -1, -2, 11
1503694953840,-7, -7, -8, -5, -6, -2, -2, -2
1503694953862,4, 2, 3, -1, -2, -1, -1, 12
1503694953878,1, 1, -4, -2, -1, 0, 0, -3
1503694953903,-2, -12, -9, -7, -4, -2, 0, 0
1503694953922,2, -1, 3, 7, 11, 3, 3, 3
1503694953938,0, 2, 1, -2, -8, -4, -2, -2
1503694953959,-4, -4, -3, 3, 13, 0, -2, -5
1503694953982,0, -3, 1, 0, -1, -2, -1, -9
1503694953998,-9, -9, -5, -3, -7, -1, -2, -3
1503694954019,6, 5, 2, -1, -2, -1, 1, 1
1503694954042,-16, -2, -4, -7, -4, -2, -6, -6
1503694954058,4, -2, 1, 1, 1, 2, 1, 6
1503694954080,4, -1, -2, 1, -2, -1, -2, 3
1503694954104,2, 1, 4, -2, -12, -4, -1, 7
1503694954118,-3, 4, 0, -2, -5, 2, 0, -5
1503694954140,9, 2, 3, 2, -2, 0, 1, 0
1503694954162,14, 6, -4, -1, 4, 0, -1, 9
1503694954178,-9, -2, 5, -1, 0, 0, -1, -2
1503694954199,-13, -5, -4, -1, 1, -3, -1, -6
1503694954222,-8, -2, -6, -2, 2, 0, 3, 5
1503694954238,7, -2, -3, 2, 0, 2, -1, 0
1503694954259,-1, -4, -2, -2, 2, 0, -1, -1
1503694954282,10, -1, -2, -2, -3, -3, 1, 6
1503694954298,-11, -3, 1, 2, -2, -4, -4, -7
1503694954319,3, -10, -8, -2, 2, 0, 0, -7
1503694954342,-17, 1, 4, 0, -5, -2, -3, -28
1503694954357,1, 5, -3, -2, 0, 1, 2, 4
1503694954380,-6, -2, 6, 1, 1, -1, -2, -10
1503694954402,2, -10, -14, -5, 0, 0, -1, 1
1503694954418,1, -5, -5, -3, -3, -1, 2, 2
1503694954441,-16, -4, 7, 2, -1, -2, -8, -17
1503694954462,20, 9, -5, -3, 0, -1, 3, 12
1503694954481,-2, 15, 12, 1, -1, -2, 1, -9
1503694954500,6, -8, -9, -3, -1, -1, -5, 16
1503694954522,12, 10, 9, 4, 8, 2, 2, 14
1503694954539,-22, -4, -2, 0, -3, -3, -5, -30
1503694954560,-2, 3, 2, 0, 0, 2, -3, 9
1503694954582,-3, 0, -2, -3, -1, -1, -3, 3
1503694954598,-2, -2, -2, 0, -1, -2, -1, -1
1503694954620,0, 5, 9, 3, -2, 0, 0, 7
1503694954642,-1, -8, -7, -2, -1, 1, 3, 4
1503694954657,1, -8, -11, -7, -8, 0, 3, -1
1503694954680,6, 3, 0, 1, 3, 1, 1, -1
1503694954702,2, 0, 3, 0, -2, 0, 0, 12
1503694954724,8, 15, 5, 0, 1, 0, 1, -3
1503694954742,-1, 1, 2, 6, 4, -1, -7, -1
1503694954762,3, -5, -6, -7, -17, -4, 0, -1
1503694954784,3, 10, 17, 6, -1, -1, -2, 3
1503694954799,-4, -16, -17, -7, 1, -2, -6, -3
1503694954822,-7, -5, -7, -1, 4, -2, 0, -26
1503694954844,-13, -18, -2, 0, 2, 1, 0, -13
1503694954860,1, -1, -15, -4, 0, -3, -1, 8
1503694954882,4, -12, -11, -7, -5, -2, 0, 7
1503694954904,8, 19, 21, 9, 3, 0, 1, 10
1503694954920,-3, -15, -17, -6, -5, -3, -1, 6
1503694954945,17, 8, 5, -4, -13, -2, 2, 17
1503694954964,-8, 1, 7, 0, 1, -2, -3, -1
1503694954973,10, -1, -1, 1, 2, 2, 0, 18
1503694954995,9, 4, -5, -9, -15, -6, -4, 0
1503694955012,-15, 5, 6, -1, -7, -3, 1, 17
1503694955033,13, 1, -13, 1, 1, 0, -2, -4
1503694955062,2, -11, -8, -2, -5, 0, 2, 0
1503694955070,-7, -5, 2, 3, 15, 1, 0, 1
1503694955093,-20, -4, -4, -5, -6, -2, 1, -6
1503694955115,-2, -1, 5, -1, -2, -1, -3, -6
1503694955130,-3, 6, 15, 6, 3, 1, 7, 40
1503694955153,-4, 14, 16, 3, -4, -3, -4, 3
1503694955160,14, 2, 2, -1, -3, -2, 4, 16
1503694955182,4, 7, -10, -4, 0, 0, -3, -1
1503694955204,-6, -5, -1, 0, 4, 0, 4, 6
1503694955220,10, 10, 10, -5, -5, -3, 0, -2
1503694955243,-2, 2, -3, -1, -6, -4, -6, -2
1503694955250,1, 9, 3, -3, -2, 0, 4, 6
1503694955273,-3, 18, 3, -2, -11, 0, -1, -5
1503694955295,-1, -15, -14, -5, 0, -2, -4, 1
1503694955312,3, 17, 32, 12, 14, 0, -2, -2
1503694955332,0, -14, -10, -3, -10, -4, 2, -1
1503694955355,-7, -4, -8, -2, 3, 0, -4, -6
1503694955380,-3, 9, 5, -1, 11, 0, 0, 9
1503694955393,-1, -6, -12, -5, -8, -1, 3, 7
1503694955415,-10, -14, -14, -3, -2, -2, -1, -1
1503694955430,23, 15, 10, -1, -16, 0, 2, -1
1503694955453,2, 6, 1, -1, -2, -1, -4, -5
1503694955475,9, 4, -3, -5, -4, -1, -2, -12
1503694955490,-7, -8, 7, 6, 4, -1, -2, -7
1503694955514,-9, -14, -14, -9, -13, 1, 2, 4
1503694955536,6, 0, -3, -1, -7, 0, 0, 2
1503694955550,5, 12, 14, 6, 3, 0, 5, 15
1503694955573,1, 11, 11, 10, 8, 1, -4, -4
1503694955595,-14, -13, -10, -4, 2, -3, -4, -8
1503694955610,3, -5, -11, 3, 18, 1, 0, 0
1503694955633,-1, -15, -13, -5, -4, 1, 2, 1
1503694955657,-2, -3, 0, -6, -16, -4, -4, -8
1503694955678,1, -4, -2, 2, 1, 2, 2, 6
1503694955693,5, 2, 3, 0, -1, -1, 2, 4
1503694955716,-6, 7, 9, -1, 2, 0, -2, 0
1503694955738,8, 10, -1, -2, 1, -1, 0, 0
1503694955753,-6, -6, -4, -4, -2, -2, -2, -12
1503694955775,-7, -3, -3, 1, -2, -2, -3, -8
1503694955798,8, 3, 1, 0, 3, 1, 0, 6
1503694955815,3, 4, -1, -5, -9, -3, 4, 4
1503694955835,-6, -12, -3, 4, 2, 1, -1, 3
1503694955858,-19, -8, 0, 3, 6, 0, -5, 2
1503694955873,-5, 1, 0, -3, -4, -2, -1, -6
1503694955895,-9, -12, -9, -3, -4, 0, -3, -12
1503694955918,-1, -2, 5, 0, -2, -2, 1, -5
1503694955934,7, 2, 1, 2, 1, 0, -4, -8
1503694955955,10, 6, 6, 1, -2, 2, 3, 4
1503694955978,-8, -15, -8, -1, 1, 0, 0, 1
1503694955993,1, -13, -11, -9, -2, 0, 1, 4
1503694956017,5, 13, 6, -2, 0, -2, -4, 0
1503694956038,-7, 7, 10, 3, 0, 0, 0, 1
1503694956053,6, 2, -7, 2, 7, -1, -2, 5
1503694956075,2, 6, 2, -4, -6, 0, 1, -3
1503694956098,7, 0, -6, 0, -2, -2, 0, 4
1503694956113,-2, -2, 6, 14, 14, 3, 1, -3
1503694956135,1, 43, 26, -2, -5, -3, -2, -4
1503694956159,-20, -23, -15, -3, -2, 1, -4, -2
1503694956173,-3, -8, -7, -5, -12, -4, 1, -4
1503694956195,3, 3, 2, 0, 1, 0, -5, -5
1503694956218,1, -6, -8, -9, -9, -2, -1, 2
1503694956233,-6, -15, -6, -3, 3, -1, -1, 0
1503694956255,16, 3, -6, -5, 17, -1, -1, 1
1503694956278,-3, -8, 0, -2, -8, -1, -1, 1
1503694956294,3, 0, -2, 0, 8, 2, 1, 4
1503694956322,-4, -9, -8, -6, -11, -4, -4, -3
1503694956337,-1, 1, -2, 2, -1, 1, 1, -7
1503694956355,0, 5, 9, 6, 6, 2, 1, -1
1503694956375,0, -1, -1, -2, -6, 2, 2, 3
1503694956398,-3, 7, 5, 1, -2, -3, 0, 2
1503694956413,-4, 2, 5, 0, -5, -5, -3, -2
1503694956435,-6, 3, 2, -3, -7, -2, 1, 0
1503694956458,-7, -2, 0, -2, -3, -1, -1, -1
1503694956472,-2, -5, 0, 0, 2, 0, -1, -2
1503694956489,-4, -6, -7, -4, -5, -1, -2, 2
1503694956503,3, 2, -2, -6, -7, 0, -3, -2
1503694956526,0, 3, 5, 1, -4, -3, 1, -1
1503694956548,-6, -8, -2, -1, -8, -2, -2, -2
1503694956570,1, -6, -10, -1, 4, 0, -1, 1
1503694956587,-3, -1, -6, 1, 4, 2, 1, -2
1503694956608,-4, -12, -5, 2, 7, 1, 2, 2
1503694956630,4, 6, 3, 1, -1, -1, -2, -1
1503694956646,0, 2, 1, -2, -10, -1, -1, -1
1503694956668,-3, -2, 2, 0, -5, -1, 2, -1
1503694956692,0, 3, 3, -1, 5, 0, 0, -2
1503694956706,3, 6, 1, 1, 3, -1, -2, -3
1503694956729,-1, 0, 4, 0, 1, 2, -1, -1
1503694956750,4, 4, -3, 3, 3, -2, 3, -3
1503694956766,2, 1, -1, -4, -2, -2, -2, -1
1503694956790,-3, -5, -5, -3, -4, -4, -4, -4
1503694956810,-1, -1, 1, 0, 1, 0, -1, 3
1503694956826,1, 0, -2, -3, -3, 0, 0, -1
1503694956848,-1, -1, 0, -2, 1, -1, 0, 0
1503694956870,1, 1, 0, 1, -1, -3, -1, 0
1503694956886,4, 0, 1, 0, 2, 0, 1, 1
1503694956908,-5, -6, -1, -2, -1, 0, -2, -3
1503694956931,1, -1, -2, 0, -3, -2, -1, 0
1503694956946,-1, 0, -1, -2, -2, -1, -1, -3
1503694956968,-4, -2, -2, -1, 1, 0, -2, 0
1503694956991,-2, 0, -1, 0, -3, -2, 0, 2
1503694956999,-2, -2, 0, 4, 3, 1, 2, 1
1503694957020,5, 0, 1, -3, -9, -2, -1, 2
1503694957035,2, 0, -4, -1, 2, -1, 0, 1
1503694957058,-3, -4, 1, -1, 2, 0, -1, -2
1503694957080,-1, 1, 3, -3, -4, -1, -1, 0
1503694957095,0, 1, 4, -2, -5, -1, 0, -1
1503694957117,0, 2, -2, 3, 8, -2, -2, -2
1503694957140,1, 0, -3, 0, -1, 0, 0, 0
1503694957155,5, 6, 2, 2, -2, -1, 1, 4
1503694957178,-10, -9, -1, -2, 1, -1, -1, -4
1503694957201,-3, -1, 0, -2, -2, 1, 0, 2
1503694957215,-5, -3, -4, -7, -16, -4, -1, -3
1503694957238,1, 2, 0, 1, -1, -1, 0, 2
1503694957262,2, -2, -1, -3, -4, -2, -1, -1
1503694957275,0, -2, -3, 0, 6, 0, -1, -2
1503694957298,-2, 0, -2, 2, 5, 2, -1, 1
1503694957320,-1, 2, 2, 2, 7, 2, -1, -1
1503694957335,0, 1, 2, 7, 3, -1, 2, 0
1503694957359,1, -2, -2, -4, -8, -4, -2, -4
1503694957380,-3, -2, 1, -3, 2, -2, 0, -2
1503694957395,2, 3, -2, 0, 0, 0, -1, 0
1503694957418,1, -8, -6, 2, 6, 0, 0, -1
1503694957440,-5, -1, -6, -3, -1, -1, -3, 0
1503694957455,-1, 4, 3, -1, -1, 1, -1, -1
1503694957477,5, -9, -5, -3, -6, -3, -2, -1
1503694957501,-7, -5, 1, -1, -3, 0, 0, 0
1503694957522,-2, 0, -1, 3, 12, 1, 0, -2
1503694957538,3, -2, -7, -3, -4, 0, 0, 0
1503694957560,-3, -14, -8, -4, -7, -1, 0, -2
1503694957582,-3, 1, 8, 1, 0, 0, 1, 0
1503694957598,6, 8, 0, 2, 2, -1, -2, 0
1503694957620,-3, 5, 8, -4, -13, -4, -1, -2
1503694957642,-1, -1, -4, -2, -4, -1, 0, -1
1503694957658,5, 2, -5, -1, 3, -2, -1, 0
1503694957680,0, -1, -2, -1, 4, 0, 0, 0
1503694957703,-3, 2, 6, 0, 0, -1, -2, -2
1503694957718,-4, -2, -2, -2, -1, -1, -2, -2
1503694957740,-1, 5, 2, -1, -7, -1, -4, -3
1503694957763,5, 3, -2, 0, 0, -3, 0, -2
1503694957778,0, -2, -2, 1, 0, -2, -3, -2
1503694957800,-4, -10, -10, -3, 0, 1, 2, 2
1503694957822,2, 17, 14, 1, 2, 1, 1, 0
1503694957831,4, 4, 4, 2, -1, 1, -3, -2
1503694957852,-5, -4, -1, -3, -1, 0, -1, -1
1503694957868,1, -1, 0, -1, 0, 0, -1, -2
1503694957890,-1, 0, -2, 11, 18, 3, -1, -2
1503694957912,-3, -2, 1, -2, -4, -4, -1, 1
1503694957930,0, 4, 3, 6, 4, -1, -3, -1
1503694957943,-2, -4, -2, -2, -1, -3, -3, -3
1503694957958,-3, -5, 0, -1, -8, -3, -3, -5
1503694957981,4, 0, 0, -3, 0, 0, -2, 2
1503694958003,-6, -7, -3, 1, -2, -1, 2, -1
1503694958017,0, 1, -3, -1, 3, 1, -3, -2
1503694958040,-1, 0, 1, 5, 11, 3, 1, 0
1503694958065,2, -1, -5, -5, -8, -4, -1, -2
1503694958077,1, 0, 2, -2, -4, 1, -1, 0
1503694958100,0, 2, 1, 2, -3, -2, -2, -1
1503694958123,0, 1, 1, 3, 2, 2, 0, 0
1503694958138,-1, 1, 2, 1, 0, -1, -1, 0
1503694958160,0, -1, -2, -3, -3, -2, 0, -3
1503694958183,-1, 0, 0, 0, 2, 2, -1, -4
1503694958191,-1, -2, -2, -3, -2, -2, 2, -1
1503694958213,-2, 8, 10, 2, 2, 1, -2, 1
1503694958228,1, 1, 1, 9, 9, 2, -1, -1
1503694958251,-1, -3, -5, -7, -5, 1, 2, 1
1503694958273,-1, -4, -3, 0, -4, -2, -2, -2
1503694958289,-3, -7, -6, -4, -4, -1, -1, -3
1503694958310,-1, -14, -8, -2, -2, -2, 0, -2
1503694958333,1, -3, -6, -3, 4, 3, 1, 2
1503694958341,1, 4, 5, 0, -4, 1, -1, -1
1503694958362,-1, 0, 4, -4, -5, -3, -1, 0
1503694958378,0, 0, -2, -2, -3, -1, -2, -1
1503694958401,-2, -1, 1, -2, -6, 2, -1, -3
1503694958422,-2, 0, -6, 1, 10, 1, -1, -2
1503694958444,1, -3, -2, 2, 4, 1, 0, 4
1503694958468,0, 1, 2, 1, 5, 0, 0, 0
1503694958489,-1, -2, -2, -1, -5, -2, -1, -4
1503694958504,-6, -2, 0, -1, -1, -2, -1, -2
1503694958520,1, 8, 11, 1, 1, -1, -1, -1
1503694958543,-1, -8, -6, -2, -5, -2, -1, -1
1503694958564,2, -2, 2, 1, 7, 2, 3, 4
1503694958580,0, 1, -5, -1, -5, -3, -3, -3
1503694958602,1, 3, -4, 0, -3, -1, -2, 1
1503694958625,-1, -8, -9, -3, -4, 0, -1, -1
1503694958640,-1, -1, 2, 0, -3, -2, -1, -1
1503694958662,2, 2, 2, 3, 6, 1, 3, 0
1503694958684,1, -1, 1, -4, -3, -3, -3, -2
1503694958702,1, -6, -6, -5, -9, -1, 0, 2
1503694958722,-1, -1, 0, 2, 3, 1, -3, -2
1503694958744,-4, -4, -3, -6, -2, -1, 1, -2
1503694958760,0, 4, 4, 2, -1, -1, -2, 0
1503694958782,-8, 0, 0, 5, 4, 0, 0, -1
1503694958804,7, 6, -1, 2, 3, -2, -1, 2
1503694958820,-3, -4, -5, -2, -2, 1, 0, -2
1503694958843,-9, -6, 1, -2, -2, -2, -2, -1
1503694958864,3, 1, -3, 1, 9, -2, -1, 1
1503694958880,0, -1, -3, -6, -9, -2, 1, 3
1503694958904,-9, -4, -1, 0, -1, -2, 1, -4
1503694958924,5, 1, 0, 3, 3, -1, 0, -1
1503694958940,5, 6, 5, 1, -3, 0, -1, 0
1503694958962,0, -3, 0, -3, 2, 1, 1, 1
1503694958984,-1, -3, -1, -5, -4, -1, -2, 0
1503694958993,3, 3, -1, 7, 5, 0, -1, 1
1503694959015,-3, -4, -2, -4, -4, -1, -1, -3
1503694959038,-14, -4, -1, 0, 1, -2, -1, -3
1503694959052,5, -1, -10, -5, -2, -3, 0, 1
1503694959075,11, 3, -2, -2, -1, 0, 1, 3
1503694959090,1, -7, -4, -3, -1, -1, -2, -2
1503694959113,-5, -3, -1, 1, -1, 0, -1, -2
1503694959135,-1, -2, 1, 1, 1, 1, -1, 0
1503694959150,1, 4, 3, -5, -2, 0, -2, -1
1503694959174,-13, -8, 2, 3, 0, -2, 0, -1
1503694959195,-7, 0, -1, -3, -2, -3, -3, -5
1503694959211,3, -6, -3, -3, -3, -1, 0, -1
1503694959232,0, 1, -1, 1, -3, 0, -4, 1
1503694959255,-2, -1, 5, 7, 3, 2, 3, 1
1503694959274,17, 6, 1, 1, 0, 1, 0, 6
1503694959292,-5, -16, -4, -2, -1, 0, 0, -5
1503694959315,-6, 6, 4, -1, -1, -1, 1, -2
1503694959330,-1, -6, -6, 2, 2, 0, -1, -1
1503694959352,-6, -11, -9, -6, -2, -1, -2, -2
1503694959375,-4, 6, 4, 1, 0, 0, 0, -1
1503694959397,2, 4, 3, 0, 3, -2, -2, 0
1503694959412,-3, 1, -1, -5, -2, -2, -2, -1
1503694959435,-7, 0, 4, -1, -2, 0, 0, -1
1503694959457,4, 4, -3, 0, -1, 0, 0, 0
1503694959475,6, 6, 8, 3, 3, 1, -1, 0
1503694959495,-6, -5, -2, -1, -2, -2, -4, -3
1503694959518,10, 9, 5, 0, 0, -3, -1, 0
1503694959532,-10, -11, -4, -1, -2, -2, -3, -3
1503694959547,-2, -3, 0, -1, -2, 0, -2, -2
1503694959556,0, -2, -3, -3, -5, -1, 0, 2
1503694959583,-2, -4, -3, -2, 1, -1, -1, -2
1503694959592,0, 0, -1, -2, 0, -3, -1, -2
1503694959615,-6, -2, -3, -8, -9, -1, -4, -4
1503694959638,-12, -7, -8, -7, -6, -4, -3, -6
1503694959660,2, 2, 4, -6, -11, 1, 1, 0
1503694959677,-2, 1, 0, 5, -1, 0, -1, -5
1503694959698,2, 0, -1, 0, 11, -3, 1, 1
1503694959713,-1, 1, -2, 2, 3, -1, 0, 0
1503694959739,5, 6, 4, 3, -1, 1, -1, -4
1503694959757,4, 2, 4, 4, -6, -3, -1, 1
1503694959777,-2, 1, -1, 0, -2, -1, -1, -6
1503694959795,5, 3, -2, -9, -14, -2, -1, 7
1503694959818,-32, -15, -7, -8, -1, 0, -2, -9
1503694959833,17, 4, 3, 5, 9, 1, 2, 10
1503694959855,-6, -6, -1, -2, 10, 0, -3, -8
1503694959879,0, 1, -1, 4, 1, 1, 1, 1
1503694959892,-2, -4, 0, 1, 6, 0, 3, 6
1503694959915,2, 0, -1, -5, -15, -5, -1, 3
1503694959937,1, 1, 0, -1, -6, 0, 0, 4
1503694959953,0, -1, -5, -4, -13, -5, -2, -2
1503694959979,8, 3, 0, -1, 5, -1, -2, 1
1503694959998,-5, -2, -1, 2, 15, 4, 0, -3
1503694960013,-4, -6, -4, 1, -3, -1, -1, -4
1503694960035,-5, -2, -2, 0, -5, -1, -1, 1
1503694960057,8, 11, 3, -4, -19, -4, -2, -1
1503694960072,3, -1, 0, 3, 3, 1, -1, -4
1503694960095,4, 2, -1, -3, 7, -1, -2, -4
1503694960118,-5, -5, 0, 2, 2, -2, -3, -1
1503694960132,0, -5, -2, 1, 3, 3, 3, 3
1503694960155,14, 3, -3, -1, 1, 2, 1, 5
1503694960182,-8, -5, -8, -5, -6, -4, -3, -2
1503694960184,-5, 0, 2, -4, -10, -3, -3, 1
1503694960207,10, -2, -3, 1, -3, 0, 1, 0
1503694960222,-6, 5, 0, -1, 12, -3, -3, -3
1503694960246,-5, -2, 1, 3, -1, -1, 0, -1
1503694960253,-9, -6, -7, -6, -6, -6, -5, -5
1503694960275,11, 4, 2, -7, -15, 1, -1, 1
1503694960297,0, -1, -2, -7, -7, -5, -6, -7
1503694960320,-3, -4, 3, 7, 31, 6, 1, 2
1503694960335,-12, -5, -2, 1, -13, -4, -1, -8
1503694960357,7, -1, -1, 8, 3, 2, 7, 9
1503694960381,1, 3, -1, 6, 16, 7, 2, 1
1503694960395,-1, 1, -1, -1, 0, 0, -2, 0
1503694960418,1, 2, 1, -5, -20, -3, 0, 3
1503694960440,2, -2, 0, -7, -9, -2, -1, 3
1503694960456,-1, 1, 1, 5, 19, 1, 1, -1
1503694960477,10, 8, 8, 6, 0, -1, 1, 1
1503694960485,1, -22, -12, -1, -7, -3, 3, 5
1503694960508,11, -2, -3, -3, -2, 0, 1, 1
1503694960530,-6, -2, 1, 0, 3, 2, -2, -2
1503694960545,-12, -5, -4, 2, 2, 0, 0, -3
1503694960568,-6, -6, -4, -1, -2, -3, 1, 2
1503694960576,3, -3, -8, -5, -7, -3, -2, -8
1503694960597,-7, -5, -4, -4, -5, -1, 2, 2
1503694960620,-4, 0, 0, -4, 4, -2, -4, -5
1503694960635,2, 5, 0, -2, -4, -1, 0, 2
1503694960657,-7, -5, -7, -5, -5, -1, -2, -3
1503694960680,1, -12, -7, -4, -7, -2, 1, 2
1503694960695,6, 0, 0, 0, 1, -1, 1, -1
1503694960717,-4, 3, 1, 1, -3, -1, 0, -1
1503694960740,-6, -1, 1, 2, -2, 0, -1, 4
1503694960755,-3, -6, -3, -7, -3, 6, 1, -3
1503694960777,-2, -4, -14, -3, -1, -3, -2, -3
1503694960807,11, 23, 20, 4, 9, 8, -1, 1
1503694960820,0, -8, -5, -3, -5, -4, -1, 3
1503694960838,-7, -7, 1, -3, -1, -4, -2, 4
1503694960860,1, 11, 21, 5, -2, -1, 3, 2
1503694960875,2, 3, 5, 2, 3, -2, -4, -6
1503694960898,-7, -11, -8, -5, -3, -3, 0, -3
1503694960920,0, -2, -4, 5, 4, -2, 0, 0
1503694960935,-9, -10, -8, -6, -4, -3, -3, -1
1503694960957,7, 4, -3, -5, -6, -2, -4, -2
1503694960980,-2, -2, -1, 1, 5, 1, 1, 6
1503694960995,-6, -8, -7, -2, -1, -3, -1, 0
1503694961018,-8, -5, -2, 0, -4, 0, -1, -4
1503694961033,1, -1, 1, -6, -8, -4, -3, 0
1503694961055,4, 10, 10, 5, 1, 0, 1, 3
1503694961070,-3, -5, -6, 1, 0, 0, -1, -3
1503694961094,-2, -3, -4, -3, -3, -2, -1, 2
1503694961108,11, -2, 7, 5, 1, 0, 0, 4
1503694961131,-2, 1, -6, -1, -3, -3, 0, -5
1503694961153,1, -4, -9, -4, 0, -2, -3, -1
1503694961168,-6, 0, -6, -1, 6, 1, -1, -4
1503694961190,1, 1, 2, 0, -2, 1, -1, 0
1503694961205,-5, -7, -6, -2, -4, -2, -1, -4
1503694961228,2, 2, 9, 5, 2, 3, -2, -3
1503694961251,2, -4, -3, -4, -10, -3, 1, 2
1503694961273,12, -3, -2, 0, -1, 1, 1, 3
1503694961288,-3, 0, 4, 7, 24, 4, -1, 3
1503694961303,-14, -6, 1, -1, -2, 0, 1, 2
1503694961320,2, 5, 2, -2, -7, -2, 0, 0
1503694961340,7, 5, 0, 0, 4, -1, 0, 6
1503694961363,4, 7, 0, -3, -4, -1, -2, -5
1503694961378,2, -1, 3, 5, 4, 0, 0, 3
1503694961400,-1, -1, -1, -2, -2, -2, -4, -7
1503694961423,1, 4, 10, 4, 5, -2, -1, 3
1503694961437,-1, -3, -5, -2, -3, 0, 3, -7
1503694961460,-1, 0, 1, 3, 7, 5, 1, 7
1503694961482,1, -1, 3, -1, -2, -1, 0, -1
1503694961491,4, -3, -3, -5, -6, -1, -1, 3
1503694961513,0, -1, -2, -1, -3, -1, 0, 4
1503694961529,6, -1, 1, 0, 0, 0, 4, 12
1503694961550,-2, -3, -5, -9, -13, -6, 1, 1
1503694961573,-4, -2, -4, -1, 1, 2, 2, 3
1503694961589,-4, -7, -6, -2, 2, -1, -5, -4
1503694961610,6, 3, 0, 0, -7, -2, -2, 15
1503694961633,-1, -3, -2, 2, 18, 1, 1, -5
1503694961648,-1, -9, -2, -2, -7, -1, 3, -1
1503694961670,-7, -9, -8, -3, -3, -1, -2, 1
1503694961692,-17, -5, 0, -2, -4, -3, -7, -27
1503694961708,8, 8, 8, 3, -3, 2, 1, 3
1503694961731,5, 6, 4, 3, 0, 1, 1, 22
1503694961752,-3, -1, -2, -4, -1, -3, -1, 13
1503694961768,-16, -13, -8, -2, -2, -1, -7, -43
1503694961790,-14, -3, 0, -2, -2, -2, -1, -6
1503694961813,10, 1, -2, -2, -1, -2, -4, 11
1503694961828,2, 3, 0, -2, -6, -1, -5, -9
1503694961850,13, 5, 7, 4, 4, 3, 5, 31
1503694961873,-1, 2, -1, -5, -4, -1, 2, 2
1503694961888,-4, 8, 7, 7, 2, -3, -12, -42
1503694961910,-7, -10, -9, -3, 5, 3, 10, 11
1503694961933,6, -10, -14, -8, -5, -1, 3, -2
1503694961948,-17, -6, -5, -2, -4, -1, 0, -8
1503694961970,17, 8, 5, 1, 0, 2, 5, 10
1503694961993,-11, -2, -6, -2, 0, -3, -5, -12
1503694962008,8, 0, 2, -2, 0, 1, -5, 0
1503694962030,-8, -10, -3, -3, -2, -2, 1, -8
1503694962053,12, 0, 1, 0, -2, -4, -3, 14
1503694962068,-17, 3, -1, -4, -7, -3, -6, -15
1503694962091,15, 12, 14, 5, 3, 4, 8, 1
1503694962097,2, 0, 0, 1, 2, 2, -5, 4
1503694962120,8, 3, 4, 2, 0, 1, 4, 10
1503694962142,-14, -8, -3, -4, -2, -3, -3, -10
1503694962165,-6, -4, -8, -3, 0, 0, -1, 18
1503694962180,-4, -5, -7, -6, 0, -1, -2, -8
1503694962202,2, 4, 6, 1, -11, 1, 0, 10
1503694962227,-3, -7, -7, -2, -1, 0, 1, 1
1503694962240,1, 0, -1, 1, 1, -1, 4, 3
1503694962263,15, 10, 1, -5, -4, 0, 2, 6
1503694962284,-13, -28, -18, -3, 2, -1, -1, -6
1503694962307,-4, -1, 0, 5, 13, -2, -5, -17
1503694962330,-20, -10, -1, -1, -2, -1, -3, -19
1503694962345,4, 6, 6, 1, 1, 0, -1, -1
1503694962362,-15, -6, -5, -2, -2, -3, -5, -31
1503694962382,-6, 3, 3, 1, 0, 0, -5, -15
1503694962405,23, 6, 1, -2, -7, 1, 5, 18
1503694962420,3, -3, -6, -4, -1, 0, -2, 9
1503694962442,8, 0, -6, -2, -3, -1, -5, 26
1503694962464,-16, -11, -11, -2, -2, -3, -2, -1
1503694962472,-8, 1, 0, -3, 0, -1, -4, 6
1503694962495,-3, 0, -2, 5, 4, -3, -2, -11
1503694962510,7, 1, 0, 0, 2, 1, -2, -3
1503694962532,10, 0, -5, -5, -9, -2, 1, -9
1503694962555,9, -5, -1, 0, 1, 1, 5, 28
1503694962570,-6, 5, 3, -6, -11, -3, -2, 5
1503694962592,-5, -1, -3, -4, -5, 1, 4, 1
1503694962615,-1, -14, -12, -5, 0, -4, -9, -29
1503694962630,-3, 2, 5, 0, -2, 1, 8, 6
1503694962653,7, -16, -9, -3, 3, 3, 10, 32
1503694962675,0, -2, 0, 1, 2, 0, -2, -2
1503694962690,2, 3, -1, 1, -1, 2, 0, -6
1503694962713,-16, 1, 3, 5, 3, -1, -1, -6
1503694962735,-1, -2, 1, 4, 19, 1, -8, -16
1503694962750,0, 8, 7, -9, -21, -5, -3, -9
1503694962773,4, 4, 0, -6, -9, -4, -5, 3
1503694962798,-4, -11, -9, -1, -19, -4, 2, -5
1503694962810,12, -26, -19, -4, 11, 0, -2, 4
1503694962833,-3, 7, 8, 19, 37, 8, -1, 3
1503694962855,16, 23, -4, -3, -2, 0, 2, 7
1503694962871,-19, -14, -11, -6, 1, -1, 0, -11
1503694962893,-8, 9, 18, 11, 31, 1, 4, 9
1503694962915,-1, 5, 2, -3, -9, -1, -6, -9
1503694962931,-3, -22, -21, -17, -48, -10, -1, -4
1503694962953,-8, -3, 8, 4, 5, 3, 4, 17
1503694962975,22, -3, -11, -7, -7, -5, -2, 11
1503694962990,22, 9, 12, 5, 2, 2, 2, 3
1503694963013,-13, -4, 2, -7, -6, -3, 5, 15
1503694963035,-10, 9, 5, 8, 27, 6, -4, -14
1503694963050,13, 13, 11, -3, -13, -3, -4, -19
1503694963073,-34, -15, -7, -2, 4, -2, -15, -41
1503694963095,-4, 6, -1, 3, 0, 2, -2, -22
1503694963103,9, -4, -1, -5, -9, -3, 2, -2
1503694963125,-10, 1, -4, -5, -7, -2, -7, -6
1503694963147,-9, -1, 1, 2, 0, 0, 0, -5
1503694963162,-8, -5, -6, -3, -3, -4, -4, 2
1503694963185,-8, -6, -11, -9, -9, -2, 4, 15
1503694963207,7, 2, 5, 10, 18, 2, -5, -24
1503694963223,-2, 2, -2, -4, -9, -1, 3, -11
1503694963245,15, 7, 6, 1, -1, -1, -6, 6
1503694963267,0, 8, 9, 3, -3, -1, 1, 6
1503694963282,-13, -12, -11, -3, -7, -3, 4, -8
1503694963305,-3, 9, 13, -4, -4, 2, 1, -5
1503694963326,-11, -9, -8, -1, -4, -2, -10, -32
1503694963343,7, 9, 5, 6, 13, 3, 4, 8
1503694963365,6, 8, 9, -3, -5, -2, -1, 2
1503694963386,-5, -10, -8, -1, 0, 1, 2, 21
1503694963402,4, 11, 16, 3, -3, -2, -9, -9
1503694963425,17, -4, -19, -6, -7, -2, -6, 12
1503694963447,-2, -17, -11, -5, -5, -1, -2, 1
1503694963462,5, 2, -3, -2, 2, 1, 5, 10
1503694963485,5, 8, 2, 0, 0, -2, -1, -7
1503694963507,-17, -15, -5, 0, 6, 0, 5, 13
1503694963522,-11, 0, -2, -4, -1, -1, 2, -14
1503694963545,24, 2, -1, 1, 1, 1, -3, -2
1503694963569,-7, 6, 11, 2, -2, -3, -3, 22
1503694963589,21, 9, 4, 0, -3, -1, 1, 1
1503694963612,-5, -9, -14, -1, 3, -1, -2, -9
1503694963628,-5, -2, 2, 0, -1, 0, 7, 15
1503694963642,0, -9, -10, -7, -5, 0, -3, -15
1503694963665,0, -8, -3, 2, 4, 2, 4, 23
1503694963687,-21, -6, -11, -18, -2, -2, 0, -38
1503694963703,-1, 9, 1, 6, -3, -4, -12, -33
1503694963725,1, 0, 6, 0, -2, 2, 8, 42
1503694963747,-11, -7, -10, -5, -4, -4, -4, -3
1503694963762,18, 6, 3, 2, 1, 2, 12, 45
1503694963785,-2, -1, 8, 13, 3, -2, -8, 0
1503694963807,-22, -9, -12, -3, -1, -2, -5, -20
1503694963822,11, -31, -17, -10, -4, -4, 1, 0
1503694963845,14, -6, -6, -11, -5, 0, 3, -4
1503694963866,-20, -6, -12, -3, -2, -1, 0, -20
1503694963882,26, 22, 6, 12, 5, 5, 7, 21
1503694963905,20, -3, -1, 4, 1, 3, 18, 28
1503694963926,-11, 4, 3, -6, -1, 0, -2, -7
1503694963942,-12, 20, 16, 0, 2, 0, -4, -28
1503694963965,-20, -8, 1, 0, -5, -6, -10, 2
1503694963987,-17, -21, -11, -10, -5, -3, -7, -19
1503694964002,-6, 48, 28, 5, 4, -1, -4, -24
1503694964024,8, 7, -8, -15, -7, -2, 6, 22
1503694964047,-3, -15, -19, -3, -2, 0, 4, 19
1503694964069,12, -22, -12, -1, -1, 2, 2, 3
1503694964085,-1, 2, 3, -1, 0, 0, -2, 9
1503694964108,8, -20, -12, -5, -6, -6, -4, 10
1503694964129,-17, -16, 6, 5, 2, 1, -4, -10
1503694964145,0, -9, -12, 1, -3, -3, -9, 2
1503694964166,6, 9, 1, 3, 2, 0, -3, 0
1503694964189,1, 13, 8, -1, -1, 0, 2, -10
1503694964207,4, 8, 1, 2, 3, 3, 10, -2
1503694964226,6, 7, -8, -3, -3, -2, -1, -2
1503694964249,5, 11, 14, 4, -2, 0, -2, 2
1503694964265,-22, -12, -3, 4, 13, 1, 3, -4
1503694964286,3, -3, -3, -12, -24, -7, -4, 0
1503694964309,-4, -1, 6, 3, -2, -1, -7, 3
1503694964324,2, -9, -9, -5, -2, -3, -2, 1
1503694964341,-6, -16, -6, -3, -1, -1, -1, -1
1503694964355,-2, 7, 2, 3, -4, 2, -1, 0
1503694964379,10, 17, 13, 6, 2, 2, 9, 16
1503694964400,-5, -12, -4, -6, 1, -2, 2, -4
1503694964415,-18, -10, -2, -2, 6, 1, -4, -1
1503694964437,6, -6, -3, 0, 0, -2, -2, 6
1503694964460,4, -15, -8, -2, -4, 0, -3, -6
1503694964475,-10, -7, -2, -5, -5, -2, -2, -3
1503694964497,-19, -10, -8, -2, -2, -2, -4, -9
1503694964521,12, 7, -2, 2, 6, 1, 1, 1
1503694964535,3, 2, 2, 1, 5, -1, -1, -1
1503694964557,0, 3, 1, -8, -10, -4, -1, 2
1503694964580,-1, 3, 2, -4, -8, -1, -2, -2
1503694964595,0, -4, -2, 1, 3, -1, -2, 0
1503694964618,3, 4, 4, 13, 21, 5, -1, -3
1503694964640,0, -2, -2, -1, -3, -1, -1, -1
1503694964655,-1, -5, -2, 2, 9, 2, -1, 0
1503694964681,0, 3, 1, -5, -21, -5, -3, -2
1503694964700,2, 2, 1, 5, 3, 0, 2, 2
1503694964715,-1, -1, -3, -2, -2, -1, 0, 0
1503694964737,10, 5, -1, -2, -2, -3, 3, 35
1503694964760,0, 4, 5, -2, -7, -2, -2, -41
1503694964782,-11, 9, 4, -4, -5, -2, -8, -25
1503694964797,0, -2, 0, -6, -3, -4, -2, -2
1503694964820,-1, -3, -5, -6, -24, -2, 4, 15
1503694964835,-9, -10, -3, 0, 5, -1, 1, -21
1503694964857,-2, 17, 18, 10, -2, -2, -4, -2
1503694964880,-8, -13, -10, -1, -1, 4, 1, 11
1503694964896,1, 4, 5, -1, 2, -4, -4, 9
1503694964917,-1, -7, -4, 0, 3, -1, -3, 15
1503694964940,8, -2, -2, 2, 15, 3, 2, -6
1503694964962,-5, -10, -9, -5, 1, -3, 0, 3
1503694964981,4, 11, 14, 10, 13, 2, 0, 3
1503694965000,-8, -9, -13, -10, -13, -2, -3, -23
1503694965022,3, -9, -7, -4, -3, -2, 0, 9
1503694965037,5, 1, 0, 2, 4, 2, 2, 6
1503694965060,21, 12, 12, 4, 0, 4, 8, 35
1503694965067,-19, 3, -1, 4, 12, 0, -3, -17
1503694965090,5, -2, -3, -1, -14, -1, 2, 10
1503694965116,-5, 2, -4, -1, -6, -1, -1, 10
1503694965126,17, -3, -5, 2, 0, 2, 4, 14
1503694965149,-3, -2, -10, -7, -15, -5, -8, -9
1503694965172,13, -2, 4, 5, -2, -2, -2, -14
1503694965182,-15, -1, -2, -3, 0, 1, -7, -38
1503694965202,9, 4, 8, 2, 2, 0, 3, 12
1503694965217,-3, 9, 8, 10, 11, 1, 5, 7
1503694965233,6, -2, 6, -1, -7, 1, -8, 6
1503694965248,-15, 6, 16, 9, 3, -2, -6, -23
1503694965270,-11, -1, 3, 2, -1, -3, -2, -17
1503694965299,8, 4, 2, 0, 4, 0, 8, 23
1503694965308,3, -5, -10, -3, 1, 0, -1, -25
1503694965330,-7, -5, -14, -5, -1, -1, 0, 4
1503694965353,17, -2, -12, -8, -3, 0, 10, 43
1503694965375,3, -4, 6, -1, -2, -3, -5, 0
1503694965390,-7, -1, -6, -3, 1, -2, -5, -21
1503694965415,-1, 3, 8, 1, 0, 1, -2, 2
1503694965420,-2, -4, -4, -1, -6, -2, -7, -5
1503694965435,8, -4, -5, -2, 0, -1, 1, 15
1503694965450,-17, -5, 0, 4, 14, 1, -4, -11
1503694965473,-10, 3, 6, 7, 4, -1, -6, -13
1503694965495,2, 1, -2, -3, -2, 0, 3, 20
1503694965510,-6, 1, 5, -1, -6, -1, -1, -13
1503694965533,6, 26, 33, 7, -2, 0, -1, -8
1503694965555,12, 8, 6, 2, -3, -1, 1, 7
1503694965570,-12, -4, -6, -6, 1, 0, -6, -12
1503694965593,1, 4, 4, 5, 7, 1, -3, -7
1503694965626,5, -6, 0, -5, -6, -1, 3, 2
1503694965639,5, 8, 12, 2, -2, -1, -3, -8
1503694965669,1, 7, 2, 0, 7, -3, 7, 1
1503694965686,9, 18, 16, 4, 1, 2, 5, 8
1503694965699,-15, -11, -12, -6, -16, -8, -8, 4
1503694965722,4, -10, -3, 3, 2, 3, -1, 2
1503694965742,13, 5, 3, 7, 20, 2, 3, 5
1503694965757,6, 34, 27, 3, -2, 2, -2, -3
1503694965780,7, 2, -6, -7, -4, -3, -5, -15
1503694965802,-8, -17, -15, -6, -4, -4, -8, -21
1503694965819,-1, 17, 28, 8, 1, -1, -3, -4
1503694965840,-10, -17, -10, -3, 1, 1, -1, 3
1503694965862,2, 0, -5, -1, -3, 1, -1, 2
1503694965885,-6, -5, -9, -3, 0, 0, 1, 2
1503694965900,-3, 1, 0, 5, -4, 0, 1, -4
1503694965922,4, -3, -4, -4, -5, -1, 0, -1
1503694965945,13, -24, -30, -16, -3, -2, 4, -5
1503694965960,-7, 13, 27, 6, 3, 1, 1, -12
1503694965989,1, -4, -18, -12, -12, -5, -4, 29
1503694966005,8, 0, 8, 4, -3, 1, 5, 4
1503694966020,-6, -3, -9, -7, -7, -2, -2, 0
1503694966047,-9, -2, -2, 0, -1, -3, -14, -27
1503694966065,1, 11, 9, 12, 17, 3, 8, 4
1503694966080,-4, -4, -10, -10, -19, -6, -4, 2
1503694966103,2, 3, 13, 7, 11, 3, 5, 28
1503694966125,-3, -1, -3, 4, 8, -1, -2, -10
1503694966141,-5, 8, 6, 2, -2, -2, -3, -9
1503694966162,3, -7, -8, -6, 0, -2, -10, -7
1503694966185,17, 11, 16, 5, 1, 1, -1, 9
1503694966207,0, 3, 0, 3, 4, -1, -6, -14
1503694966215,-2, -1, -2, -2, -4, -3, 7, 17
1503694966230,-6, 1, -3, -3, -2, -1, -3, -7
1503694966256,15, 6, -1, 2, -1, -2, -5, -10
1503694966275,-14, 6, 10, 2, -2, -2, -4, -18
1503694966290,4, -19, -23, -7, -6, -1, 2, 13
1503694966313,-2, 10, 12, 2, -1, -2, -1, -3
1503694966335,-16, -18, -5, 2, 2, -2, -1, 2
1503694966350,5, 5, -7, -4, -1, 2, 12, 12
1503694966373,-2, -8, -17, -7, -5, -2, -3, -3
1503694966395,12, 10, 7, 10, 0, 2, 3, 11
1503694966410,-7, -5, -3, -3, 0, -1, -8, -22
1503694966433,1, -6, -7, -8, -2, -1, 1, 2
1503694966456,-11, -1, 4, 0, 7, 1, -1, -6
1503694966470,-7, -2, 0, -6, -8, -2, -4, -3
1503694966493,-3, 3, 0, -2, -3, -3, -4, -19
1503694966500,-5, -3, -2, 0, -2, -2, -6, -16
1503694966523,2, 7, 2, -2, -1, -2, 4, -1
1503694966544,0, -12, -13, -5, -6, 0, 5, 11
1503694966560,-3, 7, 8, -1, -1, 1, 1, 3
1503694966582,2, 4, 2, 1, -8, -4, -1, -2
1503694966605,2, 8, 6, 0, -1, -2, -3, -4
1503694966620,-7, -14, -7, 0, 11, 1, -1, 0
1503694966642,1, -2, -2, -5, -6, -2, 1, 0
1503694966665,-6, -14, -8, -2, -1, -2, -2, -5
1503694966680,5, 4, 2, 0, -5, -4, 0, 8
1503694966696,3, 16, 21, 3, 1, 0, 0, 0
1503694966710,3, -21, -41, -15, -5, -5, -5, 4
1503694966733,-4, 3, 1, -3, 1, -1, -2, -1
1503694966758,-2, 17, 10, 6, 3, 0, 2, -1
1503694966770,-3, -19, -11, -4, -2, -1, -1, -7
1503694966793,7, 21, 27, 11, 6, 1, 1, 0
1503694966815,8, 43, 34, 2, 1, 2, -1, 2
1503694966837,1, -21, -19, -10, -5, -4, 0, -3
1503694966853,-11, -29, -12, -2, -2, -3, 2, -3
1503694966875,-14, -9, 4, 1, 1, 0, 0, -6
1503694966898,2, -4, -19, -4, 2, 2, -2, -2
1503694966913,-2, -7, -1, 2, 1, -1, -2, 1
1503694966935,-1, -2, -8, -2, 0, 1, -1, -2
1503694966959,-7, -4, 13, 2, -2, -3, -3, -2
1503694966973,3, -3, -6, -2, -1, -1, 1, 1
1503694966995,-12, -31, -35, -7, -1, -1, -2, -2
1503694967017,-3, -15, -18, -6, -3, -3, -2, -3
1503694967033,3, 13, 11, 2, 1, 0, -1, 0
1503694967055,-1, 10, 15, 5, 1, 0, -1, -3
1503694967077,6, 10, 14, 1, 0, 1, 0, 0
1503694967094,-3, -12, -14, -4, -3, -1, 0, -2
1503694967115,5, 5, 4, 1, 0, -1, -2, -1
1503694967137,5, 6, -1, -1, -2, -3, 2, 1
1503694967153,1, -1, 0, 0, 0, 1, 1, 0
1503694967175,-5, 4, 2, 1, -1, -1, -2, -1
1503694967197,1, -1, -8, -4, -2, 0, 0, 0
1503694967213,-4, -2, 0, -4, -5, -3, -1, -1
1503694967236,0, 3, 4, -2, -9, -2, 0, 2
1503694967257,-5, -3, -1, -1, -9, -2, -2, -2
1503694967273,-4, -3, 1, 3, 3, 2, 1, -2
1503694967296,0, -1, 1, 1, 10, 0, -2, -1
1503694967317,0, 2, -1, -3, 1, 0, 1, 1
1503694967333,-3, -2, 0, 12, 17, 2, 0, -1
1503694967355,-1, 7, 2, -6, -5, -2, -1, 1
1503694967377,0, -2, -3, -3, -4, -2, -5, -7
1503694967392,3, 3, 0, 1, -1, 1, -1, -1
1503694967422,0, -4, -4, 0, -1, -1, 0, 1
1503694967438,-7, -4, -4, -6, -7, -2, 0, 0
1503694967453,-6, -4, -2, 1, 1, -2, -1, -4
1503694967475,-8, 0, -1, 6, 6, 4, 2, 2
1503694967498,1, 13, 20, 2, -1, -2, 0, 2
1503694967513,0, -12, -17, -15, -23, -7, -3, -1
1503694967539,3, 1, 0, 4, 9, 6, 1, 1
1503694967557,-9, -7, -1, -4, 9, -4, -4, -16
1503694967573,3, -1, -3, -4, -15, -2, -6, -3
1503694967596,3, -7, -9, -4, -7, -1, 1, 7
1503694967617,-4, -10, -4, -2, 5, -2, -4, -4
1503694967633,8, 10, 8, 10, 17, 6, 4, 8
1503694967655,9, -4, -2, -4, -10, -3, -1, 0
1503694967677,-4, -4, -5, 0, 5, -1, 4, 3
1503694967693,-1, 8, 2, -4, 3, -1, 6, 4
1503694967715,-1, 2, -2, -2, -4, -3, -4, -4
1503694967737,-1, 1, 4, 2, -1, -2, -4, 2
1503694967760,-6, 7, -11, -1, -1, -1, -3, -9
1503694967775,-6, -14, -7, -10, -17, -5, -4, -9
1503694967800,-2, -5, -4, 0, -4, -1, 0, 1
1503694967819,7, -7, -9, -4, 3, 0, -1, 14
1503694967836,1, 18, 7, 3, 0, 0, -6, -14
1503694967857,-7, 1, 3, 4, 4, 1, -2, -36
1503694967879,7, 3, 10, 3, 6, 0, 0, 1
1503694967895,-14, -4, 6, 4, -2, 0, 11, -15
1503694967917,9, 2, -1, 2, -3, -1, 0, 21
1503694967940,-7, -4, -4, -1, -2, 0, 1, 6
1503694967955,-5, -6, -3, -4, 0, -1, 1, 10
1503694967977,2, -1, -3, 0, 0, -2, -3, -1
1503694968002,3, -3, -1, -8, -13, -1, -2, 6
1503694968015,-7, 0, 1, 2, 1, -3, -4, -1
1503694968037,4, -9, -4, -6, -1, -1, 1, 8
1503694968060,6, 19, 12, 7, 5, 1, -5, -2
1503694968075,-10, -23, -23, -7, 0, -2, -8, 0
1503694968097,6, 3, -1, -2, 1, 0, -1, -11
1503694968120,2, -13, -10, 0, 1, 1, 4, 5
1503694968136,-3, 13, 16, 5, 0, -1, -1, 1
1503694968157,-1, -3, -1, 0, -1, -2, 5, -1
1503694968180,-6, 3, 5, 5, 4, 0, -1, -4
1503694968195,9, 18, 19, 2, -2, -1, 0, 0
1503694968217,-5, -13, -11, 0, 2, 0, -2, 1
1503694968240,-1, -5, -5, -4, -4, -2, -1, -3
1503694968255,-1, -2, -4, 0, -3, -2, -1, 0
1503694968278,-2, -2, 1, -3, -1, 0, -2, -5
1503694968300,2, 0, 4, 0, 0, -2, 0, 3
1503694968315,-1, 3, -3, 1, 0, 0, -1, -1
1503694968337,7, 2, -1, -2, 0, 2, -1, 3
1503694968359,-6, -1, 2, 3, -1, -2, -1, 0
1503694968375,2, 0, -2, -1, 0, 0, 1, -3
1503694968398,-6, -3, -3, -2, -2, -1, -2, -4
1503694968419,2, 0, 1, 4, 1, -1, 1, 3
1503694968436,0, 1, 3, 0, -3, -2, 0, -2
1503694968457,-1, -2, -2, 3, 3, 1, 0, 1
1503694968480,1, -2, -6, -7, -4, -2, -2, 1
1503694968495,1, 8, 3, -5, -5, -4, -3, -4
1503694968517,-2, -2, -3, -2, 0, 1, -1, -4
1503694968540,-9, -6, -3, 2, -2, -1, -2, -2
1503694968555,1, -4, -2, -2, 0, -1, -1, 0
1503694968577,-1, -3, 1, -4, -6, -5, -2, -3
1503694968600,-3, -2, -6, -1, -2, 0, 2, -1
1503694968608,7, 9, 10, -2, -4, 0, 3, 2
1503694968629,3, 0, 0, 5, 14, 3, -2, -3
1503694968645,-1, -2, -2, -6, -10, -3, -2, -2
1503694968667,-2, 0, -2, 5, 6, 0, -2, -4
1503694968696,-5, 1, 0, -1, 5, 1, 0, 0
1503694968711,5, 1, -6, -3, -9, -1, 0, 1
1503694968727,-5, -1, -4, -5, 2, -1, -1, 1
1503694968749,1, -1, -2, 3, -3, -1, 2, 2
1503694968772,-7, -8, -4, -1, 3, -2, 0, 3
1503694968781,-5, -4, -4, 0, 4, -3, 1, 2
1503694968802,4, 2, -1, 1, -2, 1, 2, 2
1503694968817,-10, -4, 0, 6, 5, -1, -1, -4
1503694968840,3, -1, 4, 3, 9, 3, 2, 1
1503694968862,-3, 1, 2, -2, -4, -2, -3, -1
1503694968877,8, 1, -1, -2, -2, -2, 1, 1
1503694968899,-2, 3, 1, -6, -4, -2, -7, -6
1503694968922,5, 9, 9, 0, -5, 1, -2, 1
1503694968937,3, 0, -2, 1, 2, 0, 2, 0
1503694968960,-3, 3, 11, 2, -2, -1, 1, -1
1503694968984,1, -11, -10, 3, 11, 2, 1, 3
1503694968997,-2, -2, -4, -3, -5, -2, -3, 0
1503694969019,-1, -3, -10, -7, -4, -1, 1, -1
1503694969042,-3, 0, 0, -3, -2, -3, -2, -3
1503694969065,1, -2, -3, -2, -5, -2, -3, 2
1503694969080,-2, -1, -3, -5, -5, -3, -3, -3
1503694969102,-4, -4, -4, -5, -3, -2, 2, -3
1503694969117,-1, -1, 1, 10, 24, 7, 1, 2
1503694969141,-12, -4, 0, -4, -2, -3, -5, -6
1503694969169,9, 2, -5, 0, -2, -3, -3, -1
1503694969191,-2, 0, 2, 14, 10, 4, -1, -3
1503694969209,-1, -4, -1, -4, -6, -2, 0, 2
1503694969229,-4, -1, -1, -6, -7, -4, -1, -1
1503694969251,-4, -1, 1, -2, 0, 0, 0, -2
1503694969267,-4, -6, -4, -2, -6, -1, -4, -5
1503694969289,-2, -14, -13, -7, -6, -3, 2, -4
1503694969311,1, -2, -1, 3, 8, 3, -2, 1
1503694969327,2, 3, -1, 2, 9, 0, -3, 2
1503694969350,8, 3, 0, -3, -4, -3, -2, 4
1503694969371,-2, 1, 4, 5, 1, -3, -1, 1
1503694969387,-1, 2, 5, 1, 8, 0, 3, -2
1503694969410,-2, 0, 0, -1, 3, 0, -1, -2
1503694969419,2, 1, -1, -6, -7, -1, -3, 2
1503694969439,7, -1, -2, -1, -6, -3, -1, -3
1503694969462,-3, -3, 1, 5, 9, 2, 0, 4
1503694969478,8, 17, 24, 1, -14, -3, 1, -2
1503694969500,-11, -8, -13, -9, -7, -5, -5, -6
1503694969522,4, -3, -3, 1, 6, 1, 3, 3
1503694969537,3, 24, 27, 12, 6, 2, -5, -6
1503694969559,-5, -10, -13, 2, 8, 2, 3, 5
1503694969582,1, -7, -7, -3, -3, -2, -3, 1
1503694969597,-3, -6, -7, -1, 3, -1, -6, -5
1503694969620,1, -4, -7, -3, -5, -3, -2, 1
1503694969642,-5, -12, -14, -4, -1, 0, 3, -2
1503694969665,-4, -10, -10, -2, 0, 0, -4, -3
1503694969680,-9, -2, 0, -1, -2, -2, -3, -5
1503694969702,0, -1, 3, 2, -1, 0, 0, 4
1503694969724,0, 4, 0, 0, -1, -1, -1, -1
1503694969739,8, 6, 9, 1, 2, -1, 3, 7
1503694969762,1, 9, 1, 0, 1, 1, -1, -6
1503694969769,5, 4, 6, 3, 0, 0, 3, 0
1503694969791,3, -1, 0, -1, 0, -1, -3, -1
1503694969816,-5, -4, -3, 0, 2, -1, -3, -3
1503694969829,-4, -5, 1, -5, -4, -2, 1, -5
1503694969851,-1, -1, -1, -1, 0, -3, -2, 1
1503694969874,0, 1, 0, 1, 5, -1, 0, 4
1503694969889,1, -5, -4, -3, -3, 0, 0, 1
1503694969913,-3, 1, -1, 0, -1, 0, 1, -1
1503694969934,2, 0, -1, 0, 0, -1, -1, 0
1503694969949,4, 4, 1, -1, -1, 2, 0, 4
1503694969987,-10, -6, -9, -4, 4, -1, -2, -1
1503694969994,3, 1, 3, -2, -9, 0, 3, -5
1503694970009,-5, -2, 1, -4, -9, -2, -2, -4
1503694970031,-2, 2, 4, 5, 6, 0, -3, -3
1503694970040,5, 3, 2, 0, -1, -2, -8, 1
1503694970062,-8, -3, 1, -4, -8, -3, 4, -1
1503694970085,-5, -2, 1, 3, 1, -1, -2, 2
1503694970100,3, 7, 10, 3, 2, 1, -3, 0
1503694970123,-1, -6, -8, -4, 0, -1, 1, -5
1503694970144,-1, -2, -4, -3, 0, -1, -3, 1
1503694970159,3, 1, -3, -3, 4, 0, -3, 4
1503694970182,-3, -5, -4, -6, -12, -4, 2, 2
1503694970204,-2, -3, -1, 1, 1, 0, 2, -1
1503694970219,9, 1, 1, -1, -2, 1, 3, 5
1503694970242,5, 6, 1, 2, 3, 2, 6, 4
1503694970264,-7, -8, -2, 6, 9, 1, -2, -6
1503694970279,5, 5, 3, -1, -3, 0, 0, 2
1503694970302,-1, -1, -4, -9, -12, -4, -2, -1
1503694970325,-2, -6, -4, -5, -3, -3, -3, -4
1503694970339,-1, -1, -3, 0, 3, 0, -2, 2
1503694970362,-1, -8, -7, -2, -3, -3, -3, -4
1503694970384,5, 11, 1, -2, -1, -1, 0, 1
1503694970393,-24, -25, -12, -3, -1, -4, 0, -4
1503694970417,4, 0, -3, 0, -7, -6, -4, -4
1503694970437,-1, 1, -1, -5, 1, -2, -2, 0
1503694970452,-3, -4, -3, -2, -3, 0, 1, -2
1503694970475,0, 0, 4, -6, -5, -1, -1, 1
1503694970497,-1, -7, -10, -1, 0, 0, -1, -1
1503694970512,-10, -7, -1, 11, 10, 0, -5, -3
1503694970535,7, 14, 11, 0, -9, -2, 1, 0
1503694970557,1, -8, -12, -3, 6, 3, 0, 0
1503694970572,-6, -7, -11, -8, -9, -5, -6, -6
1503694970595,-2, -3, 3, 5, 6, 0, -6, -4
1503694970619,6, 4, 1, 3, 2, 1, 0, 1
1503694970632,-5, 3, 7, -1, 0, 1, 0, 0
1503694970655,-6, -19, -14, -8, -5, -1, -1, 0
1503694970677,4, 10, 5, 5, 9, 1, -1, 3
1503694970692,-2, 1, -6, 1, 2, 0, 0, -1
1503694970707,-5, -22, -18, -4, 3, 0, 2, -2
1503694970722,2, -10, -8, -3, -2, 2, -1, 0
1503694970744,-3, -5, -4, -9, -18, -6, -6, -9
1503694970767,3, -1, -2, -11, -16, -6, -1, 3
1503694970782,-5, -9, -4, 2, 15, 3, 0, -3
1503694970804,6, 28, 17, 7, 5, 0, 4, 0
1503694970834,-6, -19, -12, -6, -2, 0, -1, -1
1503694970842,-3, -6, -7, 2, 7, 1, -3, 3
1503694970864,-2, -4, -1, 4, 14, 4, 1, 0
1503694970887,-4, 3, 6, -2, -4, -3, -2, -2
1503694970902,1, -6, -1, 16, 16, 4, 4, 7
1503694970926,-1, 2, -2, 1, -4, -5, -7, 1
1503694970947,-1, -10, -12, -3, -1, 2, 4, 2
1503694970962,-1, -10, -1, -2, -4, -4, -4, -15
1503694970984,2, 8, 4, 2, 0, 0, 1, 4
1503694971007,2, -1, 0, -5, -4, -1, -1, -2
1503694971022,-2, -2, 0, 0, -5, 1, 4, 4
1503694971044,0, 0, -2, -2, -8, -2, 4, 2
1503694971067,-1, -5, 1, -1, -1, -3, -6, 0
1503694971082,-2, -6, -9, -8, -3, -5, -5, -4
1503694971104,3, 8, 8, 1, 16, 2, -2, 0
1503694971127,-2, 4, 4, 0, -4, 0, -1, -3
1503694971149,-4, -11, -10, -2, -2, 1, -1, -1
1503694971164,4, -4, -4, 1, 3, 1, -1, 2
1503694971172,0, -8, -4, 1, 1, -1, 3, 2
1503694971195,0, 8, 16, -2, -4, -5, -4, -2
1503694971217,0, 9, 15, 3, 3, 1, 2, 0
1503694971232,0, -10, -10, -5, -3, 1, -1, 1
1503694971263,2, 1, -5, 1, 7, 0, -1, 0
1503694971284,6, 13, 23, 9, 4, 0, 1, 1
1503694971307,-2, -2, -10, -6, -5, -2, -4, -3
1503694971323,-4, -4, 0, -2, 3, -3, -4, 1
1503694971344,-5, -4, -5, -2, -5, -4, 4, 0
1503694971367,-1, -3, -2, 1, -2, 0, -6, -2
1503694971382,3, 4, -5, -4, -1, 1, 0, -1
1503694971404,0, 3, 15, 4, 0, 0, 1, 0
1503694971427,-1, -5, -8, 0, 1, 0, 0, 1
1503694971442,0, -6, -3, -3, 1, -1, 1, 1
1503694971465,1, -2, -1, 0, -1, -1, -1, -1
1503694971487,1, -5, -4, -1, -2, 1, 0, 1
1503694971509,-4, -3, -4, -1, -1, -2, 0, -3
1503694971525,-2, 0, -5, -2, -1, -3, -5, -4
1503694971547,0, 2, 1, -2, 1, 2, 1, 2
1503694971569,-5, -2, 3, 5, 3, 0, 2, 0
1503694971584,0, 0, -3, -6, -13, -4, -3, -3
1503694971607,-3, -1, 0, 2, 5, -1, -2, -5
1503694971629,-1, -2, -3, 0, 5, -2, -1, -1
1503694971637,2, 1, 2, 5, 5, -1, -1, 2
1503694971659,-8, -5, -4, 1, 10, -2, -5, -6
1503694971675,2, -1, 1, -1, 4, 1, 3, 3
1503694971698,3, 4, 3, 2, 1, -1, 2, 1
1503694971720,-3, 0, 1, 4, -2, -1, -3, -1
1503694971735,3, -1, 5, -4, 2, 1, 0, -6
1503694971759,-2, -1, -2, -3, -5, -3, 0, 1
1503694971779,2, 0, -3, 2, -4, 4, 2, 3
1503694971795,-2, 22, 27, 5, -4, -2, -2, 0
1503694971818,-4, -12, -15, -8, -5, -3, -2, 0
1503694971839,-4, -7, -7, -3, -3, -3, -1, -4
1503694971855,-1, -1, -1, 4, -2, 0, 3, 3
1503694971877,2, 28, 19, 5, -2, -1, 0, 1
1503694971884,-5, -2, -4, -9, -10, -2, -2, -4
1503694971907,-5, -5, -2, 0, 0, -3, -4, -1
1503694971930,-10, -3, -4, 0, -2, -6, -3, -6
1503694971944,4, 8, 9, 4, 2, -1, 4, 1
1503694971967,-3, 2, 2, 1, 3, 1, -1, 1
1503694971989,4, 4, 3, -1, -3, -1, -3, -1
1503694972004,0, -5, -1, -1, 1, 1, 3, -2
1503694972029,3, -2, 4, 0, -1, -2, -1, 2
1503694972049,3, -4, -4, 0, -1, 0, -3, 0
1503694972065,-1, -1, -2, -8, -5, -2, -1, 1
1503694972087,-4, 3, 0, -3, -6, -1, -3, -2
1503694972109,1, 5, 3, 1, 5, -1, -3, -3
1503694972124,-6, 10, 7, 1, -3, -1, -1, 1
1503694972147,-2, -8, -10, -1, 0, 1, 0, -1
1503694972169,2, -5, 0, 1, 0, -2, -1, 1
1503694972184,4, 4, 1, 1, 3, 2, 6, 3
1503694972207,-3, 5, 8, 3, 13, 0, 0, 0
1503694972230,2, -1, 4, 1, -2, -3, -2, -5
1503694972244,-4, -10, -12, -5, -7, -3, 1, -1
1503694972267,-3, 3, 2, -5, -16, -1, 1, 1
1503694972297,-2, -9, -10, -3, -4, -1, -2, 2
1503694972305,5, 5, 8, 7, 5, 2, 1, 2
1503694972320,-3, -9, -2, 0, 4, 0, -6, -7
1503694972335,3, 8, -2, -1, 1, 0, 3, 3
1503694972357,-1, -3, -3, 0, 1, 3, 0, 0
1503694972379,-1, 10, 28, 8, 4, -2, 0, 1
1503694972398,-8, -16, -15, -4, 4, 0, -3, -12
1503694972418,-7, -8, -5, 2, 2, -1, -1, -1
1503694972439,2, 12, 7, 3, 8, 0, 3, 4
1503694972464,3, 7, 0, -7, -19, -3, -5, -5
1503694972477,-1, -6, -8, -3, -4, -2, 4, 3
1503694972500,5, -4, -9, -4, -1, 1, 2, 6
1503694972522,6, 15, 13, 3, 1, -2, 3, 0
1503694972538,-8, -22, -17, -6, -1, -1, -4, -4
1503694972559,3, 4, -1, -1, 3, 0, -4, -3
1503694972582,-1, -4, -7, -2, 2, -1, -4, -2
1503694972600,5, 0, 0, -5, -2, -1, 5, 14
1503694972619,13, 5, 8, 4, -2, -2, 1, 17
1503694972642,-13, -7, -3, -4, -1, -3, -7, -30
1503694972657,-1, 6, 4, 2, 4, 1, 2, 11
1503694972679,-15, 13, 6, -1, -4, -5, -6, -13
1503694972702,-2, -9, -5, 0, -1, -1, -1, -1
1503694972717,-1, -5, 5, 2, -2, -2, 2, -1
1503694972739,3, -15, -14, -6, -3, 2, 7, 5
1503694972762,4, 13, 6, 1, -2, -2, -4, -12
1503694972777,-25, -20, -9, -2, 0, 0, -2, -20
1503694972801,7, -17, -3, -5, -2, -2, -9, -2
1503694972822,-2, 24, 18, 6, 1, 2, 1, 35
1503694972838,-9, -15, -21, -3, -1, -1, -10, -10
1503694972859,-7, -5, -10, -5, -5, 1, 11, 4
1503694972868,-5, -13, -2, -1, -1, -1, 0, -22
1503694972889,-6, -7, -6, -5, -4, -3, 1, 7
1503694972911,6, 11, 5, 2, 3, 3, 6, -9
1503694972927,-20, -2, -6, -3, -1, 0, -5, -30
1503694972949,1, 8, 1, 1, 2, 0, 2, 8
1503694972973,0, 7, 7, 2, 3, 1, -10, -29
1503694972981,-11, 11, 26, 7, 3, 1, 2, -5
1503694973002,-5, -16, -17, -6, -4, -7, -11, -20
1503694973010,5, 10, 12, 5, 0, 0, -4, 13
1503694973031,-6, -7, -10, -4, -1, -4, -10, -22
1503694973047,-2, 16, 14, 4, -2, -3, -1, 3
1503694973069,15, 0, 1, 1, 2, 3, 3, 10
1503694973078,7, 29, 26, 5, 0, 0, -9, -10
1503694973102,-4, -2, -2, -8, -6, -2, -2, -6
1503694973122,6, -7, -10, 2, 0, 1, -4, -22
1503694973137,7, 8, 4, 1, -1, -4, -1, -5
1503694973159,-5, -1, 2, -2, -1, -3, -8, -9
1503694973182,0, -4, -7, -12, -9, 0, 3, 11
1503694973197,2, 0, -3, 1, 0, -3, -7, -14
1503694973219,9, -14, -14, -5, -1, -2, -2, 35
1503694973242,-16, -7, -4, -2, -3, -4, -7, -6
1503694973257,3, 11, 3, 2, -3, -4, 0, 1
1503694973280,10, -6, -5, 1, 3, 2, -2, -6
1503694973304,2, -2, 0, 3, -2, 3, 6, 2
1503694973317,-8, 3, 5, 4, 3, 3, 3, -4
1503694973347,-3, 1, 0, -2, 2, -1, 0, 2
1503694973362,8, -9, -9, -3, -1, 1, 2, 7
1503694973384,-19, -9, 0, -1, -4, -5, -4, 10
1503694973399,1, 1, -2, -1, -1, 1, -5, -25
1503694973422,-24, 9, 12, 0, -1, -2, -2, 8
1503694973444,1, -1, -9, -4, -3, 1, 7, 31
1503694973459,7, 6, -3, -5, -3, -2, -3, -15
1503694973482,-3, -5, -2, -1, 3, -1, -7, -10
1503694973505,1, -9, -6, -1, -3, -2, -4, -4
1503694973520,-10, 15, 6, 5, 1, 2, 1, -33
1503694973542,-16, -40, -23, -7, -6, -6, -3, -6
1503694973565,1, -4, -1, 1, 1, 1, 2, 7
1503694973580,-4, 5, 8, 3, 6, -1, -3, -1
1503694973594,9, 4, 4, 7, 14, 5, 12, 14
1503694973609,-9, 2, 11, -1, -4, -3, -7, -8
1503694973640,4, -3, -2, -2, -4, 0, -3, -23
1503694973662,-8, 11, 5, -6, -8, -1, 0, -16
1503694973684,-4, -4, -5, 1, 0, 0, 5, -8
1503694973700,10, 1, -3, 1, 8, -1, -1, -2
1503694973722,-1, 8, 9, 0, 0, -2, -3, -12
1503694973744,28, -3, -3, 2, 1, 2, -1, 6
1503694973760,-9, -7, -4, -1, -4, -3, -1, -1
1503694973782,1, -3, -2, -1, -3, 0, 1, 4
1503694973804,-4, -4, 5, -2, -9, 0, -1, -7
1503694973820,-3, 8, 3, 2, 2, -2, -1, -5
1503694973842,3, 9, 10, -5, -1, 2, -1, 17
1503694973864,-1, 7, -1, 1, 1, -1, -1, -5
1503694973880,-5, -20, -8, -1, -2, -5, 0, 0
1503694973902,14, 6, 2, 0, 2, 1, -5, -10
1503694973924,-2, -1, -1, -2, -3, 0, 3, 6
1503694973943,12, 9, 5, -1, -1, -3, -4, 1
1503694973962,-16, -2, -15, -3, 0, -1, 2, -8
1503694973984,-2, -5, 3, 3, -2, -1, 1, 2
1503694974000,1, 0, -2, -2, 0, -1, -5, 10
1503694974022,-4, -2, -3, -1, 2, 0, 0, -11
1503694974044,0, -3, -3, 0, -2, -1, 0, 4
1503694974052,-6, -3, 3, -2, -4, -3, -10, -8
1503694974076,8, -3, -7, 0, 0, 0, 0, 2
1503694974089,-13, -10, -8, -4, -1, -2, -1, -1
1503694974112,7, 20, 14, 2, -1, 0, 2, 0
1503694974134,0, -15, -4, -3, -3, -3, -3, -4
1503694974149,-8, 4, 7, 3, 2, 4, 3, -3
1503694974172,-5, 0, -1, -3, 0, -1, 1, -10
1503694974193,19, 4, 2, 6, 1, 0, 3, 11
1503694974210,7, 2, 6, 0, -1, -3, -1, 6
1503694974232,-3, -13, -12, -9, -2, -4, -6, -3
1503694974254,-3, -2, -11, -12, -3, 1, 4, 10
1503694974278,-12, 7, 0, 3, 0, 0, 2, -2
1503694974293,-10, -17, -9, -3, -2, -2, 3, -2
1503694974314,-3, -6, -3, 2, -2, -4, -10, -14
1503694974336,-4, 0, 0, 2, 1, 3, 6, 4
1503694974352,-15, -3, 0, 2, 0, -1, -6, -10
1503694974373,-1, 1, 7, 4, 1, 2, 3, -1
1503694974396,-3, 7, 0, 0, 3, 1, 1, 4
1503694974412,3, 11, 7, 7, 4, 3, 1, -6
1503694974433,-10, -22, -17, -3, -4, -2, -1, 1
1503694974456,12, -1, -3, -5, -5, -4, 0, 25
1503694974472,9, -8, -12, -5, -4, 0, -5, -8
1503694974493,2, 8, 0, -3, -4, -2, 5, 8
1503694974516,1, 0, 3, -1, 1, -3, -3, 3
1503694974532,3, 6, 4, 0, -3, 2, -1, -11
1503694974554,-12, -16, -9, -2, 0, -3, -1, -16
1503694974576,-1, 3, 2, 5, 1, 1, 1, 1
1503694974592,-7, 1, -4, -4, 1, -1, 0, 1
1503694974614,4, 19, 11, 0, -4, -3, -4, -3
1503694974636,4, -14, -4, -4, 0, -2, -8, -3
1503694974652,5, 0, -8, 1, 0, 0, 1, -2
1503694974673,-5, -1, 6, 0, 1, 1, 1, -1
1503694974696,20, 19, 17, 2, -4, -2, -9, -5
1503694974713,-19, 4, -9, -1, -1, -2, -3, 1
1503694974733,0, -22, -17, -7, -3, -1, -3, -3
1503694974756,-6, -26, -16, 1, 3, 0, 4, 7
1503694974772,3, 2, 5, -2, -3, -1, 2, 7
1503694974793,-8, 3, 3, 2, 1, 1, 4, 1
1503694974816,16, 7, 8, 11, 5, 1, 2, 9
1503694974832,4, 23, 24, 2, -3, -1, 4, -6
1503694974848,10, 6, 0, -3, -3, -2, -1, -4
1503694974862,-4, -11, -9, -4, -3, 0, -2, 2
1503694974885,0, 1, 1, 1, 1, -1, 0, 6
1503694974907,-1, 2, 0, -6, 0, 0, 0, 3
1503694974922,-15, -8, -4, -6, -6, -4, -6, -7
1503694974944,8, 6, 5, 8, 17, 5, 0, -1
1503694974967,-9, -8, -12, -5, -2, -1, -4, -8
1503694974982,-4, 10, 12, 0, -8, -1, 2, -1
1503694975004,12, 10, 5, 1, -4, -1, 3, 5
1503694975027,11, -7, -6, -5, -3, 1, 2, 4
1503694975042,-7, -5, -9, 4, 2, -1, -5, -10
1503694975064,-5, -5, 2, 7, 3, -1, -2, -2
1503694975094,3, -2, -1, -3, -14, -4, -2, -5
1503694975109,-4, 12, 10, -4, -2, -1, -3, -3
1503694975125,10, 0, -8, -4, 0, -3, 1, 5
1503694975147,1, -7, 0, -3, -5, 1, 1, 1
1503694975162,-6, 3, 3, 2, 3, -2, -3, -7
1503694975185,8, 9, 3, 1, 3, 2, -2, 1
1503694975207,-3, -4, 0, -1, -4, 0, 2, 1
1503694975229,-4, -9, -7, -5, -3, -2, 0, 4
1503694975244,-7, -8, -5, -3, -8, -5, -2, -2
1503694975267,-4, -3, -3, -2, 0, 0, -1, -2
1503694975290,-1, 2, 1, 4, 4, 0, -1, -2
1503694975304,-1, 0, -2, -2, 1, -1, -1, 2
1503694975330,-3, 0, 1, 1, 2, 0, 1, 0
1503694975352,-3, -3, -2, 1, 1, -1, 0, 0
1503694975364,-2, -4, -3, -2, -5, 1, -1, 0
1503694975387,1, 1, 2, 1, 3, 0, 2, 0
1503694975409,-1, -2, -3, -2, -4, -2, -1, 0
1503694975432,-1, -4, -2, -1, 1, -3, -3, 0
1503694975447,-1, -2, -1, -6, -10, -4, -3, 0
1503694975469,-1, -1, -1, -1, 8, 0, -1, -3
1503694975486,-3, -3, -1, -3, -2, 0, -2, 1
1503694975507,-1, 2, 2, -3, -5, -2, 1, -2
1503694975529,0, -1, -1, 0, 2, 0, 0, 0
1503694975544,1, 2, 5, 2, 3, 0, -1, 0
1503694975567,0, -2, -2, -1, -1, 2, -1, -2
1503694975589,-1, 9, 18, 5, 2, -1, -4, -4
1503694975604,-1, -5, -11, -3, 0, -2, 1, -5
1503694975628,4, 0, -3, 0, 1, -1, -4, -1
1503694975649,0, -3, -2, 1, 3, 2, 1, 5
1503694975664,0, 30, 15, -2, -5, -1, 1, -2
1503694975687,0, -11, -8, 0, -1, -1, 1, 0
1503694975709,1, 7, 3, 12, 14, 4, 5, 5
1503694975724,-2, -8, -5, -6, -11, -2, -3, 1
1503694975747,0, -10, -8, -6, -2, 2, 3, 2
1503694975769,-4, -3, -14, -6, -5, -5, -5, -2
1503694975784,-3, -7, -3, -6, -9, -4, 1, -4
1503694975807,-1, -2, -2, -1, -5, -3, -3, 0
1503694975831,-2, -12, -6, -2, 0, -1, -1, -1
1503694975844,1, -1, 0, 2, 3, 0, 0, -1
1503694975867,-2, 7, 9, 4, 2, 0, -1, -5
1503694975889,-4, -2, -4, -8, -6, -3, -2, 0
1503694975904,0, 0, 1, -2, -3, 0, 2, 0
1503694975928,-1, 0, 6, 1, 2, -2, -4, 1
1503694975949,3, 31, 19, 7, 4, 2, -5, 1
1503694975964,-4, -19, -11, -2, 1, -2, -1, -2
1503694975989,-2, -1, -3, 1, 0, 0, -1, -4
1503694976017,0, 5, 2, 3, 1, 2, 2, 1
1503694976040,-2, -7, -3, -6, -6, -5, -3, -1
1503694976062,2, 4, 4, 1, 1, 2, 0, 0
1503694976077,-2, -2, -3, -1, -4, -3, -3, -5
1503694976100,0, -1, -2, -1, -4, 0, 0, 1
1503694976124,0, -3, -1, -1, 1, 0, -1, -1
1503694976137,-1, 5, 3, 1, 3, -4, -5, -1
1503694976160,-4, -7, -2, -3, -3, -1, 2, -1
1503694976182,1, -6, -9, 2, 8, 2, 0, 2
1503694976197,0, 1, 5, 4, 7, 1, 0, -3
1503694976220,0, 17, 14, -1, -8, 1, 0, -2
1503694976242,-2, -9, -7, 2, 3, -2, -1, 0
1503694976259,0, 2, 0, -10, -7, -5, -4, -3
1503694976281,-1, -1, -4, -3, -1, 1, 3, 1
1503694976302,-1, -6, -1, -1, -5, -1, -2, -2
1503694976317,-1, -3, -3, 0, 0, -3, 0, -1
1503694976340,-1, -5, -4, 2, 2, 3, -1, 1
1503694976362,-1, -3, -2, 1, -2, 1, 3, -1
1503694976378,0, 2, 1, -3, 0, -2, -1, 1
1503694976400,4, 11, 8, 2, -1, -2, -3, -1
1503694976422,-2, 1, -1, -3, -3, -2, -1, -2
1503694976437,2, -9, -9, -5, 1, -2, -4, 1
1503694976460,-3, -13, -8, 0, -3, -3, -1, -2
1503694976482,0, 1, 0, -3, 0, -1, -2, -2
1503694976498,-3, -1, -3, -2, -3, 2, 3, 2
1503694976520,-1, 6, 7, 2, 2, -1, -1, -2
1503694976542,-6, 0, 2, -2, -1, 3, 0, -3
1503694976558,1, 1, 0, 6, 7, 1, 2, 1
1503694976579,-3, -2, 0, -6, -4, -2, -1, -4
1503694976587,0, 4, 2, 1, 0, 0, 0, 0
1503694976609,0, 0, 2, 0, -2, -2, -3, -1
1503694976632,-1, -4, -1, 4, 8, 1, -1, -1
1503694976646,-1, 2, 0, 0, 2, 0, -1, 1
1503694976669,0, -4, -3, 7, 2, 0, 1, -1
1503694976694,-1, -4, -4, -3, -3, -2, 1, -1
1503694976707,0, -4, -6, -7, -7, -4, -2, -2
1503694976729,-1, 1, -3, 0, 0, -2, -4, -1
1503694976737,0, -5, -3, -1, 8, 1, 0, -2
1503694976761,0, 1, -5, -4, -5, 0, -4, -4
1503694976781,-4, -2, -2, -4, -4, -3, -2, -1
1503694976789,-2, -3, -1, -4, -6, -1, -2, -3
1503694976812,0, 3, 2, 0, 1, -2, 2, 3
1503694976828,2, 1, 0, -1, -3, 0, -5, 0
1503694976849,1, -2, -2, 1, 3, 0, 0, -1
1503694976872,-2, -2, -4, -3, 2, -2, -2, -3
1503694976895,-1, 9, 9, 0, -2, -1, -2, 1
1503694976909,1, -5, -5, -1, -4, 1, 2, 1
1503694976932,-3, 1, 0, 2, 0, 1, 0, 1
1503694976946,-3, -1, -1, -2, -4, -3, -1, 0
1503694976964,-2, -6, -3, -8, -5, -1, 0, -3
1503694976977,1, 0, -4, -1, -1, -1, -2, 1
1503694977000,-1, -1, -2, -1, 2, -3, -4, 0
1503694977022,-3, -3, -3, -5, -8, -3, 0, -3
1503694977038,-1, -3, -5, -8, -7, -1, -2, 0
1503694977060,-2, -2, 4, 6, 5, 2, -2, -1
1503694977081,-1, 3, 5, 10, 13, 3, 1, -1
1503694977105,1, -3, -5, 3, 0, 1, 1, -1
1503694977120,0, 1, -3, -6, -5, -3, 2, -1
1503694977142,0, -1, 1, -3, -1, 1, 1, 1
1503694977165,0, 3, 1, -1, -1, -1, -2, 1
1503694977180,-1, 1, -1, 1, 6, 1, 0, -3
1503694977202,-1, -5, -3, -4, -3, -3, -6, -1
1503694977224,-1, -3, -1, -8, -10, -3, -2, -2
1503694977240,2, 0, 0, 1, -1, -1, 0, 0
1503694977264,-1, 2, 3, -1, 1, -1, 0, 0
1503694977284,0, -3, -1, -1, -1, 1, -1, 0
1503694977300,0, -3, -1, -1, -3, -3, 1, -2
1503694977322,-1, -2, -2, 2, 7, 2, 0, -1
1503694977344,-1, 1, -2, -3, -5, -1, -1, 0
1503694977359,-1, 1, -1, -2, -1, -2, -3, -1
1503694977382,-2, -3, -3, -2, 0, 1, -1, 0
1503694977404,-1, 1, 1, -1, -2, -1, 0, -2
1503694977420,0, 2, 2, 6, 16, 1, 0, 0
1503694977442,-1, -2, -1, 0, -5, -3, 0, -3
1503694977465,-2, 2, -1, 1, -4, 1, 2, 1
1503694977480,2, -2, -1, 8, 3, -1, -2, -4
1503694977502,-3, 0, 0, -3, -6, 0, -1, 0
1503694977524,1, 7, 7, -3, -8, -2, -1, 2
1503694977539,-2, -4, -5, 1, -1, 0, -3, -7
1503694977554,-2, -4, -3, -4, -1, 1, 3, 0
1503694977569,-2, 1, -3, 1, 4, -1, -1, 1
1503694977591,-2, 3, 4, -2, -2, -1, -2, -3
1503694977614,-3, -1, -1, -1, 2, -1, -2, -2
1503694977629,1, -2, -2, 3, -1, -1, 2, 0
1503694977658,0, 1, 0, 1, -2, 0, 0, 3
1503694977674,-1, -8, -4, -2, -4, -1, -3, 1
1503694977689,0, -2, -7, -3, -3, 1, 4, 1
1503694977711,-3, -3, -9, -3, -2, -3, 0, 1
1503694977720,-2, -3, -6, -2, -1, 0, 0, 1
1503694977742,-1, 10, 0, 2, 2, -3, -1, 1
1503694977764,1, -3, 0, -3, -6, 0, -2, -3
1503694977780,1, 4, 4, -1, -1, -1, 3, 3
1503694977803,-3, -10, -7, 4, 4, 0, -1, -2
1503694977824,-2, 3, 14, -3, -5, -3, -1, -3
1503694977840,3, 9, 6, 3, -2, 0, -2, -2
1503694977862,-1, 2, 2, 5, 12, 3, -3, -1
1503694977884,1, 5, 1, 5, 5, -2, 1, 1
1503694977892,1, 2, -4, -4, -7, -2, 0, 1
1503694977914,-4, -4, -2, 2, 0, 0, -1, -5
1503694977929,4, 7, 13, 0, -1, -1, 0, 3
1503694977951,-1, -23, -17, -5, -1, -2, -4, -3
1503694977974,1, -3, -2, 1, -3, -1, 1, 1
1503694977989,-3, -3, -6, -3, -1, -2, -1, 0
1503694978012,-5, 2, -1, -4, -9, -2, -1, -4
1503694978035,-1, -1, 0, -2, 2, 0, 0, -3
1503694978056,-1, 5, 1, 0, -3, -2, -1, -2
1503694978072,3, -2, 0, -1, 0, 1, -1, 0
1503694978094,-4, -3, -6, 5, 7, 0, -2, 1
1503694978116,0, -1, 3, -1, -1, 1, 2, 1
1503694978132,-2, -3, -3, -7, -9, -2, -2, -5
1503694978147,-2, -2, -1, 0, 2, 2, -1, -1
1503694978162,-3, 9, 4, 0, 2, -2, -1, 0
1503694978184,2, 0, 3, 10, 12, 5, -2, -2
1503694978207,-2, -1, -4, -5, 4, -2, -1, 0
1503694978222,-1, -3, -3, 0, -2, -2, -2, -3
1503694978244,1, -1, -1, 0, 0, 0, 0, 1
1503694978252,1, 1, -1, 0, 9, 2, 1, -1
1503694978274,-5, -4, -3, -3, -11, 0, 1, -3
1503694978296,2, 5, 1, 2, 3, -2, -4, -2
1503694978312,-3, 0, -1, -1, -6, -1, 1, 3
1503694978334,0, 2, 1, -1, -7, -4, 0, -1
1503694978356,1, 0, -3, -4, -4, -2, -5, -2
1503694978372,0, 0, 2, 5, 9, 2, -1, 5
1503694978387,-3, -2, -1, 0, -5, -1, -2, -1
1503694978402,-1, -7, -4, 4, -1, 0, -1, 1
1503694978424,0, -1, 0, -2, 0, -1, -2, 0
1503694978448,-1, -2, 1, 6, 13, 4, 1, -2
1503694978462,-1, -4, -5, -1, 4, -1, 1, 1
1503694978484,-2, 3, 4, -3, -4, 0, 3, 3
1503694978507,-4, -21, -14, -6, -8, -6, -3, -6
1503694978522,-5, -7, -5, -2, 0, -1, -1, 1
1503694978544,-4, 5, -1, -4, -7, -3, -2, -4
1503694978566,-10, -1, -3, -2, 2, -1, -4, -3
1503694978582,5, 19, 14, 1, 4, -2, -3, -3
1503694978604,-1, 1, 4, -2, -2, 0, -2, -9
1503694978626,2, -6, 3, 0, -6, 1, 3, 0
1503694978642,-2, -3, -6, 3, 2, -3, 1, 0
1503694978664,0, -3, -1, 1, 1, -1, -2, -14
1503694978686,5, 3, -4, -2, -1, -2, 2, -2
1503694978702,10, 41, 24, 7, 4, -1, -1, 6
1503694978724,-5, -17, -15, -12, -12, -5, 0, 8
1503694978747,-5, -10, -6, 1, 7, 1, 1, 1
1503694978762,-4, -2, -2, 1, 3, 1, -3, -1
1503694978784,0, 1, 0, -1, -3, 0, 0, 4
1503694978809,-4, -11, -6, -1, 9, 2, 1, -1
1503694978822,-1, -2, -4, 0, 0, 0, -5, -9
1503694978844,-1, -14, -12, -5, -3, -1, 1, 15
1503694978852,-1, -3, -3, 5, 8, 1, -1, -3
1503694978876,-2, 1, 0, -3, 0, 1, -1, 5
1503694978896,5, 15, 12, 7, 10, 2, 0, -3
1503694978911,-1, -10, -6, -2, -5, -4, -6, -2
1503694978933,1, -3, 4, 4, 3, 0, -2, -5
1503694978956,2, 3, 5, 2, 2, -3, 1, 3
1503694978979,0, -9, -13, -5, 1, 2, 5, 0
1503694978994,-2, 2, -8, -5, -7, -2, -3, -1
1503694979016,3, -7, -2, -3, 0, -2, -2, -4
1503694979038,1, -8, -10, 1, 5, 1, 0, -4
1503694979054,-3, -6, -2, -2, -5, 0, 0, 1
1503694979077,0, 9, -1, 7, 14, 0, -5, -6
1503694979098,-2, -13, -6, -3, 8, 0, 0, 1
1503694979114,0, 1, 4, 0, -4, 0, -3, -4
1503694979136,1, 3, -2, -5, -8, -3, -1, 6
1503694979159,-2, 6, 6, -2, -4, -1, 3, -1
1503694979174,-4, -8, 0, -8, -14, -3, -1, -1
1503694979196,3, 12, 7, 11, 12, 1, 2, 7
1503694979220,-1, 4, 13, 2, 0, 2, -2, -1
1503694979234,4, 19, 6, 5, 3, 0, 1, -2
1503694979249,-7, 8, 9, 3, -2, 1, 0, -4
1503694979264,-2, -5, -5, -4, -6, -5, -3, -1
1503694979287,-1, -1, 2, 5, 7, 1, 1, 7
1503694979309,2, 15, 7, -4, -11, -3, -2, -2
1503694979326,-2, -11, -8, -1, 8, 0, -1, -4
1503694979347,-2, -15, -12, -7, -9, -1, -1, -5
1503694979369,3, 14, 7, 7, 0, -3, -2, -5
1503694979384,-4, 10, 4, -2, 11, 0, 0, -1
1503694979406,-2, -16, -14, 0, -3, 0, 1, 1
1503694979429,2, -5, -3, 1, 7, 0, -1, 2
1503694979445,-9, -6, -1, -4, -8, -3, -4, -8
1503694979466,-1, -3, -3, -2, -15, -4, -4, -2
1503694979489,-3, 40, 41, 8, -10, -6, -2, -2
1503694979504,0, -8, -9, -2, -12, 0, -1, -1
1503694979527,1, -3, -6, -7, -2, -1, -1, 1
1503694979549,7, 14, 13, 7, 5, 2, 2, 6
1503694979564,6, -9, -1, -3, -6, -1, -3, -1
1503694979587,-6, -4, 0, -2, 0, -1, 5, 1
1503694979610,7, -1, -7, -2, 5, -1, -4, -10
1503694979624,-7, -5, -4, 6, 11, 1, -4, -2
1503694979648,-3, -5, -6, -15, -19, -7, 1, 0
1503694979669,0, -10, -7, 4, 12, 4, -2, 4
1503694979684,-2, -11, -17, -3, -3, -2, -5, -1
1503694979706,4, -12, -15, -3, -1, 1, 0, 2
1503694979729,1, -4, 2, 1, 5, 3, 2, 0
1503694979744,-1, 1, 12, 0, -5, 0, 7, 5
1503694979766,1, 15, 1, -1, 1, 0, 1, 1
1503694979789,-9, -10, -2, 2, 0, -8, -3, -3
1503694979804,0, 1, 1, -1, -1, 1, -1, -2
1503694979826,5, 1, 1, -7, -7, 0, -3, 1
1503694979849,6, 2, -2, -2, -2, -1, -2, -3
1503694979872,6, 37, 26, 13, 9, 3, 4, 1
1503694979887,-2, -19, -14, 1, 14, 4, 0, 0
1503694979909,-16, -22, -20, -8, -5, -4, -6, -16
1503694979932,-5, 14, 14, 1, -5, -1, -5, -5
1503694979954,-10, -2, 0, 2, -3, -4, -5, -7
1503694979969,-6, 0, -3, -3, -4, 3, 3, 4
1503694979993,5, 12, -12, -5, -2, -2, -3, 0
1503694980007,1, -16, -7, -2, -1, -2, 2, 1
1503694980029,-2, 9, 8, 4, 8, -1, -3, -4
1503694980036,9, 7, 17, 6, 0, 1, 1, 6
1503694980060,-3, 5, -3, -5, -5, -1, -1, -1
1503694980085,-6, -24, -17, -5, -3, -1, 0, -4
1503694980097,-7, -10, -7, -2, 18, 3, 1, -3
1503694980120,2, 1, -1, -7, 1, -6, 1, -1
1503694980142,9, 23, 12, 4, 1, 1, 1, 5
1503694980164,-6, -9, -2, -1, 11, 1, -3, -3
1503694980179,1, -5, -9, -5, -14, -6, -7, -2
1503694980202,-5, 2, 6, 1, -15, -1, 2, 0
1503694980224,-4, -6, -4, -2, -18, -2, -2, 0
1503694980246,1, -13, -10, -2, -4, -2, 2, 0
1503694980262,-1, 33, 26, 6, 8, 3, 0, 1
1503694980286,-2, -25, -21, -5, 1, -1, -1, -3
1503694980300,-15, -1, 2, 1, 3, -1, -7, -18
1503694980322,11, 18, -5, -2, 0, -2, -3, -3
1503694980345,1, -9, 1, 1, 1, -2, -1, 1
1503694980360,19, -2, -1, -2, -2, 0, -8, 30
1503694980382,-8, -3, -1, 3, -3, -1, -1, -11
1503694980405,-7, -5, 2, 1, 9, 0, 3, -12
1503694980421,13, 44, 28, 6, -3, 0, 3, -2
1503694980443,-9, -29, -19, -10, -7, -2, -1, -9
1503694980465,-10, -9, -9, 1, -1, -4, -7, -22
1503694980480,-1, -9, -4, -2, -2, -4, -4, -14
1503694980502,10, 4, -2, -4, 7, 3, 9, 23
1503694980526,-9, 16, 9, 2, -2, 2, 5, 7
1503694980540,-21, -9, -13, -4, -4, -2, -4, -11
1503694980562,-32, -32, -25, -8, -4, -4, -3, 3
1503694980584,5, -12, -4, -6, 2, 0, 1, 14
1503694980600,9, 11, -4, -3, -4, 1, 0, 3
1503694980623,0, 3, 2, -1, -5, 1, 3, 12
1503694980645,11, 2, 14, 10, 9, -2, -6, 4
1503694980659,3, 11, 9, -1, 0, 1, 1, 0
1503694980666,-5, -6, -3, 2, 3, 1, -2, -10
1503694980689,5, 4, 4, 1, -5, 3, 3, -9
1503694980711,-9, -5, -6, 4, 2, 1, -4, -24
1503694980727,-11, 0, 2, 5, 10, 0, -2, -10
1503694980749,-11, 4, 4, 1, -6, -1, 0, -4
1503694980771,-8, -13, -8, -7, -11, -2, 4, 19
1503694980790,20, 6, 4, 0, -5, 0, 0, 3
1503694980809,4, 8, 11, 4, 2, 1, -5, -7
1503694980832,0, 1, -2, -4, -8, -7, -7, -4
1503694980861,6, -6, -5, 2, 1, -1, 4, 5
1503694980870,8, 3, 7, 2, 3, 1, 8, 3
1503694980892,-9, -5, -10, -3, -7, -5, -11, -13
1503694980914,2, 2, -2, -5, -2, 0, 2, 3
1503694980929,28, 5, -2, -1, -2, 1, 7, 78
1503694980951,-9, -11, -5, -1, 4, -1, -11, -22
1503694980974,12, 12, 9, -3, -5, 0, 6, 18
1503694980991,-37, 11, 11, -5, -8, -9, -24, -74
1503694981011,5, -1, -2, 0, 1, 4, 14, 14
1503694981034,1, 1, -3, 0, 2, 1, 5, 2
1503694981049,-8, -19, -11, 0, 2, 3, 5, 14
1503694981071,11, 1, -9, -4, -2, 0, 2, 15
1503694981095,-13, -14, -10, 0, -1, -2, -3, -18
1503694981109,-20, -1, -1, -3, 0, -1, -4, -34
1503694981132,5, -15, -5, -2, -3, -1, -9, -8
1503694981154,-5, 8, 8, 1, -1, -5, -10, -25
1503694981177,18, -7, -6, -1, -2, 0, -1, 13
1503694981192,-10, 5, 8, 1, -2, 2, 20, 17
1503694981214,-5, -2, -3, -3, -1, -3, -9, 10
1503694981230,1, 2, 2, 2, 2, 1, 4, 7
1503694981251,-4, -5, -6, 0, 1, -1, -7, -23
1503694981274,0, 17, 5, -4, -1, -3, -4, -41
1503694981289,8, -2, -6, -3, -1, -2, 3, 17
1503694981311,2, 9, 10, 1, 1, 3, 0, 11
1503694981335,-12, -9, -6, 4, 2, -2, 1, 9
1503694981349,0, -1, -2, -1, -1, -3, -1, 6
1503694981371,-21, -15, -7, -2, -3, -2, 2, -8
1503694981380,10, -17, -17, -6, -3, 0, 4, 44
1503694981402,-10, -6, -15, -1, -1, 0, -4, -15
1503694981426,0, 14, 7, 3, 0, -3, 4, -40
1503694981439,-6, -5, -7, -1, 1, 1, 3, 5
1503694981454,11, 20, 17, 3, 0, -1, -3, -1
1503694981470,4, -6, -5, -3, -3, -1, -7, -11
1503694981494,-1, 1, -3, -2, -4, -2, -1, 25
1503694981514,-20, -24, -11, -4, 0, -3, 1, -10
1503694981531,4, -2, 3, -1, -2, 1, 6, 36
1503694981551,4, 5, 3, 1, 2, 1, 8, 11
1503694981574,21, 15, 4, 5, 2, 3, 0, 10
1503694981589,-10, -4, 9, 3, 0, 0, -5, 10
1503694981611,-11, -9, -11, -6, -2, -1, -3, -22
1503694981634,7, 13, 11, 2, 1, 2, 2, -8
1503694981649,-2, 0, 4, 3, 0, -2, -5, 1
1503694981672,-5, -17, -19, -7, -4, -6, 3, -24
1503694981696,-13, 2, 3, -1, -2, -1, -8, -20
1503694981709,15, 1, 1, 1, -1, -2, -5, 2
1503694981732,14, 0, 0, 1, 3, 2, 4, 4
1503694981754,-14, -8, -6, -1, -5, -6, -5, -7
1503694981776,-4, -5, 0, -4, -1, -3, -10, -22
1503694981791,-4, 5, 5, 2, -1, 0, -1, 2
1503694981814,-1, 8, 6, 3, 1, 0, 3, 4
1503694981837,3, 7, 7, 5, 1, 0, 0, 3
1503694981851,6, 1, 2, 1, -1, 3, 5, 2
1503694981874,17, -9, -19, -4, -1, -1, -1, 16
1503694981899,-1, -13, -12, -6, 0, -2, 2, 10
1503694981911,-2, 14, 14, 1, -1, 0, 3, -7
1503694981935,7, -2, -3, 3, 0, 0, -7, -10
1503694981957,-2, -13, -8, -6, -3, -2, -1, 5
1503694981972,-8, -6, -6, 2, -2, -4, -1, 21
1503694981994,-18, -27, -11, -5, -1, 1, -6, -31
1503694982005,0, -3, -5, 1, -3, -1, -3, 6
1503694982024,-19, -12, -3, 0, 0, 0, -4, -11
1503694982046,23, 21, 22, 5, 6, 0, 4, 18
1503694982063,-12, -43, -25, -19, -7, -1, -5, -6
1503694982084,2, -7, -5, 3, 1, 0, -1, -7
1503694982092,7, -6, -14, -8, -6, -2, 0, 0
1503694982107,12, 8, -1, -1, -1, 0, 1, 7
1503694982122,-15, -33, -28, -6, -3, -3, 10, 15
1503694982137,-12, 9, 14, 4, 1, -2, -8, -14
1503694982151,13, 3, -2, -3, -2, -2, -3, 2
1503694982174,-13, 2, 11, 6, 1, 1, 8, 12
1503694982199,26, -4, -8, -5, 1, 2, 4, 23
1503694982211,-4, -8, -11, -2, -3, -3, -6, -1
1503694982234,3, 2, -2, 0, 0, 1, -2, -12
1503694982256,-13, -16, -12, -4, -1, -5, -6, -11
1503694982272,6, -4, -6, 0, 0, 0, 4, 0
1503694982294,-2, 13, 12, 0, -1, 0, -1, -10
1503694982323,-3, 5, 3, 1, 2, 3, -2, -6
1503694982333,-7, 0, -1, -3, -6, -5, 0, 6
1503694982354,0, -2, -6, -8, -7, -3, 1, 14
1503694982376,-22, -16, -7, -3, 0, -1, -1, -11
1503694982392,-8, -6, -8, -5, 0, -1, -1, -1
1503694982414,5, 2, 4, 1, 1, 3, -6, -4
1503694982437,9, 8, 7, 5, 1, 0, 1, 0
1503694982451,13, -16, -5, -2, -3, -1, 6, 10
1503694982474,20, 34, 12, 2, 3, -2, -4, -14
1503694982496,-17, -25, -14, -2, -4, -4, -4, -8
1503694982511,28, 27, 17, 2, 2, 2, 3, 18
1503694982535,6, 0, 2, 1, 0, 1, 6, 5
1503694982542,-22, 9, 5, -3, -1, 0, -3, -22
1503694982564,14, 31, 19, 8, 1, 1, -4, -4
1503694982586,7, -13, -6, 0, -2, -1, -9, -3
1503694982602,13, -4, 4, -5, -10, -6, -1, -6
1503694982625,22, 3, -3, -10, -10, -2, 1, 10
1503694982646,-20, -4, -5, -2, 6, 2, 2, -7
1503694982669,-16, -8, -4, 5, -1, 1, 2, -2
1503694982684,10, 4, 2, 3, -2, 0, -1, 4
1503694982707,-13, 0, 4, -1, 5, 1, -4, -11
1503694982729,9, -5, 0, 2, 14, 6, 2, 13
1503694982744,-13, -12, -2, -2, -16, -5, -1, -8
1503694982766,-13, -9, -15, -2, -2, -3, -9, -19
1503694982789,2, 5, -3, 1, 23, 0, 3, 7
1503694982806,5, 4, 0, 0, 2, 4, 10, 12
1503694982826,-3, -1, 3, -2, 1, -4, -1, -3
1503694982849,-8, -7, -8, -2, -8, 0, 1, 1
1503694982864,3, -7, -6, 8, 5, 1, 2, 2
1503694982886,14, 4, 2, -1, -7, -4, -2, 8
1503694982909,0, -1, -1, -4, -8, -2, 1, 7
1503694982924,10, 23, 12, 5, -2, -2, -4, 2
1503694982947,23, 4, 2, 5, -4, 0, 3, 6
1503694982954,0, 6, 9, 5, 12, -1, -3, -1
1503694982977,-1, -12, -2, 5, 7, 3, 9, 9
1503694982998,-5, -2, -14, -10, -12, -4, -2, -3
1503694983014,4, 3, 4, 8, 10, -2, 0, -4
1503694983039,11, -4, -5, -1, 0, 0, -8, -11
1503694983058,2, 1, 1, 3, 2, -2, 3, 11
1503694983074,-3, -8, -7, -5, -14, -1, 0, -2
1503694983097,-4, 4, 3, -9, -16, -7, -6, -14
1503694983118,1, 0, 5, 4, 1, 2, 1, 4
1503694983134,-5, -19, -10, -1, 5, 0, 0, 1
1503694983156,-2, -2, -8, -2, 9, 0, -4, -6
1503694983178,5, 4, 6, 0, 7, 2, 4, 12
1503694983194,10, 4, 2, -1, -3, 1, 1, 3
1503694983217,3, -3, -6, -2, -8, -1, 0, 0
1503694983240,-2, 2, 4, 2, -3, 0, 0, 0
1503694983254,-1, 8, 7, 0, -8, -1, -1, -2
1503694983277,-5, -7, -4, 2, 2, 2, 1, -2
1503694983298,1, 0, 1, 3, 17, 1, -2, 0
1503694983314,2, 5, 9, -2, -12, -1, -2, -2
1503694983329,-2, -2, 0, -3, -2, -1, -3, 0
1503694983345,-2, 7, 10, -1, 15, -2, -1, -3
1503694983375,2, 1, -3, 1, -1, -2, 1, 1
1503694983398,0, -4, -5, 1, -7, -1, -2, -2
1503694983418,-2, -2, 4, 2, 1, 2, 2, -2
1503694983434,-3, 1, 13, 0, -1, -2, -1, -4
1503694983450,3, 8, 3, 3, 1, -1, 2, -2
1503694983465,-4, -6, -4, 0, -4, 0, -1, -1
1503694983479,-6, -6, -8, -3, 3, -1, -2, 1
1503694983494,0, 9, 4, -1, -5, -1, 0, -1
1503694983517,-4, -7, -2, 2, 1, 1, 1, 0
1503694983538,4, 13, 15, 5, 1, -3, 0, 1
1503694983554,1, 0, 1, 1, -2, 1, -3, -1
1503694983578,0, -7, -12, -4, -5, 0, 0, -1
1503694983598,-2, 1, -1, -3, 3, -1, 0, -4
1503694983621,-4, -1, 1, 6, 11, 3, 0, 0
1503694983637,10, 13, 2, 0, -4, -2, 1, 1
1503694983658,-6, 0, -4, -3, -3, -1, -2, -1
1503694983681,-4, -11, -3, -1, 7, -1, -3, -3
1503694983696,-5, -10, -6, -14, -16, -5, -3, -3
1503694983718,0, -3, 0, -5, -19, -7, -1, 0
1503694983743,-1, -4, -1, 2, 0, -1, 0, -1
1503694983757,1, 22, 32, 12, 12, 3, 1, 1
1503694983779,5, -4, -4, 2, 4, 3, 3, 1
1503694983801,1, -5, -8, -4, -4, -1, -2, -1
1503694983817,-1, -9, -10, -1, 6, -1, 0, 1
1503694983838,0, -6, -6, -4, -3, -3, -2, -1
1503694983861,-6, -7, -9, -4, -1, 0, 0, -1
1503694983878,-5, 0, 0, 0, 0, 0, 0, 0
1503694983898,-5, 1, -5, -7, -7, -3, 0, -2
1503694983921,6, 7, 8, 4, 2, 0, -2, 2
1503694983937,-1, -4, -9, 4, 11, -1, -1, -3
1503694983958,-2, -5, 1, 0, -2, -2, -2, -1
1503694983981,5, 11, -1, -1, -1, 1, 0, -1
1503694983996,-1, 1, 5, 1, -4, -2, -1, 1
1503694984018,-4, -9, -10, -7, 1, -3, -3, -6
1503694984041,-2, -5, -7, -1, 9, -1, -4, -1
1503694984063,0, -5, -8, 1, -7, -1, 3, 2
1503694984086,-1, -4, 2, 2, 5, 1, 2, 1
1503694984101,1, -2, 3, -1, 4, 0, 0, -1
1503694984117,-7, 4, 10, 1, -3, 1, 2, -1
1503694984139,5, 7, 3, -3, -7, 1, 0, 1
1503694984161,-3, -22, -15, -3, -4, -1, -1, -2
1503694984176,0, 0, 4, 0, -3, 0, -1, 1
1503694984199,2, 1, -6, -2, -3, -1, -3, -2
1503694984221,-5, 1, 4, -2, -1, -3, 1, 1
1503694984236,2, 3, 0, 0, -2, -2, -2, -2
1503694984259,2, 6, 2, -1, -4, -2, 0, 1
1503694984281,-3, 20, 16, -2, -3, -1, 0, -2
1503694984296,-3, -22, -16, -5, -2, -2, -4, -2
1503694984319,2, 2, 3, 3, 1, 2, -4, -1
1503694984340,-2, 0, -2, -3, 0, 0, 0, 0
1503694984356,1, -5, 5, 4, 1, -1, 0, 0
1503694984378,2, -2, -3, -2, 2, -1, -2, -5
1503694984400,-2, 14, 11, 1, -1, 1, -3, -2
1503694984409,3, 9, 3, -5, 1, -1, -3, -1
1503694984431,-5, 1, -5, -2, -8, -2, -4, -4
1503694984448,2, -10, -4, 1, 9, 0, -2, 1
1503694984469,7, 8, 2, 0, -3, -2, -4, -3
1503694984491,1, 12, 18, -2, -13, -3, -1, 0
1503694984506,-9, -7, -4, -1, 2, -1, 0, -2
1503694984529,-2, 11, 5, 2, 1, 0, 1, -1
1503694984551,-1, 6, 10, 1, -2, 0, -1, -2
1503694984574,-4, -9, -11, 0, 1, 1, -1, -3
1503694984589,-2, -7, -6, -3, 0, 0, 2, -1
1503694984611,-2, 9, 9, 2, 2, -1, -1, 3
1503694984634,2, -6, -7, 0, -2, -2, -3, -1
1503694984649,1, -2, -9, -4, -4, -3, -1, -2
1503694984671,0, 0, -1, -5, -1, 1, 3, -1
1503694984694,5, 2, 5, -2, -2, 0, 0, -2
1503694984709,-8, 2, 6, 7, 7, 2, -1, 0
1503694984732,-2, -11, -11, -3, 2, 0, -2, -2
1503694984754,6, -7, -2, -4, -4, -3, -4, 1
1503694984769,-1, 0, 0, -1, -2, 1, 0, 0
1503694984792,-8, 3, 3, 5, 2, 0, -2, -4
1503694984814,9, -9, -8, -2, 3, 1, 1, -1
1503694984836,-3, -23, -15, -8, -7, -3, -1, -4
1503694984852,-16, 3, 11, 4, -4, -4, -4, -5
1503694984874,-10, -13, -3, -2, 1, -2, -2, -1
1503694984889,10, 22, -1, 3, 2, 1, 1, 6
1503694984911,2, 6, 2, -2, -2, -1, 1, 0
1503694984934,10, 24, 18, 1, 0, 0, 0, 4
1503694984950,-5, -9, -12, -4, -5, -2, -1, -6
1503694984971,3, -6, -4, 0, -2, -1, -1, 2
1503694984994,-5, -19, -5, 1, 3, 0, -5, -1
1503694985009,-2, -9, -6, -5, 0, -3, -1, -2
1503694985031,9, 10, 0, -3, -7, 0, -1, -1
1503694985054,7, 14, 2, 3, 0, -2, -2, -1
1503694985069,-4, 4, 0, 0, 4, -1, -2, -2
1503694985092,-6, -12, -2, 7, 4, 0, 4, 2
1503694985114,-3, -8, -10, -10, -6, -1, -1, -3
1503694985129,-12, 5, 5, 0, -5, -2, -3, -2
1503694985153,2, -4, -2, -6, -3, 2, 0, 3
1503694985174,-3, -4, -1, -2, -2, -2, 2, -1
1503694985189,-9, -12, -16, -3, 1, 1, -4, -5
1503694985211,-2, 3, 3, -3, -2, -3, -3, -3
1503694985234,-2, -3, 1, 2, -1, -2, -1, -1
1503694985249,6, 2, 2, -3, 1, -2, 0, 2
1503694985271,0, 9, 9, 4, 4, 0, -1, 1
1503694985294,-9, -17, -8, -2, -1, -2, -2, -1
1503694985309,-1, -5, -7, 0, -5, -3, 0, -2
1503694985331,-1, 3, 3, 10, 4, 3, -3, -3
1503694985363,6, 24, 14, 3, -6, -1, -2, 1
1503694985384,-4, -12, -12, -4, -3, -2, -1, -2
1503694985407,4, -1, 0, -1, -2, -3, 2, 0
1503694985422,-5, -1, -1, -3, 0, -2, -1, -4
1503694985445,-3, -21, -15, -4, -1, -1, -4, 0
1503694985467,-8, -19, -5, 2, 5, 1, -2, -1
1503694985482,-10, -11, -12, -6, -3, -1, 2, -1
1503694985504,7, 20, 10, -2, -4, -3, 0, 1
1503694985527,14, 15, 5, 4, -1, -2, -3, 0
1503694985542,0, 4, 9, 12, 8, 1, -1, 0
1503694985564,-23, -19, -13, -6, -1, -1, -2, -5
1503694985587,-1, -1, 1, -2, -4, 2, 2, 2
1503694985602,1, -5, -7, -2, -1, -2, -3, -3
1503694985624,1, -11, -7, -5, -4, -1, -3, -1
1503694985647,4, -10, 3, 1, -2, 1, 0, 1
1503694985662,-5, 4, 0, -2, -2, -2, -4, -2
1503694985684,-9, -17, -9, -2, 5, 1, 1, -5
1503694985707,3, 4, 1, 1, 5, -3, -1, -2
1503694985725,0, -2, -9, -3, -5, -1, -2, -1
1503694985744,0, -2, -4, -2, -3, -3, -2, -2
1503694985767,-4, 8, 7, 11, 11, 2, 0, 3
1503694985782,2, 10, 6, -2, -5, -1, 3, 2
1503694985804,1, 1, 1, -2, -3, -2, -1, 0
1503694985827,3, 3, 8, -1, -5, -4, -2, 2
1503694985842,-8, -5, -3, -2, 0, 0, -4, -1
1503694985861,3, 17, -2, -1, 3, -1, 0, 2
1503694985871,-6, -11, -7, -4, 0, -1, -1, 0
1503694985894,1, -6, 1, 0, -1, -2, 2, -2
1503694985916,-2, -5, -2, 2, 9, 1, 2, 1
1503694985931,-4, -2, 1, -2, -8, -3, -1, -4
1503694985954,3, -3, -3, 0, 5, 2, -2, 4
1503694985977,-2, 3, 11, 5, 0, -1, 0, 0
1503694985994,3, 2, -5, -3, -6, 0, -4, -3
1503694986014,10, 1, -2, 1, -1, 1, 2, 4
1503694986037,-1, 6, -2, -4, -5, -3, 0, 1
1503694986051,-4, -9, 2, 3, 3, -2, -2, -3
1503694986068,-17, -7, -6, 0, 1, -2, -4, -5
1503694986082,-9, -14, -11, -5, -2, -3, -5, -4
1503694986104,3, -2, -2, 1, -2, 0, 2, 3
1503694986129,1, -2, -2, -1, -4, -2, -2, -2
1503694986142,5, -2, -2, 1, 2, -2, -3, 2
1503694986164,-5, -3, -3, -9, -8, -2, -3, -2
1503694986187,1, 2, 2, -2, -2, 1, -2, -1
1503694986202,-9, -8, -10, 1, 2, 0, 1, -4
1503694986226,7, 3, 7, 20, 28, 7, 5, 4
1503694986248,-3, -13, -8, -3, -2, -1, -3, 0
1503694986262,2, -5, -6, -8, 0, -3, -3, 1
1503694986285,-1, 12, 14, -2, -6, -1, 0, -4
1503694986307,-2, -12, -3, 0, -1, 0, 0, 1
1503694986322,3, 11, 1, -1, -9, -3, -1, -3
