1503683563312,9, 0, -1, -1, -1, -1, -1, -1
1503683563327,5, 1, 4, 2, 2, 2, 2, 1
1503683563349,-10, 0, -1, -3, -1, -2, -2, -5
1503683563373,8, -3, -2, -2, -2, 0, -1, 0
1503683563387,-6, 1, 3, 3, 4, 1, 1, -1
1503683563402,4, 1, 2, 4, 4, -1, -3, -5
1503683563417,-4, -2, -3, -2, -3, -1, 1, 1
1503683563439,14, -1, 2, 3, 0, 0, -1, -1
1503683563462,2, 2, -2, 0, 0, 1, -1, -3
1503683563477,2, 4, -2, -3, -3, -3, 0, 0
1503683563500,-22, -1, -1, -3, -1, -1, 1, 3
1503683563508,4, 2, 1, -3, 0, 1, 1, 4
1503683563530,-5, -2, -3, -1, 0, -2, -4, -5
1503683563552,4, -3, 0, -2, -2, 0, 0, 2
1503683563574,19, 9, 2, 3, 1, 2, 2, 3
1503683563597,2, 2, 0, -3, -1, 0, -2, 0
1503683563604,-4, -1, -2, -3, -1, -3, -3, -4
1503683563620,-8, -8, -5, -5, -2, -1, -1, -4
1503683563642,-9, -4, -2, -1, 0, -1, 1, -3
1503683563664,19, 8, 1, 0, -1, 1, 0, 5
1503683563680,-5, -2, -1, -1, 0, -1, -2, 1
1503683563702,-16, -2, -2, -2, -1, -2, -2, -2
1503683563724,-2, -2, 1, 1, -1, 1, -1, -1
1503683563739,0, -3, -3, 0, -2, -2, 0, -2
1503683563762,1, 2, -1, 0, -1, 1, -1, -1
1503683563784,18, 1, 0, 3, 5, 0, -2, -1
1503683563799,3, 3, 3, 2, 0, -1, 1, -2
1503683563822,8, 3, 0, 3, 0, 1, 1, -1
1503683563846,1, 0, -2, -1, -3, -2, -2, -1
1503683563859,4, -3, -5, -2, 1, -2, -3, -7
1503683563884,0, 2, 4, 0, 1, 1, 4, 11
1503683563904,3, -1, -3, -3, -2, 0, 1, 4
1503683563920,0, -4, -1, 0, -1, -1, -2, -7
1503683563942,-1, -2, 1, -1, -1, -1, 1, 3
1503683563964,-7, -6, -3, -4, -1, -3, -3, -2
1503683563982,-12, 2, -2, -1, -3, 0, -1, -4
1503683564002,-3, 1, -4, -4, -2, -1, 0, 2
1503683564024,-6, -1, -1, 0, 0, -2, -2, -4
1503683564039,0, -6, -2, 0, -2, -1, -3, -3
1503683564062,6, 2, 1, -2, -1, 2, 0, 1
1503683564084,-14, -4, -3, 1, 0, -2, -1, -6
1503683564099,-2, -2, -2, -1, 0, -1, -2, 1
1503683564122,19, 1, -2, -3, -3, -1, 1, 0
1503683564144,-10, -3, 2, 3, 1, 1, 2, 1
1503683564159,-16, -3, 0, 2, 1, 1, -1, -2
1503683564182,5, 0, -2, -1, -1, 0, 0, -1
1503683564203,-2, 0, -2, -2, -3, -2, -1, -1
1503683564219,1, 1, -1, -3, -1, -3, -1, 4
1503683564242,3, -1, -1, 0, 0, 0, -2, -2
1503683564264,-5, -4, 0, 0, 1, 1, -1, -5
1503683564279,-3, -1, 0, -2, -1, -1, 0, -3
1503683564302,-12, -3, -2, 0, -2, -2, -3, 5
1503683564324,5, -4, -1, 1, 1, 1, -1, -4
1503683564339,6, 3, 3, 7, 4, 2, 0, -2
1503683564362,-2, 0, -2, -3, -2, -2, 0, 3
1503683564384,-10, -1, -1, 1, 1, 0, -3, -6
1503683564399,22, 4, -3, -3, -2, 0, -1, 3
1503683564422,-14, -3, -4, -3, -3, -4, -2, -6
1503683564443,-4, 1, -1, -1, -3, -1, 2, 1
1503683564466,-12, 0, 0, 0, -1, -1, -1, -3
1503683564489,12, 0, 0, -1, -2, 1, -1, 4
1503683564503,-4, -1, -1, -3, -1, 0, 0, 4
1503683564526,-9, -8, -2, -1, 0, -2, -1, -2
1503683564542,3, 4, 3, 0, 0, 0, 0, 0
1503683564563,-6, -3, -1, 1, 0, -2, 0, -2
1503683564572,2, -3, -3, -3, 0, -1, -1, -4
1503683564594,-12, -2, -1, 0, 0, -1, -2, -4
1503683564618,1, 0, -3, -2, -1, -1, -1, -2
1503683564632,-4, 0, 0, 3, 1, 1, 3, 1
1503683564655,7, 0, 0, -2, -2, -1, 0, -1
1503683564677,-7, -2, 2, 2, 1, -2, -1, -1
1503683564692,9, -4, -3, -2, 0, -1, -2, -3
1503683564714,-1, 1, 1, 0, 0, 0, 0, -1
1503683564737,-12, -4, -3, 0, 2, -1, -1, -1
1503683564752,-1, 4, 0, -1, -4, -1, -3, -1
1503683564774,1, -4, -5, -4, -2, -2, -2, -2
1503683564797,-5, -2, 1, -1, 0, -1, 0, 1
1503683564812,1, 1, -1, -2, -1, 0, 0, 1
1503683564834,-3, -2, 1, -1, -1, -2, 1, 1
1503683564857,1, 0, -1, 0, -2, 0, 0, -2
1503683564872,23, 0, -3, -2, -1, -2, -4, 0
1503683564894,2, -1, -2, 0, 0, 0, -1, -1
1503683564917,-9, -1, 0, -3, -2, -1, -2, -8
1503683564932,3, 4, 1, -1, 0, -1, -1, 3
1503683564955,-3, -4, -3, -2, -1, 0, 1, 0
1503683564977,3, 3, -2, -4, -4, -3, -1, -2
1503683564992,-13, -3, -2, -1, -1, 0, 1, -3
1503683565014,-9, -4, -3, -1, -1, -1, -2, -3
1503683565037,4, 3, 1, 0, 0, 0, 2, -1
1503683565054,-3, 1, -1, 1, -1, 1, 0, 6
1503683565074,-1, -1, -1, -1, 2, -1, -1, -3
1503683565097,2, 4, 1, 0, 1, 2, -2, 0
1503683565112,2, -3, -2, -4, -5, 0, -1, 3
1503683565135,-1, -1, 0, -2, -1, -2, -1, 0
1503683565157,10, -1, 0, 0, 0, -1, -2, -6
1503683565172,-16, -4, 0, 1, 0, 0, -1, 1
1503683565194,0, 0, -2, -2, 0, -2, 0, 0
1503683565217,5, -2, -1, 0, 0, -1, -1, -1
1503683565232,5, -2, -2, 0, 0, -1, -2, -3
1503683565256,-4, 1, 1, 2, 0, 0, 0, 1
1503683565277,-18, -4, -4, -2, -2, -1, -4, 0
1503683565292,8, -2, 3, -1, -1, -2, 0, -3
1503683565315,-5, 2, 1, -2, -1, -1, 0, 1
1503683565337,-2, 2, 2, 1, 1, -1, 0, -1
1503683565352,3, 1, -2, -2, -2, 0, 1, 0
1503683565374,-2, 2, -1, 0, 0, 1, 3, 4
1503683565397,-5, -2, 0, 2, 0, -1, -2, -2
1503683565420,-19, -5, -2, 0, -2, -2, -4, -7
1503683565434,4, -5, -2, -4, -4, -4, -2, -8
1503683565459,3, 2, -1, 2, 0, 0, 0, -2
1503683565480,-1, 1, 1, 0, 0, -1, 1, 3
1503683565495,-2, 1, -1, -3, 0, 1, 1, 5
1503683565517,-16, -2, -4, -2, -2, 0, -2, -6
1503683565540,9, -5, -2, 0, 0, -1, -1, -1
1503683565558,4, 0, -2, -2, 0, -2, -3, -3
1503683565577,2, -1, -1, 0, -2, 0, -1, -2
1503683565600,9, -1, 1, 1, 1, 1, -2, -1
1503683565614,5, 3, 2, 5, 2, -1, -1, -1
1503683565637,4, 2, 2, 0, 0, -1, 0, -3
1503683565644,-21, -5, 2, 6, 3, 0, 1, 1
1503683565668,6, -2, -3, -6, -4, -2, 0, -1
1503683565692,0, -2, 0, 0, 0, -1, -3, 2
1503683565704,-6, -3, -2, -3, -2, -2, -4, -10
1503683565734,-7, 3, 3, 3, 1, 1, 3, 4
1503683565750,6, 1, -2, -3, -2, -1, -2, 1
1503683565773,1, 3, 0, -2, 0, -2, 0, -1
1503683565794,-23, -3, -1, -1, -2, 0, -1, -1
1503683565810,4, 0, -1, -2, 0, 0, -1, 2
1503683565832,0, -2, 3, 2, 2, 0, 1, 1
1503683565847,9, 0, -2, 0, -2, 0, 1, -2
1503683565870,-11, -1, -5, -6, -6, -4, -3, -3
1503683565893,0, -3, -1, -2, 0, 0, 0, 2
1503683565907,7, 2, 3, 1, 2, 1, 1, 3
1503683565930,0, 0, -1, 0, 0, 0, -1, -4
1503683565952,-9, 3, 1, 0, 0, 0, -1, -2
1503683565968,0, -2, -1, -2, 0, -2, -2, -1
1503683565990,2, 0, 0, -4, -3, -1, -1, -3
1503683566012,-2, -4, -3, 1, 1, 0, -3, -3
1503683566028,0, -5, -1, 1, -1, -1, -1, -3
1503683566050,-8, -2, -2, 1, 2, -1, -2, -1
1503683566072,-18, 1, -1, 0, -1, -1, -1, -2
1503683566087,8, -5, -2, 0, -1, -1, 1, 3
1503683566110,4, -2, -2, -1, -1, 0, -2, -4
1503683566133,0, 1, -1, 2, 0, -2, 0, 3
1503683566147,9, 3, 1, -3, -2, 0, -2, 0
1503683566170,10, -3, -2, -3, -3, -4, -1, -3
1503683566192,11, 2, -1, 1, 2, 1, -1, 2
1503683566207,-3, 0, -2, -3, -2, 0, 1, 2
1503683566230,-1, -1, 0, 2, 0, -3, -1, -2
1503683566252,-1, -4, -1, -1, 0, 0, 0, -3
1503683566268,-3, 0, 1, -1, 1, 0, -2, 0
1503683566290,-11, -3, -2, 2, 1, -1, -4, -2
1503683566312,-1, 2, -3, -4, -3, -2, -1, -2
1503683566330,17, 10, 1, -3, -2, -1, -2, -1
1503683566350,-1, -3, -2, -1, -2, -2, -1, 1
1503683566372,1, 1, 2, 0, 0, 0, 2, 4
1503683566387,-1, -2, 0, 2, 2, 2, 0, -2
1503683566410,3, -2, -1, -2, -3, -2, -2, -1
1503683566433,1, -1, -2, -1, -1, -1, -1, -2
1503683566447,9, 0, -1, 1, 0, 1, 0, -3
1503683566470,-21, -7, -1, 0, -1, -2, -1, -2
1503683566492,3, 1, -1, -1, -1, -1, -1, 4
1503683566508,2, 4, 2, 4, 0, 1, 2, 1
1503683566531,-2, 1, -1, -4, -2, 0, -2, 1
1503683566552,6, 2, -1, -1, -1, -1, -1, 2
1503683566567,-14, -5, -2, -1, -1, 0, 0, -2
1503683566590,0, -2, -2, -2, 0, -3, 0, 1
1503683566612,2, -1, 0, 1, 0, 0, 1, 1
1503683566627,4, 0, -1, 0, 0, -1, -2, -1
1503683566650,-3, -3, -4, -6, -6, 0, -2, -5
1503683566672,2, 0, 1, -1, 0, 0, -1, -1
1503683566687,5, -1, -1, 2, -2, -1, -2, -1
1503683566710,-15, -1, -1, -2, 0, -2, 0, -2
1503683566717,5, 2, 1, -2, -5, -2, 0, 4
1503683566739,-4, -2, -6, -6, -3, -1, -1, -4
1503683566762,-2, 4, 3, 2, 1, -1, 0, 1
1503683566777,2, 4, 2, 0, 1, -1, -2, -2
1503683566799,9, 1, -4, -7, -4, -1, -1, 3
1503683566822,-9, -3, 0, 4, 4, 1, 1, 1
1503683566837,2, 0, -2, -1, -2, -1, -2, -2
1503683566859,-6, -1, 0, 2, 0, -1, -1, -3
1503683566882,-8, -1, 1, 1, -1, -1, 2, 3
1503683566896,-11, -1, -2, 1, 0, 1, 0, -3
1503683566919,7, -1, -3, -6, -3, -2, -3, -6
1503683566942,-5, -8, -4, -6, -5, -2, -5, -4
1503683566957,-2, -1, 0, 0, -1, -1, -1, 0
1503683566979,5, 3, 2, 2, 0, 0, -1, -1
1503683567002,0, 1, 1, 4, 3, 1, -1, -3
1503683567018,-10, -7, 1, 7, 2, 3, 3, -1
1503683567039,-9, 0, -2, -2, 0, -1, 0, 0
1503683567061,9, -1, -2, -1, 0, -1, -1, 2
1503683567070,-4, -1, -2, -4, -3, -1, 1, -1
1503683567092,-6, 0, -1, 0, -1, -2, -1, -2
1503683567107,-8, -5, -1, 1, 1, 1, -2, -5
1503683567130,-12, -4, 0, -2, -3, -1, -1, 0
1503683567152,4, 0, -2, -4, -1, 0, -2, 0
1503683567170,-14, -1, -2, 0, -2, -1, 1, 3
1503683567190,7, 2, 1, 0, 0, 0, 0, 4
1503683567212,15, 4, 4, 6, 4, 1, 1, 2
1503683567227,10, 3, 1, 1, 1, -1, 0, -1
1503683567257,-2, -3, -4, -6, -3, -2, 0, -1
1503683567272,7, -5, -2, -2, -2, -2, -1, -1
1503683567294,-6, -2, -1, -4, -3, -2, -3, -3
1503683567310,-5, 0, -4, -4, -1, 0, -2, -5
1503683567332,-8, 0, 0, -1, -1, 1, 0, -1
1503683567354,-10, 0, -1, -2, -2, -1, 3, 4
1503683567371,1, -1, 1, 0, 0, -2, -1, -2
1503683567392,0, 1, -2, 2, 0, -1, -3, -7
1503683567415,14, -1, 0, -1, -1, 0, 0, 1
1503683567439,-1, -2, -1, 0, 0, -3, -2, 0
1503683567460,-3, -3, -3, -2, 0, -1, -2, -2
1503683567490,0, -1, 0, 3, 2, 0, 0, 1
1503683567513,7, -3, -1, -4, -4, -2, 0, 1
1503683567535,0, -4, -2, -1, -2, -3, -2, -4
1503683567550,-1, -4, -6, -8, -5, -1, -1, 1
1503683567574,5, -1, -2, 0, -2, 0, 0, -1
1503683567594,-10, -2, 1, 3, 2, 1, 1, 0
1503683567606,2, 1, 0, 0, 0, -2, 1, 0
1503683567624,3, -1, -3, -1, -2, 0, -3, -2
1503683567640,-23, -3, -2, 0, -3, -3, -1, -1
1503683567662,5, -2, -1, -2, 0, -1, 1, 2
1503683567685,5, -2, 2, 5, 5, 1, 1, -1
1503683567699,-7, -3, -2, -3, 0, -2, -1, 2
1503683567725,3, 3, -1, -4, -2, 0, 1, -2
1503683567745,1, 0, 2, -1, -1, -1, -1, -1
1503683567759,0, -1, -1, 0, 0, 2, -2, -3
1503683567782,-2, -1, -1, 1, -1, 0, -3, -4
1503683567806,1, 0, 2, 2, 0, -4, 0, -1
1503683567819,-1, -1, -2, -4, 0, 1, -2, -2
1503683567842,1, 0, 0, 1, 0, 1, -1, 0
1503683567864,2, -3, -1, 0, -1, 0, -2, -1
1503683567879,7, -2, 1, 4, -1, 0, 2, -1
1503683567902,3, -1, -1, -1, 1, 0, -2, -1
1503683567924,6, 2, 0, 2, 1, 0, 1, 1
1503683567940,10, -1, -1, -2, -5, 1, -1, 2
1503683567954,-7, -2, -2, 0, -1, 0, -2, 0
1503683567970,-8, 0, 1, 3, 1, 3, -3, -4
1503683567992,-8, 2, -3, -2, -4, -1, -2, -4
1503683568014,11, 1, 0, -3, -1, 2, 1, 5
1503683568030,-10, -4, 0, -3, 0, 1, -2, -1
1503683568052,-4, 3, 1, 2, -2, 1, 2, -1
1503683568075,-4, -4, -1, -3, -3, -1, -2, 1
1503683568090,-1, -6, -6, -2, -4, -7, -3, -6
1503683568112,16, 3, 0, 0, 0, 0, 1, 4
1503683568134,3, 0, -2, -1, -1, -1, -1, 0
1503683568150,5, -4, -2, 4, -2, 2, 2, -1
1503683568172,4, 1, -1, -2, -2, -2, -1, -1
1503683568194,-5, -5, -5, -4, -1, -2, -3, -4
1503683568217,10, 2, -1, -2, 0, -1, -2, -1
1503683568232,-3, 2, 1, -1, 3, -1, 1, 1
1503683568254,0, -2, 0, 1, -1, -6, 0, 2
1503683568277,-6, 0, 3, 1, 1, 1, 0, -2
1503683568293,-24, -4, -1, 1, -3, -1, -2, -7
1503683568314,-5, -1, 1, 2, 1, 5, 0, 0
1503683568336,4, -2, -5, -5, -3, -2, -4, -5
1503683568344,16, 0, 0, -2, -2, -1, 0, 0
1503683568366,-8, 0, 2, 0, 0, 0, 0, 2
1503683568382,-7, -2, -7, -10, -6, -3, -5, -7
1503683568404,-22, -4, -1, 0, 0, 1, 2, -1
1503683568426,-3, -3, -1, 0, 1, -1, -1, 0
1503683568443,1, -3, -1, 0, 1, -1, -1, -1
1503683568464,1, -1, -1, 0, -1, 1, 0, 1
1503683568486,-3, -2, 0, 0, 0, 0, 0, 0
1503683568502,5, 1, 0, -2, -1, -4, -2, -1
1503683568524,5, 4, 1, 0, 0, -2, 2, 3
1503683568546,-3, 0, -2, 1, 0, 0, -3, -2
1503683568561,5, 3, 0, -1, -1, -1, 0, 1
1503683568584,-3, -2, -2, -2, -2, 0, 0, -3
1503683568606,-5, 2, 0, -2, -4, -2, -3, 1
1503683568622,10, -2, -3, -5, -1, 2, 1, 5
1503683568645,-5, -1, 0, 0, 0, -1, -3, -1
1503683568666,-9, -1, 5, 4, 2, 2, 1, -2
1503683568683,-8, -3, -2, 0, -2, 1, -1, -1
1503683568704,-6, -3, -3, -1, -1, -4, 1, -3
1503683568727,3, -5, -3, 0, -1, -4, -4, -11
1503683568742,-10, 2, 1, 2, 1, 0, 0, -1
1503683568764,12, 2, 0, -3, -1, 0, -2, 2
1503683568786,1, -2, -2, -2, -1, -1, 0, 2
1503683568801,3, -1, 0, -5, -2, 0, -1, 0
1503683568824,5, 1, 2, 4, 3, 0, 1, -2
1503683568847,0, 0, -1, 0, -1, -2, -1, 0
1503683568861,4, -1, 2, 0, 0, -1, 1, 5
1503683568884,-8, -2, -4, -4, -2, -3, -3, -2
1503683568906,2, -2, -3, 0, 0, -1, -1, 1
1503683568922,4, 0, -3, 0, -3, 1, -1, 1
1503683568944,-7, -1, -1, -2, -1, -9, -1, -7
1503683568966,-1, -1, -2, 0, -2, -2, -1, -6
1503683568983,-3, -4, 0, 1, 0, -1, 0, 1
1503683569004,1, -1, 3, 5, 4, 4, -3, -1
1503683569026,-5, 0, -2, 2, 0, -4, -1, -2
1503683569034,-11, -1, 0, 1, 0, 0, -1, 2
1503683569057,-2, -4, -4, -9, -5, -2, 1, 2
1503683569072,10, 0, 0, 0, 0, -2, 1, -1
1503683569094,-4, -1, 1, -1, 0, -1, 1, 2
1503683569117,-6, 3, 1, 6, 4, 1, -2, -10
1503683569139,7, 0, -2, 0, -2, -2, -2, 0
1503683569154,9, -1, 0, -2, -1, -1, -2, -1
1503683569176,-1, 0, -2, 1, -2, -1, 1, 4
1503683569199,0, -1, 4, 4, 5, -2, 1, -2
1503683569216,-12, 0, -4, -4, -5, -2, -3, -1
1503683569236,7, 2, 0, -1, -3, -2, 0, 1
1503683569259,-3, -3, -2, 0, -2, 0, 1, -1
1503683569274,-4, -1, -2, -2, -1, -1, -4, -1
1503683569296,3, -1, 0, 2, 1, 0, -1, 0
1503683569304,-16, -6, -3, -5, -4, -2, -3, -4
1503683569326,-1, 2, 1, 3, 2, -1, -1, -2
1503683569350,2, 4, 2, 0, -1, 0, 2, 3
1503683569364,12, 1, 1, 2, 5, 1, 0, 0
1503683569386,-14, -4, -3, -3, -1, -2, -3, -5
1503683569408,0, -6, 1, 3, 2, 2, -3, -6
1503683569424,4, 2, -1, -4, -3, -4, 0, 6
1503683569447,-5, -3, -1, -2, -3, -2, 0, 2
1503683569455,21, 3, 0, 2, 0, 1, 1, 6
1503683569476,-2, 4, 0, -2, 0, -1, 0, 1
1503683569499,-5, -7, -5, -7, -4, -3, -5, -6
1503683569515,-5, -4, -3, 0, -1, 1, 0, 0
1503683569536,14, 6, 4, 2, 1, 2, 3, 5
1503683569559,2, 4, -1, 2, 1, -1, 2, 1
1503683569575,0, -1, 0, 0, 0, 0, -3, 0
1503683569596,8, 1, 1, -4, -4, -3, 2, 5
1503683569604,-7, 0, -2, -2, -1, -1, 0, 3
1503683569627,-4, -4, -1, 1, -1, -1, -2, -1
1503683569648,-7, -3, -2, -1, -1, 1, -1, -4
1503683569664,-29, -5, -1, -3, -2, -1, 0, 3
1503683569687,-6, -13, -8, -5, -2, -4, -7, -14
1503683569708,6, 6, 1, 1, 0, 2, 2, 0
1503683569724,8, 2, -2, 0, 0, -1, -1, 3
1503683569747,1, -1, -2, -6, -5, -3, -1, 1
1503683569770,6, 3, -2, -5, -6, -6, -3, 0
1503683569784,19, 3, 2, 1, 2, -2, 0, -1
1503683569806,-5, 1, 5, 7, 10, 3, 0, 0
1503683569829,-1, -1, -2, -22, -62, 0, 1, 0
1503683569844,0, -4, -1, 7, 22, 2, -1, -7
1503683569866,-4, 0, 2, 3, 3, -4, 0, 2
1503683569888,-5, -4, -2, -2, 0, 0, -1, 0
1503683569904,4, 4, 6, 29, 40, -4, -2, -9
1503683569926,2, 1, -2, -4, -1, -11, 0, -10
1503683569935,-2, 2, -2, 20, 58, 11, 3, 3
1503683569957,2, 1, -2, -18, -18, -5, -2, 14
1503683569979,-5, 2, -3, -3, -6, -7, 1, 31
1503683569995,-4, -3, -10, 24, -20, -7, -5, 11
1503683570016,1, -1, 4, -11, -27, 1, 8, 4
1503683570039,0, -1, 0, -8, -1, -10, -5, -6
1503683570060,2, 7, 5, -12, 3, 12, 4, 4
1503683570076,-2, 1, 2, 0, 13, 11, 1, -17
1503683570099,0, 9, 14, -4, -10, -7, -5, 2
1503683570125,-3, -9, -8, -3, -7, 26, -1, -9
1503683570136,1, 7, 0, 17, -3, 22, 4, -3
1503683570151,4, -7, -17, 3, 1, -26, -7, -9
1503683570167,-6, 8, 16, 6, 1, -3, 5, -4
1503683570189,-1, -18, -3, 12, -3, 0, 0, 9
1503683570211,-3, 2, -3, -8, -9, -5, -5, -12
1503683570227,6, 6, 0, 0, 2, 22, 3, 13
1503683570248,-7, -19, -2, -6, -4, 12, -6, -5
1503683570271,-2, 0, 5, -7, -13, -25, -4, -4
1503683570287,-1, 6, 0, -1, -3, -2, 1, 3
1503683570308,2, 3, -8, -4, -4, 13, 3, 12
1503683570317,-11, 0, 12, -3, -6, 16, -6, -12
1503683570339,5, 14, -3, 5, 8, 6, 2, 1
1503683570365,-1, 51, 36, 1, -7, -42, -9, -11
1503683570376,-1, -20, -17, -6, -2, 10, 6, 6
1503683570401,-14, 36, 57, 10, -5, -50, -5, -1
1503683570422,16, -96, -98, -9, 27, 81, 12, 22
1503683570437,5, -32, -5, 3, 41, 84, 62, 57
1503683570461,40, 64, -34, -28, -107, -128, -102, 39
1503683570482,-15, -45, -15, -31, -61, 17, -17, -24
1503683570501,16, 40, 18, 75, 63, -17, -31, -53
1503683570520,-8, -5, 7, -22, -7, -3, 22, -17
1503683570542,-18, -4, 5, -15, -13, -9, 5, -11
1503683570560,-17, -6, 4, 2, 17, 16, 9, 2
1503683570579,-7, -12, 5, 10, 18, 15, 23, -3
1503683570602,0, 11, -1, -6, 7, -5, 0, -15
1503683570616,-3, -4, -2, -8, -8, 3, -5, -20
1503683570639,-5, -1, 4, 1, 1, -1, 1, 0
1503683570662,-8, -8, 0, 6, 15, 7, -18, 8
1503683570676,-14, -5, -3, -5, -4, 8, 6, 3
1503683570700,-2, 2, 0, 9, 24, -1, -4, -5
1503683570721,-15, -7, -2, -7, -5, 3, 6, -8
1503683570737,-12, -4, 1, 17, 15, -8, -16, 11
1503683570761,11, 1, 0, 0, 14, -4, 12, 8
1503683570781,57, 9, -3, -13, -9, 2, 6, 5
1503683570797,-4, -7, -2, -4, -7, 2, -4, -19
1503683570819,-3, -8, -3, -1, -4, 0, 3, 10
1503683570841,13, 3, -2, 3, 14, -3, 9, 8
1503683570857,11, 0, -2, -11, -25, -1, 0, 22
1503683570879,-13, 5, 2, -6, -6, 3, 6, -8
1503683570902,4, 2, 2, 1, -10, 0, 1, 20
1503683570916,-16, -1, 0, 4, 7, 2, -1, -1
1503683570939,4, 1, 2, 0, -2, 1, -2, -12
1503683570962,-19, -3, 1, -2, 0, -1, 0, -12
1503683570976,-7, -9, -7, -1, 1, 1, 3, -15
1503683570999,-3, 6, 9, 0, -2, 0, -1, -6
1503683571021,10, -3, -3, -1, 2, -4, -8, -18
1503683571044,-7, 14, -6, -3, -5, -1, -3, -9
1503683571059,5, 0, 1, 0, 3, 0, 0, 5
1503683571081,-5, -9, 2, 0, 1, -1, -2, 1
1503683571104,0, -27, 1, 2, -2, -1, 0, 2
1503683571119,-7, -4, -8, -4, -5, -2, -1, -60
1503683571141,2, 9, -4, -2, 0, 1, 1, -2
1503683571166,7, 3, -4, -1, -2, -2, -6, 21
1503683571179,5, 3, 0, 0, 0, -1, -1, 11
1503683571202,-1, -1, -2, 1, 1, 1, 2, 8
1503683571224,-3, 5, 5, -3, -1, 0, 1, -27
1503683571239,-5, -3, -3, -1, -3, 1, 1, -7
1503683571261,-4, -3, -2, -4, -8, -19, -7, 15
1503683571284,-11, 13, 5, 1, -1, 1, -1, 9
1503683571302,2, -1, -4, -1, -7, -1, 0, 15
1503683571321,-4, -8, -4, -4, -11, -8, 1, 13
1503683571344,-2, -1, 1, 7, 14, 6, 0, -5
1503683571359,2, 3, 3, -2, 5, 3, 3, 5
1503683571382,-11, 43, 41, 5, -3, 0, -1, 1
1503683571403,-25, -9, -2, 1, 7, 3, 1, 2
1503683571412,2, -2, 1, -2, -2, -8, -4, -6
1503683571438,-8, -1, -7, -4, -2, -7, -2, -12
1503683571457,10, 2, 0, -6, -4, -4, 0, 6
1503683571472,0, 3, 2, 0, -5, -3, 0, 0
1503683571495,7, 4, 1, 0, 3, -1, -2, -3
1503683571517,6, -2, -5, -4, -1, 0, 0, 0
1503683571539,11, -26, -4, -2, -2, -1, -2, 2
1503683571554,7, 9, 6, 3, 0, 1, 0, 3
1503683571578,-6, -2, -3, -1, 0, 0, -1, 3
1503683571593,1, 6, 4, 0, 3, 0, 4, 1
1503683571600,-14, 4, 1, -2, 0, 1, 2, 2
1503683571621,2, 8, 5, -2, -14, 0, 4, 2
1503683571638,35, 9, -2, -2, 2, -1, -4, -4
1503683571652,-10, -2, -1, -3, -3, -1, 1, -2
1503683571675,-6, -3, -4, -12, -11, -1, -2, -3
1503683571697,4, -4, -2, 2, 8, 3, 11, 6
1503683571712,-3, 19, 14, 4, -8, -2, -1, -2
1503683571737,0, 5, 12, 3, 4, 2, 7, 8
1503683571757,-11, -8, -6, 1, -4, -1, -6, -2
1503683571773,-2, 20, 10, -2, -1, -5, -6, -3
1503683571794,-3, -22, -7, -3, -5, -4, -5, -2
1503683571817,0, 0, -7, 5, 17, 2, 4, 0
1503683571832,9, -1, -10, -2, -20, -3, -3, 0
1503683571855,-11, -33, 12, 4, -3, -1, -2, -3
1503683571877,7, 14, 3, -4, 1, 0, -2, -1
1503683571884,0, -23, -12, -4, 0, 2, -3, -6
1503683571899,4, 12, 7, -1, -5, 1, 0, 0
1503683571921,-11, -26, -17, -5, -3, -1, 3, 1
1503683571951,6, -2, 1, -1, -23, -4, -1, -1
1503683571975,-1, 3, 1, -1, -1, -2, -3, 0
1503683571982,-3, 20, 3, 2, 21, 2, -2, -6
1503683572004,19, 23, 18, 3, 1, -1, -1, 0
1503683572026,-4, -2, -8, -1, 13, 2, 2, 5
1503683572042,-35, -22, -8, 8, 10, -4, -4, -4
1503683572064,16, 3, -2, 5, -5, 0, 7, 9
1503683572086,1, -4, 0, 7, -17, -4, -2, -3
1503683572103,-3, -10, -2, -11, 6, 13, 3, 5
1503683572124,8, 3, 6, 2, 0, -4, 0, -2
1503683572146,-1, 13, 10, -6, -11, -1, 0, 4
1503683572177,7, -2, 2, -8, -10, 1, 0, -7
1503683572192,36, 6, 3, 3, 2, 1, -12, -32
1503683572215,-20, -17, -7, -2, 1, 5, 6, 13
1503683572222,-13, -3, -11, -7, -8, 2, 7, 46
1503683572244,-32, -12, -11, -8, -7, -7, 1, -6
1503683572266,21, 9, 14, -1, -2, 1, 4, -1
1503683572281,-6, -6, -5, -3, -6, -3, -1, -6
1503683572306,10, -8, -12, -20, -31, -3, -3, -3
1503683572327,1, -4, -4, -3, -1, -6, -1, -11
1503683572342,7, 4, 4, 5, 5, 3, 6, 23
1503683572364,-4, 1, -15, 0, 6, 0, 2, -5
1503683572386,-9, 0, 0, 0, 3, 0, -1, -13
1503683572401,31, -4, -3, -9, -9, -4, -3, 19
1503683572424,-9, 0, 5, 10, 6, 2, 0, -11
1503683572447,-13, 0, 1, -6, -3, -2, 3, -8
1503683572461,20, -1, -7, -7, -1, -2, -3, 11
1503683572484,19, -4, -7, 2, 3, 1, -4, -32
1503683572507,-7, -10, -3, -3, -3, -2, 4, 14
1503683572521,-16, -13, -2, 1, 0, 0, -5, -15
1503683572544,1, -13, -4, -4, -1, 1, -2, 3
1503683572566,10, 8, 8, 1, 2, 1, -3, 6
1503683572582,-63, -4, -2, 3, 3, 1, -2, 3
1503683572604,2, 15, 5, 1, 0, 0, 3, 5
1503683572626,12, -9, -4, -2, -1, -2, -2, -5
1503683572641,16, 11, 7, 1, -3, -5, -12, -9
1503683572664,5, 5, 0, -1, 0, 1, -1, 1
1503683572686,-7, 2, 1, -2, 0, 1, 2, -1
1503683572701,-37, -15, 1, -1, 2, 2, 1, 3
1503683572724,25, 14, 8, 2, -1, -1, 0, 3
1503683572747,12, 8, 7, -1, -2, -3, -12, -2
1503683572761,5, -7, -7, -2, -3, -2, 6, 7
1503683572784,-2, -12, -3, 1, -2, -1, -2, -5
1503683572808,1, 13, 5, 5, 4, 2, 3, 1
1503683572814,-47, -13, -1, 0, -1, -2, 0, 0
1503683572837,0, -3, 1, -3, -1, -1, -4, -6
1503683572852,-27, -1, 2, 1, 5, -1, -5, 0
1503683572877,39, 2, -5, -2, -3, -2, -5, -4
1503683572897,4, -10, -6, 1, 1, 0, 0, 0
1503683572919,-8, -8, -8, -3, -1, 0, 0, 1
1503683572935,30, 6, 7, 1, -2, -1, 1, 4
1503683572957,-7, 6, 6, 4, 2, 3, 5, 7
1503683572979,10, 2, 4, 0, -2, 0, 1, 2
1503683572994,-20, -2, -4, -2, -1, -3, -5, -7
1503683573018,22, -6, 5, 3, 4, 2, 1, 8
1503683573039,23, 1, -4, -2, -1, -1, -1, -4
1503683573055,-2, -3, -3, 0, 0, -1, 0, 0
1503683573079,5, 12, 7, 0, -1, -1, 2, 2
1503683573106,-11, 15, -2, 0, 0, 1, -3, -5
1503683573118,-12, -18, -8, -6, -6, -3, 0, 0
1503683573137,1, 7, 7, 0, 0, -2, -1, 0
1503683573159,2, -16, -15, -3, -2, 1, -2, -3
1503683573176,-11, -3, -4, -3, 0, -2, 0, 0
1503683573197,-15, -1, -7, -5, -6, -3, -3, -8
1503683573219,16, -8, -8, -4, -4, -2, 1, 1
1503683573235,4, 1, 8, 5, 5, 2, -8, 2
1503683573257,-10, -19, -3, -3, -1, 0, 0, -2
1503683573279,-1, 9, 2, 0, 0, 2, 4, 6
1503683573295,14, 8, 5, 0, 1, 0, -3, -5
1503683573317,9, 5, -3, 0, 0, -1, 1, -1
1503683573339,8, -11, 4, 1, -2, -3, -6, -4
1503683573355,19, -21, 10, 1, 1, -1, -5, -6
1503683573379,-3, 0, -9, -4, 0, -2, -2, -5
1503683573399,7, 8, -2, 0, 0, -2, 0, 0
1503683573416,-15, 6, 4, 2, 7, 2, 2, 5
1503683573437,-35, 11, 5, 5, 0, 1, 0, -2
1503683573459,41, 2, -11, -5, -9, -4, -1, 0
1503683573474,-21, 0, -5, -4, -5, -3, -3, -12
1503683573497,2, 3, 1, -9, -12, -3, 2, 5
1503683573519,-19, -3, -5, -7, -6, -5, -8, -4
1503683573535,-12, -1, 3, 7, 6, 0, 4, -2
1503683573557,-71, 19, 10, 3, 3, 6, 7, 6
1503683573580,24, 14, 3, 3, 2, 0, -2, 6
1503683573595,14, -10, -4, -1, -1, 0, 2, -1
1503683573624,15, 6, 8, 5, 6, 4, 4, 10
1503683573639,-7, -15, -10, -10, -5, -5, -4, -2
1503683573656,-2, 2, 2, 0, -1, -4, -3, -2
1503683573677,1, 13, 6, 3, 1, 3, 1, -2
1503683573699,8, -5, -3, -1, -2, -2, -2, -2
1503683573716,-2, -12, -9, -3, -4, -1, 0, 4
1503683573737,3, 9, 1, -2, -2, 0, -1, -1
1503683573759,-9, 3, 3, -1, 0, 0, -2, 4
1503683573775,10, -15, -9, -4, 0, -3, -2, -1
1503683573797,-9, -7, -7, -2, -3, -4, -9, -11
1503683573819,2, -5, 0, -1, -1, 0, -1, -3
1503683573842,-14, -2, -2, 1, 1, 1, 1, -3
1503683573857,7, -1, 1, 1, -1, 1, 1, -1
1503683573879,-2, -4, 3, -2, 1, -2, -1, 0
1503683573901,3, 1, -1, 0, 0, 0, 2, 2
1503683573918,3, 0, 0, -2, -3, -1, 1, -4
1503683573939,-7, 1, -3, 1, -2, 2, 0, -1
1503683573961,-1, -5, -4, 1, 0, -2, -2, 1
1503683573977,4, 0, 0, -3, -2, -1, -1, 1
1503683573999,0, 0, 0, -1, -2, -1, 1, 3
1503683574021,-2, 0, 1, 0, 0, 1, 0, -1
1503683574037,1, 1, -2, -1, 0, -1, 1, 0
1503683574059,6, 4, 5, 9, 10, -1, -3, -12
1503683574085,6, -1, -3, -1, -1, -1, -1, -7
1503683574097,-6, -3, -2, -5, -5, -1, -2, 3
1503683574119,0, -3, -2, 0, 2, -1, 0, 1
1503683574141,-10, -4, -2, -2, 0, -1, -4, -1
1503683574157,-1, 1, -2, -4, -3, 0, -2, -3
1503683574179,-2, 2, 1, -1, -4, -2, 0, 2
1503683574201,2, -1, -3, -2, -3, 0, 2, 0
1503683574218,8, 2, 1, 1, 1, 0, 0, 3
1503683574239,1, -2, 2, 3, -1, 0, 0, 0
1503683574261,1, -1, -4, -2, -1, -1, -1, 0
1503683574277,1, 1, 2, 0, 0, 0, -1, -2
1503683574299,-1, -3, 0, -1, -2, -1, -1, 8
1503683574322,-2, -1, 0, -1, 1, 0, 2, -4
1503683574337,1, -2, -1, -1, -2, -1, -1, -3
1503683574359,-1, 4, -1, -1, -2, -2, -1, -2
1503683574381,1, -2, -1, -3, -3, -2, 0, -1
1503683574397,-10, 1, -1, 0, 0, 0, -2, -2
1503683574420,-1, 1, 1, -1, -4, -3, -1, 0
1503683574441,4, -6, -1, -4, 0, -1, -2, -4
1503683574458,13, 2, -2, -2, -2, -2, -2, 3
1503683574479,-20, -12, -2, 1, 1, 0, -1, -6
1503683574501,1, 2, -2, -3, -1, -1, -1, -3
1503683574520,0, 2, 1, 3, 0, 0, 1, 2
1503683574539,0, -3, 1, -1, 1, 0, 2, 0
1503683574562,-6, -2, -4, -1, 1, 0, -1, -1
1503683574577,-1, -1, -1, -2, -1, -1, 2, 0
1503683574599,3, 0, -2, 0, 0, 0, -3, 0
1503683574622,5, 2, 0, -1, -1, -3, -2, -1
1503683574630,-3, 0, 0, 0, -1, 1, 0, 1
1503683574651,-2, -1, -1, 2, 3, -1, -2, -2
1503683574666,3, 0, -2, -3, -1, -1, -1, 2
1503683574696,12, 1, -1, -1, -1, -1, 0, 2
1503683574711,22, 6, 0, -1, -3, -3, -1, 0
1503683574733,-17, -8, -2, 0, -2, 1, -2, -3
1503683574749,-6, -1, -1, 0, -5, -1, -1, 1
1503683574771,-1, 0, 1, 9, 10, 0, -2, -2
1503683574794,-6, -4, -1, -3, -6, 0, 0, 0
1503683574809,1, 1, -1, -3, 3, 0, 0, 0
1503683574831,-4, -2, -1, 1, 3, -2, -2, 0
1503683574856,-1, -1, -1, -3, -3, -2, -1, -2
1503683574869,-7, -2, 0, -5, -6, 1, 0, -1
1503683574891,6, 0, -1, -1, -2, -1, -1, 1
1503683574913,3, 1, -2, -2, -2, -3, 0, -1
1503683574930,1, -2, 0, 0, 2, 1, 0, -1
1503683574951,-5, -2, -1, 0, 1, -1, -1, -2
1503683574973,-13, -5, -5, -3, -4, 0, 1, 0
1503683574990,-6, -2, -1, 1, 0, -1, -1, 0
1503683575011,-16, -2, -1, -2, -3, 0, -2, -5
1503683575033,7, 0, 1, 2, 1, -1, -2, -2
1503683575049,7, 2, 1, -2, -1, 1, 0, 1
1503683575071,0, 0, -2, 0, -2, -1, -1, 0
1503683575096,1, -1, -1, 2, 5, 0, -2, 0
1503683575109,-4, -6, -6, -4, -2, -2, -1, -4
1503683575131,14, 2, 2, -1, -2, -1, 0, -1
1503683575153,7, 0, -1, -2, -2, -3, -1, 1
1503683575169,-3, -1, -2, -1, -3, 0, -1, 0
1503683575192,-4, 0, 2, 0, 1, -1, 1, -2
1503683575213,11, 3, 0, -1, -3, -1, -1, 0
1503683575229,-5, 0, 0, 0, -1, 0, -1, -1
1503683575251,-7, 0, -2, -2, 1, -2, -2, 0
1503683575273,1, -2, -3, 3, 3, -2, -1, -3
1503683575289,-5, -2, -2, -3, -4, -2, 1, -1
1503683575310,5, 0, -4, -3, -2, -2, -3, -3
1503683575319,-1, -2, -1, -1, 2, 0, -1, 0
1503683575341,2, -3, -1, 3, 9, 0, 1, -1
1503683575364,-1, -5, -1, -2, 1, -1, -1, 0
1503683575379,-2, 0, -3, -1, -2, -2, 1, 0
1503683575401,2, -2, -2, -1, -5, -2, -1, -2
1503683575425,-9, 4, -2, -1, -3, -1, -3, 0
1503683575439,-1, 1, 0, -3, -1, 0, 1, -4
1503683575462,1, -4, 0, 0, 0, -2, -2, -1
1503683575484,-2, -2, -1, -2, -4, 0, 0, 0
1503683575499,2, 1, 0, 2, 1, -1, -1, -1
1503683575521,8, 2, 1, 0, 1, -2, 0, 2
1503683575544,-6, -3, -1, 2, 1, 1, -1, 0
1503683575561,-7, -1, -3, 0, 2, 1, 2, 1
1503683575581,3, -3, 1, 1, 2, 0, -1, -2
1503683575604,-4, -4, -3, -2, -2, -2, -1, -3
1503683575619,-1, -1, 0, -3, -3, -1, -1, -2
1503683575641,0, -1, 2, -2, 2, -2, -1, -3
1503683575664,2, -2, -5, -1, -5, -2, 0, -2
1503683575686,4, 0, 0, -2, 2, -1, -2, 1
1503683575701,0, 0, -2, -1, -2, 0, 0, 0
1503683575724,-2, 0, -2, -1, -2, -1, -2, 0
1503683575746,-2, 1, 1, 0, -3, -2, -1, -2
1503683575763,-7, -1, -5, -3, -2, -1, 0, -2
1503683575784,-4, -3, 1, -2, -14, -1, -1, -1
1503683575806,3, 1, -1, -3, -2, 0, -1, 0
1503683575822,1, 0, -2, -1, -1, -1, -1, -1
1503683575836,-4, -5, 0, 1, 2, -1, -1, 0
1503683575851,-4, -5, -4, -3, -2, -1, 1, 0
1503683575873,1, 2, -1, -3, 1, 0, -3, -1
1503683575899,-6, -4, 1, 0, -2, 0, -1, 0
1503683575911,-2, 1, -1, 1, 0, -3, 0, 0
1503683575934,-2, 2, -2, -1, 1, 0, 0, -1
1503683575956,-3, -3, 0, -3, -2, -1, 0, -1
1503683575978,1, 1, -1, -1, -2, 0, 0, -1
1503683576001,-3, 1, 0, -2, -2, -1, 0, 1
1503683576015,2, -4, 0, 1, 1, -2, -1, -2
1503683576032,-1, -1, -2, 3, 5, -2, 0, -3
1503683576053,1, -1, -2, -1, -1, 0, -2, -2
1503683576076,2, -1, 0, -1, -2, 1, 1, 0
1503683576091,-1, 0, -2, -3, -3, -1, -2, 1
1503683576113,1, -1, 1, 0, -3, -3, -2, -2
1503683576136,1, 1, -2, 0, 0, 0, -2, 0
1503683576151,1, 1, 1, -1, -3, -1, 0, -1
1503683576173,2, -1, -1, -1, -2, -2, -2, 1
1503683576195,-3, -3, -2, 0, -2, -3, -1, -3
1503683576211,3, -2, -2, -1, 1, 0, -1, -1
1503683576241,4, 6, 0, -1, -3, 0, 0, 0
1503683576265,0, 1, -3, -3, -3, 0, -1, 0
1503683576286,0, -1, 2, -1, 0, 0, -2, -1
1503683576302,0, -4, -3, -3, -9, -1, 1, -1
1503683576324,-2, -4, -1, 4, -1, 0, 0, -1
1503683576346,1, 0, 0, -3, 0, 0, -1, 0
1503683576361,-2, -2, -1, -2, 3, -2, 0, -1
1503683576384,-1, 2, 0, 0, 1, -1, 0, -1
1503683576406,4, 0, -2, -3, -2, 0, -1, 0
1503683576421,-2, -3, 0, -1, 1, -3, -2, -2
1503683576444,8, 6, 0, -2, -5, 0, 0, 1
1503683576468,-1, -5, -2, -2, -1, -2, -2, 1
1503683576481,-5, -1, 0, 10, 2, 2, 0, -2
1503683576504,6, 0, -1, -7, -5, 0, -3, -2
1503683576526,10, -1, 0, -3, 3, -1, 1, -1
1503683576541,-10, -3, 2, -4, -3, -2, -1, -1
1503683576564,-1, 1, 3, 23, 19, 0, 0, 0
1503683576586,-8, -2, -4, -12, -27, -3, -1, -2
1503683576610,-14, -6, -4, -5, 2, -3, -2, -2
1503683576624,-8, -1, 2, 3, 7, 3, 2, 1
1503683576646,0, -1, -3, -9, -2, -1, -2, -1
1503683576669,2, 0, -3, -1, 8, -2, 0, -1
1503683576684,2, 1, 0, 0, 6, -1, 0, -2
1503683576707,0, -2, -3, -6, -18, 1, 0, 0
1503683576729,8, 11, -3, 0, 4, 2, 0, 1
1503683576744,-15, -1, -3, -7, -8, -3, 0, -5
1503683576768,-5, -11, -9, -1, 4, 3, -2, 0
1503683576789,8, 0, 4, 19, 41, 3, 1, 0
1503683576804,3, 3, 0, -10, -6, -1, -3, 0
1503683576826,0, 5, 1, -2, -3, -3, -1, 1
1503683576849,11, -6, -4, 0, 3, -6, -3, -1
1503683576864,-4, -9, 11, 9, 7, 2, -1, 0
1503683576886,6, 2, 1, -7, -14, -2, -1, 1
1503683576909,2, 0, 1, -2, -1, -2, -1, 1
1503683576924,-14, -19, -11, -5, -6, -2, 1, -6
1503683576946,4, -15, -3, -4, -5, -2, 0, 0
1503683576970,-11, 2, -6, 1, -7, 1, -2, -14
1503683576983,3, 3, 1, 2, -14, 1, -2, 0
1503683576999,-10, 0, 5, -4, 1, 1, -3, -5
1503683577022,-5, -5, 0, 0, -2, -3, -3, 0
1503683577038,-10, -6, -3, -1, -9, 0, 0, 2
1503683577059,-9, 4, -4, -9, -10, 0, 0, -3
1503683577082,16, -20, -5, -3, -4, -3, -6, 1
1503683577097,-5, -1, -5, -1, -10, 3, -1, -1
1503683577119,-9, 0, -5, 1, 1, 2, 2, 2
1503683577141,8, 6, 5, -2, 6, 7, -4, -5
1503683577157,-3, -1, -2, 4, 4, -19, -3, 0
1503683577180,-14, 1, -10, -5, -8, -6, -7, -10
1503683577202,-14, -4, 10, 6, 7, 6, 8, 7
1503683577217,14, 7, -4, 0, 1, -1, -2, -2
1503683577240,-11, -3, 3, 4, 0, 0, 2, 3
1503683577262,-1, 16, 20, 5, 4, 3, -2, -8
1503683577284,-11, -14, -7, -2, -2, -1, -3, -15
1503683577299,-10, -8, -4, 3, 4, -2, -1, -2
1503683577322,13, -3, -13, -3, -1, 0, 1, 2
1503683577337,14, 0, -2, -8, -12, -1, 0, -2
1503683577359,9, 4, 1, 3, 19, 0, 0, 9
1503683577382,-4, -1, 1, -3, -6, 3, 0, -8
1503683577397,19, 23, 5, 1, -1, -1, 4, 0
1503683577419,6, -9, -7, -1, 1, -3, 0, 8
1503683577442,-5, -2, -1, 9, 10, 2, -2, 4
1503683577457,-7, -15, -5, -3, -6, -2, -2, -2
1503683577485,-9, -21, 7, -2, -14, -1, 0, -8
1503683577487,-3, -8, -10, -6, -7, -2, 3, -2
1503683577509,5, 8, -6, 3, 1, 0, -2, 2
1503683577531,-4, -12, 1, 0, 2, 1, 0, -1
1503683577546,2, 2, 0, -3, 1, 1, 1, 6
1503683577569,4, -7, -7, 4, 17, -1, 2, 1
1503683577591,-3, -3, -7, -5, -13, -3, -3, -14
1503683577608,5, 9, 16, 4, -2, 1, 1, 0
1503683577629,-10, -7, -4, -2, -3, -1, -2, -10
1503683577651,-11, -6, -3, -2, -3, -2, 0, 2
1503683577666,22, 1, 2, -1, 1, 2, 1, 5
1503683577689,10, 1, -3, -4, -6, -2, -1, -19
1503683577712,-43, -23, -4, 1, 1, 1, 3, -1
1503683577726,15, -2, -5, -1, -2, 1, 2, 17
1503683577749,21, 9, -1, -2, -1, -1, -1, 18
1503683577771,5, 1, 0, -1, -1, 0, -1, -11
1503683577786,-16, -1, -3, -3, -4, -3, -2, -12
1503683577810,37, 22, 0, -1, -1, -1, -1, 25
1503683577831,14, -29, 17, 3, 0, -2, -4, 14
1503683577846,-8, -9, 6, 4, 2, 1, 2, -9
1503683577869,-45, -13, -14, -3, -4, -4, -4, 5
1503683577892,2, 15, 3, 1, 1, 2, -3, -39
1503683577906,4, 33, 5, 0, 1, -1, 2, 0
1503683577929,8, 6, -10, -1, -2, -2, -1, 5
1503683577952,10, 31, -2, -1, -1, -2, -2, 9
1503683577966,30, 4, 5, 1, 0, 1, 3, 31
1503683577989,-1, -24, 17, 0, -1, -3, -16, -19
1503683578012,-17, -15, -13, -3, -3, -3, -4, -5
1503683578026,1, -15, -12, -3, -1, 0, 4, -5
1503683578049,-30, -9, -9, -6, -6, -2, -3, -13
1503683578071,-26, -4, -7, -6, -3, -3, 1, -7
1503683578087,-30, -2, 3, -1, -1, -1, -5, -1
1503683578109,42, 9, 5, 3, 0, 1, 6, 33
1503683578131,-95, -4, -1, 0, -2, -1, -6, -12
1503683578146,10, 10, 6, 1, 2, -2, 2, 4
1503683578169,5, 3, -1, 1, -2, 0, -3, -7
1503683578191,-12, -11, 3, -1, 0, -1, -1, -17
1503683578206,11, 12, -3, 1, 2, -1, 6, -1
1503683578229,0, -8, -6, 0, 1, 1, -1, -10
1503683578251,12, 7, 1, -1, -3, -2, -1, 6
1503683578266,31, -4, -3, -3, 0, 0, -2, 1
1503683578289,16, -12, -4, -1, 0, 1, 2, 6
1503683578313,9, 13, 2, -1, 0, 0, 0, -2
1503683578326,-6, -15, -4, -2, -1, -1, -2, -1
1503683578349,-11, 10, 3, 0, -1, -2, -4, 4
1503683578371,0, -3, 0, 2, -2, 2, 0, -5
1503683578386,-30, 11, 13, 1, -1, -2, 0, -2
1503683578409,6, -17, -7, -1, 0, -2, -3, -4
1503683578431,42, 2, -2, -1, -1, -1, -3, 9
1503683578447,-16, -13, -6, -3, -1, 0, 6, -3
1503683578469,6, -3, -4, -2, 0, -1, -7, -1
1503683578485,-6, -10, 6, 5, 2, 0, 2, 1
1503683578499,-4, 26, 1, -2, -3, 0, 2, -1
1503683578523,-2, -1, -6, -4, -2, -2, -3, -7
1503683578544,3, -11, 0, 2, 2, 0, -14, -14
1503683578567,-22, 9, 5, 1, 1, 0, 5, 7
1503683578583,37, 37, 3, -4, -2, -1, 0, 8
1503683578604,4, -17, -4, -1, -1, -3, 0, -5
1503683578620,1, -22, -3, -3, -1, -1, 2, 4
1503683578642,22, 7, 2, 3, -1, 0, -2, -4
1503683578664,29, -7, 6, 13, 8, 4, 3, 7
1503683578679,-56, -8, -7, -9, -6, -3, -3, -3
1503683578702,-6, 6, -4, -5, -5, -5, -5, 6
1503683578724,7, 10, 5, 2, 1, 2, 1, -2
1503683578731,-35, -18, -11, -3, -4, -2, -2, 3
1503683578754,34, 1, 7, 6, 6, 4, -2, -15
1503683578769,-10, 0, -9, -12, -6, -3, 2, 6
1503683578792,-12, -12, -11, -9, -5, -3, 1, 10
1503683578814,-26, -7, 0, 3, -1, -5, -7, -18
1503683578829,16, 0, 3, 3, 2, 1, 1, -2
1503683578852,41, -7, 8, 10, 5, -1, -10, -20
1503683578874,-42, -17, -2, 6, 5, -1, -3, -11
1503683578889,46, 9, -7, -9, -9, -2, 3, 20
1503683578911,6, -3, 1, 1, 1, 2, 8, 2
1503683578934,10, 7, 4, 1, 1, 1, 1, -4
1503683578950,-33, -8, -5, -3, -3, -1, -5, -6
1503683578964,3, -8, -6, 0, 0, 1, 0, 5
1503683578979,2, 1, -4, -1, 0, -1, 0, 1
1503683579002,-11, -14, -3, 0, 0, -2, -5, -10
1503683579024,12, 8, 3, -2, -1, 0, 0, 0
1503683579039,7, 10, 2, 0, -1, -1, 0, -2
1503683579062,14, 6, 0, -4, -2, 0, 4, 3
1503683579086,6, -5, 4, -1, -1, -1, -2, 2
1503683579099,-2, -13, -1, 0, 1, -2, -6, -8
1503683579122,0, -3, -1, -1, -3, -1, 0, 4
1503683579129,-3, 4, 2, 2, 1, -1, 0, -6
1503683579153,-4, 1, 3, -5, -6, 1, -1, 1
1503683579174,-12, -2, 1, 4, 8, 1, 0, -3
1503683579189,0, 0, -3, -1, -5, -1, 1, 0
1503683579211,4, -4, 0, 2, 3, 0, -1, 0
1503683579234,-2, -4, -4, -4, -3, -4, -3, 0
1503683579249,4, 1, 2, 28, 8, 0, -1, 6
1503683579264,1, 4, 0, 2, 9, 1, -2, -1
1503683579279,2, -2, 1, 0, 4, 1, 1, 8
1503683579301,2, -3, -4, -8, -26, -3, -1, -9
1503683579308,3, 1, 2, 19, 31, -2, -2, -4
1503683579324,-1, -1, -5, -8, -17, -3, -2, -9
1503683579339,-10, 2, 5, -4, -9, 0, 0, -9
1503683579362,0, 1, 0, 2, -1, 0, -1, 2
1503683579383,6, 0, -3, -5, 9, -2, -1, -5
1503683579392,-6, -5, -3, -14, -3, -2, -2, -6
1503683579413,-1, 0, 3, -12, -13, -2, 1, 1
1503683579422,5, 1, 1, 0, 8, 0, 1, 3
1503683579444,-11, 2, -1, 0, -5, -2, -2, -1
1503683579466,0, -7, -4, -4, -3, 1, 0, 1
1503683579481,12, 5, 0, -1, -3, -2, -2, 2
1503683579503,-2, -4, -3, 2, 25, -2, 0, 0
1503683579526,-8, 0, -1, -4, -4, 1, 0, 1
1503683579542,-12, 14, 2, -2, -8, -2, -1, -2
1503683579564,6, -7, -3, -1, -4, -1, -1, 1
1503683579590,-1, -3, 1, 3, -3, 0, -4, -5
1503683579602,7, -2, -2, 1, -9, -1, -4, -4
1503683579624,-1, -2, 0, 20, 27, 0, 1, 0
1503683579646,9, 2, -5, -8, -10, -3, -1, 4
1503683579675,1, 1, 0, -2, -6, -1, 0, 1
1503683579692,-1, -1, 1, -1, -3, -1, 0, 0
1503683579714,1, -1, -1, 3, 0, -1, -2, 0
1503683579736,1, 4, 0, 1, -4, -1, -2, -3
1503683579751,-1, 1, -2, -1, 5, 0, 1, 0
1503683579773,3, 1, 0, 2, 5, 1, 0, 0
1503683579796,-4, -4, -3, -4, -7, 0, 1, 0
1503683579818,-3, 0, -1, 8, 8, 1, -2, -1
1503683579828,-1, -2, -1, -7, -2, -1, -1, 0
1503683579842,-1, 0, 0, -1, -2, 2, -2, -1
1503683579864,2, -1, 1, 3, 3, -2, -1, -1
1503683579886,1, -2, -1, 6, 3, -1, 0, -1
1503683579902,1, -2, -2, -6, 6, 1, 2, 1
1503683579925,3, 1, -1, -5, -4, -3, 0, -3
1503683579946,-3, 4, 6, 5, 0, 1, -3, -1
1503683579962,-15, 14, 13, 5, 1, 3, -2, 0
1503683579984,7, -4, -8, -1, 1, -1, -6, -1
1503683580006,7, -6, -3, 3, -1, -1, 4, 2
1503683580022,3, 18, 1, -2, -1, 0, 0, 1
1503683580044,-11, -11, -5, -1, -2, 2, 3, -2
1503683580068,0, -5, -4, 1, -1, -3, 1, -2
1503683580081,-4, 0, -1, 0, 0, -1, -1, -2
1503683580096,4, 0, -4, -5, -1, -4, 1, 0
1503683580111,0, 7, -3, -4, -4, -5, -5, -2
1503683580134,-5, 6, -3, -2, 1, 1, 1, 1
1503683580142,-11, 12, 0, -3, -1, -3, -3, -2
1503683580164,4, -14, -6, -2, 0, -4, 2, 0
1503683580186,5, 7, 3, 2, -2, 0, -1, -1
1503683580202,3, -5, -2, -4, -3, 1, -2, 0
1503683580224,-4, -2, 0, 0, -1, 4, -1, 1
1503683580246,8, -3, 1, 1, 2, 0, -1, 0
1503683580254,2, 1, 0, 0, -2, -1, -1, -3
1503683580276,0, -17, -5, -1, -1, -3, 0, -1
1503683580294,-5, 0, 1, 3, 0, 1, -2, 0
1503683580313,4, 0, 0, -1, -2, -1, 0, -1
1503683580329,-8, 2, 1, -1, 1, 0, -3, -2
1503683580343,0, 1, 1, -1, -3, -2, 0, 0
1503683580361,8, 3, 0, 1, 1, 0, -1, 0
1503683580374,5, 15, 9, 3, 1, -1, 1, 2
1503683580397,-3, -4, -1, 1, -1, -4, -2, -3
1503683580418,-3, -3, -1, 1, -1, -1, -1, -2
1503683580434,-6, -1, -2, -4, -1, 0, 0, -1
1503683580455,-2, -1, 3, 0, 0, -2, -1, -1
1503683580478,-2, -1, -5, -3, -4, 0, -3, -2
1503683580495,1, 0, -2, -1, -1, 0, 2, 0
1503683580509,12, -2, 0, -1, -3, -1, -3, 2
1503683580524,-8, -3, 1, -1, 1, 1, 1, -1
1503683580546,-3, 16, 0, -1, -2, 0, 0, 0
1503683580569,-2, -7, -1, -1, 0, 1, 0, -2
1503683580584,-4, -1, 1, 0, -1, -1, -3, -2
1503683580606,-2, 3, 1, 0, -1, -1, -5, -2
1503683580614,-2, 7, 1, 0, 0, 0, -2, -1
1503683580639,12, -2, -1, -1, 1, -2, 0, 2
1503683580658,-12, -12, -5, -2, 0, 0, 1, 0
1503683580667,-1, 5, 1, 2, 0, -1, 0, -2
1503683580689,-2, -3, -4, 0, 0, 0, -3, -3
1503683580704,-7, 0, -1, -3, -2, -1, 2, 1
1503683580726,3, -4, -4, -2, -1, 0, -1, -2
1503683580749,-9, -6, -2, -2, -2, 1, 3, 0
1503683580764,-1, 0, 1, -1, -1, -1, -1, 0
1503683580786,5, 0, -3, 1, 0, -1, -3, -2
1503683580808,2, -1, -2, 0, 0, 0, -2, 0
1503683580824,-1, -2, 1, 0, 0, -1, -1, 0
1503683580846,-2, 0, 0, 1, -1, 0, -2, 0
1503683580869,-1, 2, 0, -1, -3, 0, 3, -1
1503683580884,-9, -4, -2, 0, 2, -1, -1, -1
1503683580907,-3, -3, 2, -2, -2, 1, 3, 2
1503683580929,1, -1, -1, -1, -2, -2, -2, -1
1503683580943,-3, 0, -2, -5, 0, 0, 0, -1
1503683580958,-2, -1, -1, 0, -1, -2, 3, 1
1503683580976,4, 0, 1, -1, -2, -1, -3, -2
1503683580997,-2, -6, -4, 1, -2, -2, 2, -1
1503683581004,-3, 1, -2, -3, -1, -1, -2, -2
1503683581026,2, 0, -1, -2, 0, 1, 2, 2
1503683581049,1, 1, -2, 0, -2, -2, -3, -1
1503683581066,-4, -1, 2, -2, -3, -1, 0, -1
1503683581086,1, -7, -3, -3, -1, -1, 1, -1
1503683581109,-9, -2, 4, -1, -1, -2, -5, -3
1503683581125,2, 1, -3, -1, 0, 1, 3, -1
1503683581146,1, 1, -1, 0, -1, -1, 0, 0
1503683581169,-4, -3, 0, 0, -1, -1, -1, 0
1503683581183,1, -2, 0, 3, 2, -1, -2, -3
1503683581201,-11, -6, -3, -1, 1, -1, 8, 0
1503683581213,1, 1, 1, 0, 0, -3, -5, -2
1503683581235,2, 0, 0, 1, -3, 0, 0, 3
1503683581258,1, 1, -2, -1, -2, -1, -2, 0
1503683581280,2, 0, -2, 0, -2, -2, -2, -3
1503683581296,-9, -5, -6, -1, 1, -1, -3, -2
1503683581318,5, -1, 1, -2, 2, 0, -1, -1
1503683581340,-3, -5, -4, -1, 0, -1, 2, 0
1503683581355,8, 2, 1, -2, -1, -1, -1, 1
1503683581378,5, -2, -2, -1, -4, -1, 1, 0
1503683581402,-5, 1, 2, 1, 0, 0, -8, -3
1503683581415,-11, -5, 2, 3, 1, -2, 6, 3
1503683581438,-1, 1, 0, 1, -1, 2, 0, 1
1503683581460,-3, 0, 1, -2, -2, -1, -3, -4
1503683581475,1, 3, -1, 1, 1, -1, -6, -3
1503683581498,2, -3, -2, -3, -4, -2, 1, -2
1503683581520,5, -3, -2, 1, 2, -1, 0, -1
1503683581537,1, 2, -3, -6, -3, 0, 3, 1
1503683581565,-1, -3, -3, -2, -8, 0, -2, -1
1503683581580,4, 0, 1, 0, 1, -2, -1, -1
1503683581597,-4, -2, -2, 0, 2, 0, -5, -2
1503683581618,-6, 0, 1, -2, -1, -1, -1, -2
1503683581641,-4, 0, 0, -2, -2, -3, -2, -2
1503683581656,1, 2, -3, -3, -2, 2, 0, -1
1503683581678,3, -3, 1, -1, -4, -2, 1, 1
1503683581700,-4, -1, 1, 1, 3, -1, -4, -1
1503683581716,0, -1, -3, -1, -1, -1, 1, 0
1503683581740,-3, -2, -3, 1, -1, 1, 3, 2
1503683581760,1, -1, 1, 0, 0, 1, -1, 0
1503683581776,-5, 0, 0, 4, 2, 1, -2, -3
1503683581798,-4, 1, -2, -2, -2, -2, 3, -1
1503683581820,2, -1, 0, 0, -2, -2, 0, -1
1503683581838,-1, -3, -1, -1, -1, -1, -3, 0
1503683581858,1, 1, 0, -3, 3, -3, -1, 0
1503683581880,9, 1, -3, -2, -1, -2, -6, -3
1503683581906,-5, -4, 1, 0, 0, -1, -1, -3
1503683581919,3, 6, 0, -1, 0, 0, 1, -1
1503683581942,3, -2, 1, 8, 6, 1, -4, -1
1503683581964,-5, -2, 2, -2, -3, 0, 0, -1
1503683581981,-3, -1, 0, -3, -3, 2, 1, 1
1503683582002,-1, -1, -3, -1, -3, -2, 0, 0
1503683582024,-1, 0, -3, -2, 0, -1, 1, -1
1503683582041,-7, -4, -5, -3, -2, -2, 3, 0
1503683582047,-4, -2, 0, -2, 1, 0, 4, 2
1503683582069,1, 1, -1, -2, 0, -3, -1, 1
1503683582091,-1, -1, -1, 0, -2, 1, -1, -1
1503683582107,0, -2, -1, 1, 0, 1, 1, -2
1503683582129,-6, -5, -3, -3, 0, -1, 1, 0
1503683582151,7, 1, -4, 0, 0, -2, -3, -2
1503683582166,-2, -1, -1, 0, 0, 0, -1, -3
1503683582190,-5, 1, 1, -2, 1, -2, 2, -1
1503683582211,1, 0, 1, -2, -2, -1, 0, 1
1503683582233,-1, 1, 1, -1, -1, 1, -1, 0
1503683582249,-11, -1, -1, 0, 1, 1, 0, 1
1503683582271,-1, -1, 2, 0, -1, 0, -1, -2
1503683582293,-3, -1, -1, 0, -2, -1, -1, -1
1503683582309,1, -4, -1, 2, 1, -2, -7, -5
1503683582331,1, 0, -1, 0, -1, 0, 3, 1
1503683582353,3, 2, -2, 0, -2, -2, 0, -2
1503683582369,-5, -5, -2, -2, -2, -1, -1, -1
1503683582391,0, 0, -1, -2, -1, -1, 1, 2
1503683582413,-4, -2, 0, -2, -1, 1, -1, 0
1503683582421,6, 2, -1, 4, 5, 0, -1, 0
1503683582444,-5, 0, -2, -3, -2, -1, 0, -2
1503683582459,-2, -2, -1, -3, 0, -1, -1, -1
1503683582482,0, 0, 0, -1, -1, 2, 2, 2
1503683582504,-2, -3, -1, 4, 5, -1, 2, 0
1503683582519,-9, -2, 0, -3, -4, -1, -2, -2
1503683582534,-4, 0, 0, -3, -1, 0, 1, -1
1503683582548,0, -2, -3, 0, -1, -4, -2, -1
1503683582571,3, -2, -1, -1, 0, -1, -3, -1
1503683582593,0, 0, 1, -3, -3, 0, -1, -1
1503683582617,-3, 0, 0, 4, -3, -3, -1, -1
1503683582631,0, -2, -2, -3, -3, 0, 3, 1
1503683582654,-1, -2, 0, -1, 0, 0, -1, 1
1503683582668,0, -2, 0, 0, 1, -2, -1, 0
1503683582691,1, 1, 1, 0, 0, -2, -3, -3
1503683582714,-5, -3, -1, -1, -2, 0, 1, -1
1503683582729,-2, 1, -1, -2, 1, -2, -1, -1
1503683582752,-2, -2, 0, -2, -7, 1, -6, -4
1503683582773,2, -2, 3, 2, -1, -2, -2, 0
1503683582788,-1, 0, -4, -1, 1, 0, 0, 0
1503683582814,-3, -1, 0, -2, 0, -1, -1, 1
1503683582834,-1, 1, 0, 3, -1, -1, -5, -3
1503683582849,-11, -3, -3, -2, 1, -1, 2, 0
1503683582871,2, -1, -1, 0, 2, -1, -2, 0
1503683582893,1, -1, -2, 0, -1, 0, 0, -1
1503683582901,2, 1, 2, 4, 3, -1, 0, 0
1503683582924,-3, -2, -3, -2, 2, -2, 0, 0
1503683582939,5, -2, -2, -2, -5, -1, 0, 0
1503683582961,-4, -2, -2, -3, -1, 1, 2, -1
1503683582984,-3, -2, -2, 0, 2, 0, 2, 0
1503683582999,0, 1, 1, 1, 0, 0, -3, 2
1503683583028,5, 1, 1, -3, 3, -2, -1, -1
1503683583046,-7, -6, 0, 2, 0, -1, -1, -1
1503683583059,0, 1, 1, -1, -4, 0, -4, -1
1503683583081,-3, -2, -2, -4, -4, 0, 1, -2
1503683583104,-1, 0, -1, -2, -3, -2, -1, -1
1503683583119,-9, -3, 0, 1, -1, 1, -1, -1
1503683583141,0, 1, 0, -1, 0, 1, -3, 0
1503683583164,1, -1, -1, -2, 2, 0, 1, 0
1503683583186,-1, 1, -2, 0, 2, -2, 1, -1
1503683583202,1, -2, -2, -8, -7, -1, 0, -1
1503683583224,4, 1, -2, -3, -2, -1, -1, -2
1503683583248,-3, -1, -2, 5, -6, 0, 1, -1
1503683583261,-1, -2, -1, 5, 5, 1, -1, -3
1503683583285,-2, -2, -3, 0, 2, 0, -2, 1
1503683583306,17, 6, 1, 11, 6, -1, 0, 0
1503683583322,-1, 1, 0, 3, -4, -2, -2, 0
1503683583344,1, 0, -1, -11, -6, -2, -2, 0
1503683583366,-1, -1, -1, -7, -3, -1, 1, 1
1503683583382,-2, -3, 0, 5, 8, -3, -1, -2
1503683583404,-8, -1, 0, -5, -5, -2, -4, -4
1503683583426,-3, -3, 0, -10, -1, 1, 3, 3
1503683583441,-5, 1, 1, -3, -4, -2, -1, -2
1503683583464,-2, -4, -3, 3, -2, 0, -2, -1
1503683583486,4, 0, -2, -9, -2, -3, -2, -3
1503683583501,-4, -3, -1, 2, 2, 0, -2, -2
1503683583524,-7, -1, 0, -4, 7, 1, -1, -1
1503683583546,-6, 1, -7, -2, 8, -1, -1, -1
1503683583561,6, 6, 3, 6, -8, 0, -1, 1
1503683583584,-1, -6, 1, 1, 1, 0, 0, 0
1503683583606,-3, 13, 5, 1, -1, -1, 2, -2
1503683583621,-12, -8, -1, 6, 3, 0, -8, -7
1503683583651,3, 1, -4, -6, -7, 0, 0, 2
1503683583666,9, -6, -7, -4, -3, -2, 0, -8
1503683583685,19, 14, 7, -2, -12, 2, 0, 4
1503683583704,-14, -19, -10, -3, 0, 1, -4, -3
1503683583726,-1, 1, -1, 0, 1, -1, 3, 5
1503683583741,5, 3, 0, 2, 1, 0, 0, -2
1503683583764,-7, -12, -5, -2, 6, -2, 1, 1
1503683583787,-10, -2, 0, 0, 0, 1, 5, 0
1503683583801,-1, -2, 3, 2, 2, -5, 0, 6
1503683583824,11, 7, 1, 1, -2, -4, -4, -1
1503683583846,1, -2, -4, -4, -8, -3, -1, -5
1503683583861,0, 0, 2, 1, 2, -1, -4, -3
1503683583886,-8, 1, -2, -2, -1, 1, -3, -2
1503683583906,-6, -1, -2, -2, -2, 0, 2, 3
1503683583921,-5, 6, 12, 2, -1, -1, -3, -2
1503683583944,13, 0, -5, 3, 1, 2, 5, 2
1503683583966,-3, 1, 0, -6, -3, -1, 5, -52
1503683583981,16, -3, -6, -2, -2, -3, -2, 66
1503683584004,-9, -12, 0, 1, -1, -2, -2, -9
1503683584026,11, -3, 2, 1, 2, 1, 2, -10
1503683584033,6, -2, -3, -4, -2, -3, -18, -14
1503683584056,24, -12, -5, 0, 1, 2, 4, 3
1503683584079,-3, 11, 1, -3, -2, -2, -3, -4
1503683584094,1, 4, -3, 0, 0, 0, 0, 20
1503683584109,-13, -11, -4, -3, -3, -3, -5, -7
1503683584125,-6, 11, 0, -2, -1, -1, -4, -8
1503683584147,9, -13, -7, -2, -2, -2, 0, 6
1503683584169,1, 2, 5, 2, 6, 1, -1, -4
1503683584184,-3, 3, -1, 1, -2, -1, -1, 1
1503683584207,22, 7, 9, 6, 0, -2, -1, -1
1503683584214,-5, 7, 5, -1, 0, -1, 1, 0
1503683584236,-25, 0, -1, 1, 0, -1, -4, -4
1503683584259,-10, -7, -7, -1, -1, -2, 2, 1
1503683584273,23, -3, 0, -4, -4, -2, -2, 2
1503683584296,15, 11, -6, -1, 0, -1, 0, 2
1503683584318,9, -9, -2, 0, -1, 0, 0, 7
1503683584333,5, -2, -3, -2, 0, -2, 0, 1
1503683584356,2, -7, -2, 0, 2, 2, 4, 10
1503683584364,2, 12, -2, -2, 1, 1, 3, 1
1503683584389,19, 6, 0, 1, -1, -2, -2, 1
1503683584408,26, 5, -1, 0, 1, -1, -5, -1
1503683584424,-8, -3, -3, -2, -1, 2, 6, 6
1503683584447,1, 0, -1, -2, 0, -1, -1, -2
1503683584468,12, 2, -1, 0, 2, -1, 0, -5
1503683584476,16, 16, 6, 2, 4, 1, 4, -13
1503683584498,5, 1, -3, -4, -5, -1, 2, 8
1503683584513,8, 6, 0, 0, 0, -1, 2, 2
1503683584530,20, -7, -6, -3, -2, -2, 0, 1
1503683584544,19, 0, 2, -3, -2, -1, -1, -4
1503683584567,8, -30, -13, -1, 0, 0, -1, 0
1503683584574,9, 1, -2, 2, 0, -2, -4, -5
1503683584601,-5, 3, 0, -3, -1, -1, -1, -4
1503683584618,1, 1, 3, 3, 1, 3, 3, 1
1503683584633,5, -4, 4, -1, -1, -2, -2, 2
1503683584658,-10, -8, -4, -1, -3, -2, -3, -2
1503683584678,2, 17, 1, -1, -1, 0, 1, 5
1503683584694,15, 0, 1, 1, 0, 0, 0, 2
1503683584716,-18, 6, 1, -1, -1, -3, -3, -3
1503683584738,6, -11, -5, -3, -2, 0, -2, -1
1503683584753,-9, 0, -2, 0, 0, 0, 1, -1
1503683584776,-10, -2, -2, 1, 1, 0, -2, -3
1503683584799,-9, -9, -4, 1, 1, -2, -2, -4
1503683584813,1, 0, -1, -5, -5, -2, 0, 3
1503683584836,-60, -10, -3, -1, -1, -2, -6, -13
1503683584859,7, -21, -5, -1, 0, -1, -2, 2
1503683584873,24, 4, 3, 1, -1, 0, 3, 2
1503683584896,4, 6, 5, 1, 1, 2, 1, 0
1503683584918,-53, -4, -1, -4, -3, -1, 1, 0
1503683584935,15, 8, 8, 6, 4, -1, -2, -1
1503683584956,8, 5, 0, -3, -2, -2, -2, 2
1503683584978,11, -2, -6, -6, -2, -2, -2, -1
1503683585001,-18, -3, -2, 0, 0, 0, 0, -2
1503683585023,2, -9, 2, 4, 2, 1, 0, -5
1503683585038,15, -8, -7, -4, -2, -2, 1, 8
1503683585060,11, 0, -2, 6, 1, -1, -2, -2
1503683585076,19, 8, -1, -3, -2, -1, -1, 1
1503683585100,3, 10, 8, 2, 3, 0, -5, -7
1503683585120,-6, -11, -4, -1, -1, -1, 0, 5
1503683585129,-15, -3, 2, 0, 2, 1, 6, 23
1503683585138,30, 6, 10, -3, -8, -3, -6, -8
1503683585159,7, -2, -6, -4, -3, 1, 4, 6
1503683585180,-28, -8, -8, -4, -2, 1, 0, -4
1503683585196,0, 8, 6, 4, 7, 3, 4, 2
1503683585218,-2, 4, -6, -6, -7, -5, -3, 2
1503683585228,-7, 1, -4, -6, -3, 1, 7, 3
1503683585248,-25, -14, -10, -11, -8, -3, -12, 2
1503683585271,20, -7, -1, 1, -1, -1, 0, -1
1503683585286,11, 1, 3, 3, 0, 0, -1, -4
1503683585308,-4, 20, 14, 1, 2, -2, -2, 0
1503683585331,-8, 8, 6, 2, 1, -2, -1, 1
1503683585346,7, -4, -8, -4, -3, 0, 0, -3
1503683585368,0, -8, -1, 3, 0, -1, -8, -3
1503683585391,-15, 1, -3, -4, -2, -2, 3, -2
1503683585406,11, -13, -9, -3, 1, 0, 3, 3
1503683585430,0, -5, -2, 1, 0, -2, 0, 0
1503683585451,7, 6, -7, -3, -1, 0, -2, -1
1503683585467,10, 6, -1, -5, -2, 1, 1, -4
1503683585488,2, -4, 1, 5, 3, 1, 0, 12
1503683585511,5, 3, -4, -2, -3, -2, 0, -2
1503683585526,-2, -9, -4, -23, -26, -3, -1, 0
1503683585548,4, -3, 3, 13, 19, 2, 2, -2
1503683585572,2, 2, 0, -3, -6, -1, -1, -2
1503683585587,-13, -5, -1, 9, 4, -1, -2, -8
1503683585608,2, -2, 4, 15, 1, 0, 2, -3
1503683585632,3, 0, -2, -5, 1, 0, -4, -1
1503683585640,-1, 0, 0, 0, -1, -1, -3, -1
1503683585660,0, -2, -2, -8, -7, -2, -1, -3
1503683585676,1, 0, 0, 7, -1, 2, 1, 3
1503683585700,2, -3, -3, 0, 8, 0, -2, -1
1503683585720,-6, -1, 3, 2, 12, 1, 4, 0
1503683585736,9, -1, 1, -2, -3, -4, -7, -3
1503683585759,0, 4, 3, -1, 3, 0, -1, 0
1503683585780,-5, 0, 1, 1, 2, 0, 2, 0
1503683585800,-5, 1, -1, 1, 2, -1, -3, 0
1503683585819,-2, -1, -1, -2, -2, 0, 0, -1
1503683585827,-4, -2, 0, 2, 1, 4, 4, 0
1503683585848,5, 3, 1, 2, -1, -2, -1, -1
1503683585871,-1, 1, 0, 0, -2, -4, -3, -3
1503683585887,3, 5, -1, 5, 13, 0, 0, 3
1503683585909,-5, -4, -3, -3, -7, -2, 1, 0
1503683585933,-3, -4, -5, -2, -2, -1, 0, 1
1503683585953,-4, -6, 0, -6, -7, 0, 5, 3
1503683585968,-1, 2, 0, 10, 4, 1, -5, -2
1503683585991,-4, -1, -3, -8, -6, -1, -1, -3
1503683586013,-2, 1, 0, 8, 26, 0, 0, 1
1503683586028,-1, -3, -7, -7, -10, -2, -4, 0
1503683586051,-3, 2, 4, -1, -7, -5, -3, -4
1503683586077,-1, -4, -2, -1, -13, 0, -2, -1
1503683586088,4, 1, -2, -1, 0, 0, 3, -1
1503683586111,4, 3, -1, -6, -2, -3, -8, -3
1503683586134,-5, -5, -7, -2, 3, 5, 5, 2
1503683586149,0, -3, -2, -1, -4, 3, 8, 1
1503683586171,-2, 3, 7, 2, 2, 1, -1, -2
1503683586193,-2, -4, -3, 0, 1, 0, 6, 1
1503683586213,-4, -4, -1, -4, -4, -7, -5, -3
1503683586231,2, -5, 2, 1, 0, -4, -2, 2
1503683586257,3, -2, -2, -4, -4, -4, -7, -1
1503683586269,-8, -1, -4, 0, -2, -2, 0, 0
1503683586291,3, 5, 4, -1, 0, 1, -6, -2
1503683586313,0, -2, -4, -4, -1, 2, -1, 0
1503683586320,1, 6, 1, 0, 1, 1, -1, -3
1503683586343,-2, -5, -2, 1, 3, -4, -2, -2
1503683586358,-6, -2, 1, -3, -6, 0, -2, 0
1503683586380,-1, 5, 1, 0, 0, -1, -1, 0
1503683586403,-8, -13, -6, -4, -2, -3, 2, 1
1503683586418,4, -4, 0, 2, 0, -3, -3, -6
1503683586440,-1, -2, 1, 2, -2, 0, -3, -1
1503683586463,4, 0, 0, 4, 1, -1, 2, 0
1503683586478,-2, 1, 1, 0, 0, 0, 0, 1
1503683586500,-1, 2, -3, -1, -2, 2, -5, -3
1503683586523,1, -4, -1, -2, -1, 22, 1, 1
1503683586539,-1, 7, 0, -2, -2, -4, -2, -1
1503683586560,-2, -1, 1, -2, 1, -11, 1, -1
1503683586583,-3, -3, -1, 1, -1, -3, 0, -2
1503683586598,0, 1, 0, 1, 1, -6, -2, -2
1503683586620,1, -2, -2, -1, 0, -5, 0, -2
1503683586643,1, -5, -4, -1, -1, 0, 1, 2
1503683586658,1, -1, 0, -1, 1, 2, 1, 0
1503683586680,-2, -4, -2, 0, 0, 2, -1, -1
1503683586705,1, 5, 4, 0, -3, -3, -2, -2
1503683586718,-2, 2, 3, 0, 1, 4, -1, 0
1503683586740,0, 10, 3, -2, 0, -2, 0, -1
1503683586763,-1, -4, -2, -1, -3, 0, -2, -2
1503683586780,-5, -9, 0, 0, -2, 0, 4, 1
1503683586801,1, 0, -3, -4, -2, 1, -3, -2
1503683586823,2, 3, 2, 2, -1, -2, -7, -3
1503683586840,0, -3, 0, 1, 0, -2, -3, -2
1503683586860,-4, -1, -3, -1, 0, -3, 0, 0
1503683586883,1, 7, 0, -2, -1, 2, 2, 0
1503683586907,1, 1, -4, -3, -4, -3, -1, -2
1503683586920,-1, 6, 2, 1, 0, 0, 1, -2
1503683586948,1, -6, -2, -1, 0, -2, -2, 1
1503683586965,-2, -11, -4, -3, 1, 1, 1, 2
1503683586980,-2, -6, -4, -1, 0, -1, 0, -2
1503683587003,1, 3, -1, 1, 0, -1, -1, -2
1503683587025,-1, -4, -1, -3, -3, -3, 1, -1
1503683587041,-1, -7, -4, 0, -1, -1, -2, 1
1503683587056,0, 4, -1, 1, 0, -2, 1, 0
1503683587071,-5, -4, 0, 0, -1, 1, 1, 0
1503683587093,-2, -5, -4, -2, -1, -1, 2, 2
1503683587116,0, -1, -2, -3, -1, 2, -3, -5
1503683587131,-4, -3, -1, 2, 0, 2, 4, 0
1503683587153,1, 4, 1, 1, 0, -1, -3, -1
1503683587176,1, 7, 2, 0, 1, -1, 0, -1
1503683587191,-4, -1, 2, -2, -1, 1, 1, -1
1503683587213,3, 8, 6, 1, -1, 0, 1, 1
1503683587236,0, -1, -4, -4, -5, -2, 0, -2
1503683587251,-5, -10, -4, -2, 0, -1, 1, 0
1503683587276,1, -9, -4, -2, -2, -1, -2, 1
1503683587296,-2, -2, -1, 1, 0, 0, 0, -1
1503683587312,-3, -8, -4, -2, -1, -2, -1, -1
1503683587333,-4, -2, 0, 0, -1, 0, -2, 0
1503683587356,-2, -3, -8, -2, 1, 0, 1, 0
1503683587371,4, 3, 7, 0, 0, -1, -4, -3
1503683587393,2, 1, 0, -4, -2, 1, -3, -1
1503683587416,-2, -1, -1, 1, 4, 1, 1, 0
1503683587431,-2, 1, -1, 4, -2, -1, -1, 2
1503683587453,-1, -1, -4, -4, -1, 0, 1, 0
1503683587478,1, 1, 2, 3, 0, 1, -2, -2
1503683587492,0, -10, -3, -2, -2, -4, 2, 1
1503683587514,-2, 1, -1, 0, -1, -3, 1, -1
1503683587536,-1, 2, 1, -2, -1, 0, -2, -1
1503683587551,-6, 2, 3, 1, 2, 0, -3, -2
1503683587573,4, 9, -3, -1, -1, 0, -1, 0
1503683587596,-3, -11, -4, -2, -3, -2, 2, -1
1503683587611,1, -7, -2, -2, -1, -2, -1, 0
1503683587633,1, 12, 6, -1, -2, 0, 0, 0
1503683587656,0, -8, -2, -2, -3, -2, -3, 0
1503683587671,0, 4, -3, -2, -2, 0, -1, 0
1503683587693,-2, 2, 1, 0, -1, -1, 2, -1
1503683587716,0, -3, 0, 0, 0, 3, 0, -1
1503683587732,-1, -1, 0, 1, 0, -2, 0, 0
1503683587754,-1, 2, -1, -1, -2, -1, -1, -1
1503683587776,-2, 4, -3, -3, -4, -2, 0, 0
1503683587798,-1, -11, -3, -1, 5, 0, -1, 0
1503683587813,-4, -3, -4, -2, -2, -2, -3, -2
1503683587836,2, -2, 2, -1, 0, 0, -3, -4
1503683587858,-1, 3, 0, -2, -6, 0, 1, 1
1503683587873,1, 14, 6, 1, 1, -1, 0, 0
1503683587896,3, 0, -1, -2, -2, 0, -2, -2
1503683587918,-2, -9, 0, -1, 1, -1, 0, 2
1503683587933,-1, -3, 1, 2, -2, -2, -1, 0
1503683587957,-3, 1, -3, -1, 6, -2, 1, 0
1503683587981,-2, -6, -3, -5, -4, 0, -2, -2
1503683587993,2, 4, -4, -1, 1, -2, -1, -1
1503683588016,-2, -8, -4, -1, -3, -2, -2, 0
1503683588038,1, 8, 2, 1, -2, -1, 1, 0
1503683588053,2, -2, -1, 0, 1, 1, -1, -1
1503683588076,-2, -2, -4, 0, 0, 1, -2, 0
1503683588098,1, 3, 0, 3, 0, 0, 2, 0
1503683588115,-5, -11, -5, -5, -3, -3, 2, 0
1503683588136,0, 4, -1, 1, -1, -1, 0, 0
1503683588158,-1, -3, 4, 0, -2, 1, 4, 2
1503683588173,-1, -4, -3, 0, 3, -2, -2, -4
1503683588196,0, 0, 0, -2, -3, 1, -5, 0
1503683588218,0, 10, 0, -1, -1, -2, -2, -2
1503683588233,-3, -11, 0, -1, -2, -2, -3, -3
1503683588256,1, -1, -3, 1, 3, -1, -2, -1
1503683588278,0, 7, 2, -1, -1, 0, -3, -2
1503683588293,-1, -4, -1, -1, -3, -1, -1, -1
1503683588319,0, -6, -3, -1, -1, 0, -2, 0
1503683588338,-1, 2, 0, 0, -1, 0, 1, 0
1503683588353,0, 1, -2, 3, 0, -1, -4, -1
1503683588376,1, -7, -1, 0, 2, 1, 1, 0
1503683588399,-4, 1, 1, -2, -8, -2, -1, -1
1503683588413,-4, -3, 0, 0, 2, -3, 1, -1
1503683588436,-1, 8, 2, -1, 3, -1, -2, -1
1503683588459,0, 6, 1, 0, 0, 1, 0, 0
1503683588473,-1, -5, -3, -2, -1, -4, 0, -1
1503683588496,1, -2, -4, -2, 2, -6, -1, 1
1503683588520,-1, -3, 0, -1, -2, 4, -2, -1
1503683588533,3, -2, -1, 3, 3, 1, -3, -5
1503683588550,-2, 5, 4, 0, 0, 0, -1, -1
1503683588564,1, 1, 1, -3, -1, -1, 1, -1
1503683588587,1, -5, -3, 0, 0, -8, -4, -1
1503683588609,0, 0, -7, -3, -4, -2, -5, -5
1503683588624,-3, 4, -4, -1, 1, 3, 1, 3
1503683588647,1, -12, -3, 1, 0, -1, -1, -3
1503683588669,0, 1, -1, 3, 0, -2, -4, -4
1503683588685,-1, 0, 0, 2, -1, -1, 3, 0
1503683588706,0, -2, 1, -1, -2, 0, 1, 1
1503683588729,-4, -3, -1, -2, -3, -1, -4, -4
1503683588754,-2, 1, 2, -2, -3, 1, 8, 6
1503683588775,-1, 2, 0, -1, 0, 1, 2, 1
1503683588796,-1, -3, 1, -1, -1, -4, -3, 0
1503683588811,-1, -2, -2, -2, 0, 1, -2, -1
1503683588827,1, 11, -1, -1, -3, 0, 0, 0
1503683588849,3, 2, 0, 3, 0, -2, -4, -5
1503683588871,-2, -11, -3, 0, 3, -2, -2, -2
1503683588888,-1, 1, -5, -3, -2, -4, -3, -2
1503683588909,-1, -8, -4, 0, -1, 2, 0, 1
1503683588931,-1, -4, 1, -1, 1, 0, -1, -3
1503683588946,-1, 0, -2, -1, -2, -3, -2, 1
1503683588969,-1, -1, 0, -3, -3, -2, -5, -4
1503683588991,-1, -5, 1, -1, 0, 0, 2, -1
1503683589006,-2, -4, -1, -2, -2, 1, 4, 0
1503683589030,1, 4, 6, 3, 2, -2, 1, 0
1503683589051,-2, -4, -3, -1, -6, -4, 0, 2
1503683589066,1, 0, 0, 2, 4, 3, -1, -1
1503683589089,-1, -1, -1, -2, -1, 2, -1, -1
1503683589111,3, 0, -2, -4, -10, -2, -1, 0
1503683589126,1, 3, 1, -1, 6, -2, 0, 0
1503683589149,-2, -2, -3, -1, 3, 2, -5, -3
1503683589171,0, -2, 1, 9, -2, -1, 1, 1
1503683589186,-1, -5, -5, -5, -3, -2, 0, -1
1503683589209,-6, -3, -1, -9, -5, -1, 0, 0
1503683589231,0, 0, -1, 0, -7, 1, -2, -1
1503683589246,-1, 2, -1, 4, 0, -3, 0, -1
1503683589269,2, 2, -1, -3, -2, -6, 0, -2
1503683589291,-3, -2, -2, -5, -3, -1, -1, 0
1503683589306,-2, 0, -1, -6, 10, 4, -1, 0
1503683589329,2, -4, -1, -1, 1, -3, -4, -3
1503683589351,-3, 0, 0, 2, -1, -4, -1, -1
1503683589361,-3, -2, -2, -3, -1, -1, -3, -1
1503683589381,-4, -5, 2, 7, -2, 3, 2, 0
1503683589411,0, 2, 1, 1, 3, 2, 0, 2
1503683589426,1, 2, -2, -14, -12, -3, 0, 1
1503683589449,0, -1, -4, 5, 0, -3, 1, -1
1503683589470,-2, -5, 0, -6, -8, 0, 0, 1
1503683589478,-3, -2, -3, 0, -8, -2, -3, -3
1503683589501,-3, 1, -1, -3, -6, 0, 1, -3
1503683589516,9, 9, 0, 1, 6, 0, 2, 2
1503683589538,-7, -10, -4, -2, -6, 0, 1, -1
1503683589561,-10, -9, -5, 0, 0, 0, -2, -3
1503683589576,4, 5, -2, -6, 26, -1, -4, -1
1503683589598,17, 10, 2, 0, -6, -1, -2, 1
1503683589621,-10, -6, 1, -3, -17, -2, -2, -1
1503683589636,8, 3, 1, -1, 13, -4, -2, 0
1503683589651,-16, -8, -1, 1, 6, 2, 1, -4
1503683589673,-2, 2, -3, -3, -1, -1, -1, -3
1503683589689,0, -3, 0, -5, -9, -2, -2, 2
1503683589711,-8, -5, 2, -3, -3, 0, 0, 1
1503683589734,-9, -5, -2, -1, -5, -3, -1, -3
1503683589749,-1, -2, -3, -4, 6, -2, 0, 1
1503683589771,1, 1, 0, -1, -9, -1, -10, -8
1503683589793,-2, 1, -2, 11, 23, 1, 6, 5
1503683589809,14, 5, -3, -4, -9, 3, 1, 1
1503683589832,17, 9, 0, -3, -6, -5, -2, 2
1503683589855,-12, -7, -3, -5, -7, -1, -3, -3
1503683589870,-1, 1, 1, 1, -6, -1, -7, -5
1503683589893,-1, 0, 1, 5, 11, 3, 2, 3
1503683589899,0, 2, 3, -19, -17, 1, 1, 1
1503683589922,-5, -9, -7, 5, 12, 1, 0, 0
1503683589943,1, -2, -4, -1, -10, -1, -6, -4
1503683589958,7, 0, -2, 2, 0, -2, -2, 2
1503683589980,-4, 0, 2, -1, 3, -1, 2, 2
1503683589989,-12, -9, -1, -4, -9, 0, -4, -2
1503683590011,5, 7, 4, 1, 0, -4, -9, -4
1503683590033,-2, -2, -3, -1, -1, 1, 2, 2
1503683590048,1, 5, 0, -5, -3, -11, 0, -1
1503683590063,-18, -9, -3, -3, -3, 1, 3, 3
1503683590078,4, 2, -2, 1, 0, 1, -2, -1
1503683590101,11, 6, 2, 2, 1, -2, -1, -3
1503683590131,-1, -3, 7, 4, -2, 2, 1, 1
1503683590138,9, 2, -2, 0, 4, 2, 1, 2
1503683590163,3, 4, -1, -4, -4, 1, 4, 2
1503683590183,-14, -4, 0, 0, 2, -1, -10, -5
1503683590198,1, 11, -1, 0, -1, -3, -2, 0
1503683590213,2, 2, 0, -1, -3, 0, -5, -4
1503683590243,-3, -3, -5, -1, -2, -1, -1, -3
1503683590258,-16, 0, -1, -4, -3, -1, -2, -1
1503683590280,-4, -3, -2, -1, 2, -2, -2, -3
1503683590303,6, 2, -1, 0, -2, -2, -3, -3
1503683590318,17, -7, -10, -4, -1, 0, -2, -2
1503683590340,-11, -6, -1, 2, 1, 0, 5, -1
1503683590364,-4, 0, 0, 1, 0, 1, 3, 9
1503683590378,8, 11, 0, -3, -3, -2, 0, 2
1503683590401,-2, -2, 0, 1, -2, 0, -4, 1
1503683590423,11, 12, 1, 6, 6, 0, 2, 7
1503683590439,-10, 2, 3, -1, -1, -1, 0, -7
1503683590454,5, -4, -5, -2, -2, -1, -1, 6
1503683590469,14, -3, -6, -2, -3, -1, 2, -5
1503683590491,-8, -3, 1, -2, -2, -2, -3, -10
1503683590513,-4, 6, 4, 0, -2, -3, 1, 3
1503683590529,1, 4, 4, -2, 0, -1, -4, 0
1503683590551,-17, -1, 4, 2, 0, 1, 1, 2
1503683590574,-26, -7, -4, -2, -2, -1, -1, -3
1503683590599,6, -6, -6, -2, -1, 1, -1, -2
1503683590612,6, 3, 2, -1, -2, 0, 2, 4
1503683590633,-4, 2, 0, 1, -1, 0, -1, -4
1503683590656,-5, -4, 0, 2, 1, -4, -3, -3
1503683590671,-7, -4, 2, 0, 0, 0, 2, 2
1503683590693,5, 3, -2, -3, -3, -2, -2, 1
1503683590715,-13, 1, -1, 0, -1, -2, 0, -2
1503683590733,48, 8, -3, -1, 1, -2, -1, 0
1503683590753,-2, 0, 2, 2, 0, 0, -1, -3
1503683590761,1, -3, -3, -1, -3, -1, 0, 0
1503683590783,0, 4, 2, -3, -3, -2, 0, -2
1503683590805,-4, -4, -5, -4, -4, -1, -3, -5
1503683590820,-8, -6, 0, -3, -2, -4, -4, 0
1503683590843,-6, 1, 5, 3, 4, -2, -2, -4
1503683590868,-6, -1, -8, -7, -4, -2, -1, -5
1503683590881,-8, -8, -1, 1, 1, 2, 3, 5
1503683590896,9, 16, 1, -5, -3, -2, 2, 4
1503683590911,-1, -1, -4, 1, 1, -2, 1, 4
1503683590934,2, -5, -2, -2, -1, 0, -1, -2
1503683590955,9, -7, -5, -4, -5, -3, 4, 1
1503683590972,-14, -6, -4, -2, -1, 0, -3, -4
1503683590993,-5, -5, -1, 2, 2, -1, 2, -2
1503683591016,-14, 9, 3, 3, 0, 1, -2, -1
1503683591031,3, -2, -1, 2, 1, -4, -6, -3
1503683591053,11, 7, 0, -3, 0, -1, -2, -2
1503683591076,-11, -8, 2, 3, 1, -1, -3, -4
1503683591091,12, 12, 14, 2, 0, 1, 1, -1
1503683591113,14, -10, -12, -1, -4, -2, -1, 2
1503683591137,-10, -6, -7, -8, -5, -1, 1, 5
1503683591144,1, 1, -1, -3, -1, -2, 0, -3
1503683591165,19, -1, -11, -9, -9, -2, 1, 3
1503683591181,6, 5, 2, -4, -3, 1, 2, -3
1503683591203,-1, -7, 7, 6, 4, 2, 3, 3
1503683591212,-26, -21, -7, 0, 1, 2, -1, -9
1503683591233,30, 13, 2, 3, 0, -2, -1, 6
1503683591256,-1, -1, -8, -10, -6, -1, 2, 3
1503683591271,24, 11, 3, -1, 0, 1, 2, 2
1503683591293,13, -9, -8, -5, 0, -2, -5, -7
1503683591316,-10, -9, 2, 6, 1, 0, -1, -4
1503683591332,19, -10, 3, 8, 5, 1, 1, -4
1503683591353,-4, 6, -1, 0, -1, 1, 0, 2
1503683591361,-7, 2, 0, 1, -2, -1, 0, 3
1503683591383,22, 3, -2, -2, -6, -2, 0, 2
1503683591405,2, 1, -1, 1, 1, -1, 2, -2
1503683591420,-12, -12, 16, 7, 2, 0, 0, -3
1503683591443,3, 4, -10, -5, -3, -4, -2, -1
1503683591465,6, 10, -2, -4, -2, -1, 1, 1
1503683591481,-4, -5, -7, -2, 0, -1, -2, -1
1503683591505,1, -9, 3, -1, 0, 0, -2, -1
1503683591525,0, -4, -1, -1, 0, -1, -2, 0
1503683591547,-3, -3, -1, 0, -1, 0, -1, -3
1503683591563,-7, 4, -2, 3, 0, -1, 0, -1
1503683591592,-10, 2, -2, -3, 1, 0, -3, -2
1503683591610,-6, -5, -3, 0, -1, -2, -1, 1
1503683591616,-2, -3, -2, 0, -2, -1, 0, -3
1503683591640,-4, -2, -1, 1, -1, 0, -1, 7
1503683591653,-3, -6, -7, -2, -1, -1, -4, -14
1503683591676,5, 4, -3, 1, -2, -1, 0, -4
1503683591698,-5, 4, -4, -5, -1, 3, -1, 1
1503683591713,-2, -2, -2, -2, -1, 0, -1, 2
1503683591735,3, 1, 2, 2, 0, 0, 1, 9
1503683591758,0, 0, 3, 6, 5, -1, -1, 0
1503683591773,0, 4, 5, -4, -2, -1, 2, 0
1503683591796,-3, 2, -1, -1, 0, -2, -1, 6
1503683591818,5, 9, 2, 0, -2, 0, 2, -2
1503683591833,-7, -5, -5, -2, -1, -1, -2, 12
1503683591856,0, -5, -2, 0, 1, 1, -2, -12
1503683591879,-5, 4, -1, -3, -2, 1, -3, -13
1503683591893,-3, -7, -3, 0, -2, -1, -1, -1
1503683591916,-2, -13, -5, -1, -2, -2, -5, -12
1503683591938,3, 0, 0, -3, 0, -1, -1, -3
1503683591953,1, -5, -4, -1, 0, -1, -7, -2
1503683591975,0, 1, 0, -2, -7, -1, -3, -7
1503683591983,4, 0, 1, 2, -3, -2, -5, 1
1503683592005,-1, 1, 1, -1, 0, 0, 1, 1
1503683592027,0, 1, -4, -1, -3, 0, 0, -1
1503683592044,-1, -5, -3, -1, -1, 0, 0, 1
1503683592065,0, -1, -2, -1, 0, -1, 0, 1
1503683592088,-1, 0, 2, 6, 9, -1, -2, -1
1503683592103,2, 2, -3, -4, -5, -2, -2, 1
1503683592125,-3, -4, -3, -3, -4, -1, -1, -1
1503683592148,-1, -1, 2, 0, -3, -1, -2, -8
1503683592163,5, 2, 4, 19, 17, 2, 0, 1
1503683592185,-1, 1, -3, -8, -9, -1, -2, 4
1503683592210,-3, -2, 1, -1, -1, 0, 1, 1
1503683592223,-3, -2, -5, -4, 2, -2, 0, 0
1503683592246,1, 0, 0, -7, -15, -2, -1, 0
1503683592267,0, 0, 1, -2, -6, -2, 0, -2
1503683592283,1, -1, -2, -8, -10, 4, 3, -2
1503683592298,0, 2, -1, -6, -3, 3, -4, 0
1503683592313,0, -3, -1, 4, 5, 0, -1, -2
1503683592336,1, 0, 1, 2, 2, -4, 0, -3
1503683592358,-4, 0, 1, 1, 3, -3, 0, 0
1503683592373,-3, -1, -1, 4, 0, -1, -1, -1
1503683592395,-5, -4, -3, -2, -4, -1, -3, -7
1503683592418,-1, -2, -4, 0, 1, -3, -2, 0
1503683592433,2, 2, -1, 1, 0, -3, -1, 3
1503683592456,-1, 2, 2, 0, -8, -1, 0, 1
1503683592479,0, -3, -2, -3, 0, -2, -3, -4
1503683592487,1, -3, 2, 1, 4, -2, 0, 0
1503683592507,-1, 3, 1, 2, 3, 0, -9, -7
1503683592530,-1, 0, -2, -3, -3, -4, -4, -3
1503683592546,-1, -2, -1, -3, -1, 1, 3, 0
1503683592567,-2, 0, -1, -1, 2, 1, 3, -1
1503683592590,1, -1, 2, 0, 0, -2, -1, 1
1503683592613,-5, -1, -1, 4, 8, 1, 0, -1
1503683592635,1, -1, -4, -4, -8, 0, 3, 1
1503683592651,0, -2, -3, -2, -1, -1, 2, 1
1503683592673,0, -2, 0, 0, 0, 0, -2, -2
1503683592688,-1, -2, 1, 1, 1, 2, 0, 0
1503683592695,-1, 1, -1, -1, 2, 2, 1, -1
1503683592718,-2, -5, -4, -4, -2, -2, 5, 2
1503683592740,0, 0, -1, -2, -2, 0, 2, -1
1503683592756,0, -1, 0, 2, -1, -3, -1, -3
1503683592782,-1, 0, 3, 1, 0, -1, -2, -2
1503683592800,0, 1, -1, 0, -2, -1, 0, -1
1503683592816,-1, -2, -2, -3, -2, 1, -2, 0
1503683592838,-1, -1, -3, -8, -18, 0, 0, -2
1503683592860,0, -8, 1, 3, 3, 1, -1, -4
1503683592875,3, -3, -5, -4, -1, -2, 4, 0
1503683592898,1, 7, 2, 0, 4, -2, 1, 4
1503683592921,0, -1, 1, 3, 5, -2, 0, 0
1503683592935,-2, -1, -3, 2, 4, -1, -3, -2
1503683592958,-2, -3, 0, -3, 0, -3, -2, -1
1503683592982,1, 1, -2, -1, -1, 1, 0, 1
1503683592996,-4, -1, -2, 2, 5, 2, 7, 3
1503683593018,-1, 1, 0, -2, -2, -2, -1, 0
1503683593040,0, 2, -1, 0, -7, -2, -2, -3
1503683593058,0, 1, -3, -2, 0, -2, -2, -1
1503683593078,-1, -5, 0, 1, -1, 1, -4, -2
1503683593100,1, 0, 0, -1, 0, -5, -4, -2
1503683593118,-2, 4, 0, 0, -7, -5, -5, -1
1503683593131,0, -2, -1, -2, -1, -2, -1, 2
1503683593154,-2, -2, 0, 1, 0, 0, -1, -4
1503683593168,-3, 1, -5, -2, -2, 0, 3, 0
1503683593192,1, -4, 0, -2, -1, 0, 2, -1
1503683593213,1, -1, 1, -1, 1, -1, -4, -3
1503683593228,-1, 3, 1, 0, 1, -2, -10, -3
1503683593235,-3, -1, -2, 1, -1, 1, -2, 2
1503683593258,2, -2, 0, -4, -2, 2, 1, -2
1503683593280,0, -2, -2, -1, 0, 1, 1, 3
1503683593289,1, -2, -1, 0, 1, 0, 2, 1
1503683593296,-1, -3, -3, -3, -1, -1, -3, -4
1503683593318,-2, 1, -2, -2, 0, 0, -1, 0
1503683593341,-1, -1, -3, 2, 6, -1, -2, -1
1503683593363,2, -3, 1, -1, -3, -2, 0, 1
1503683593379,-2, 0, 2, -1, -2, 0, -1, -3
1503683593400,-1, 1, -3, -2, -2, -2, -3, 2
1503683593409,-1, 0, 1, 2, 1, 0, -2, -1
1503683593431,0, -3, -1, -1, 1, -1, 4, 3
1503683593454,0, 1, -2, -3, -2, 0, 0, 1
1503683593469,-1, -4, 1, 0, -2, -1, -1, -2
1503683593491,-1, 1, 0, -3, 0, 0, -3, -2
1503683593513,1, -4, -1, 1, 2, -1, 0, -2
1503683593521,-1, 3, 0, -1, -1, -1, 1, -1
1503683593543,-2, -3, -3, -4, -1, -1, -2, -2
1503683593558,0, -3, -1, 0, -4, -2, 0, 0
1503683593581,-2, -2, 0, 0, -1, -1, -4, -3
1503683593603,-1, 0, -1, 0, 1, 0, -1, 2
1503683593620,2, 0, 0, 2, 1, -1, -4, -4
1503683593640,-2, 0, -2, 0, 0, 0, 1, 0
1503683593663,1, 2, 0, 0, 1, -2, 0, 3
1503683593679,0, -1, 0, -2, -2, 0, 0, -1
1503683593700,-1, -2, 0, 3, -2, 1, -2, -1
1503683593724,0, -2, -1, 0, 0, 1, 1, 0
1503683593738,-1, -1, 0, -3, -1, -1, 2, -1
1503683593760,0, -2, -2, 1, -3, 1, -1, 0
1503683593783,0, 0, 0, -1, 0, -2, -6, -4
1503683593798,-3, -3, -1, -1, -2, -1, -1, -4
1503683593822,0, 2, -1, -1, -3, 1, 2, 1
1503683593843,1, -1, -1, -2, 1, -2, -1, -2
1503683593859,-2, 0, -1, -1, -1, 0, 1, -2
1503683593880,-1, -1, -3, -3, -1, -2, -2, 0
1503683593903,-4, -2, -3, 0, 2, -1, 0, 0
1503683593919,0, -1, 2, 0, -1, -2, -1, -1
1503683593940,-1, -1, -2, 0, 3, 0, -1, -3
1503683593964,0, -2, -1, 3, 0, 0, -2, 2
1503683593979,-1, -1, 0, -1, -2, 0, -2, -1
1503683594000,-2, -2, -3, -2, -1, -1, 1, 0
1503683594008,1, -1, 1, 0, 0, 1, 1, 0
1503683594031,0, -2, -1, 0, -1, 1, -3, -1
1503683594056,-3, -1, -3, -3, -3, 0, 0, 1
1503683594068,2, -2, -2, -3, -8, -1, -3, -2
1503683594091,-1, 0, 0, 2, 0, 0, -1, 1
1503683594113,-1, -1, -4, -1, -1, 0, 2, 2
1503683594129,0, -1, 1, 1, 3, -1, -1, -1
1503683594151,-1, 1, -2, -3, 0, 0, -4, -2
1503683594173,-1, 2, 1, 0, 2, 0, -2, -3
1503683594190,-3, -1, 0, -1, -4, -1, -1, -3
1503683594203,0, -1, 0, 0, 2, -1, -1, 0
1503683594219,0, -1, 1, -1, 2, -3, -1, -1
1503683594240,-2, 1, -3, 0, 0, 0, 2, 0
1503683594263,0, -1, 0, -3, -1, -2, -2, -2
1503683594278,3, -2, -1, 0, 0, -1, 1, 3
1503683594300,-1, 2, 0, 0, -1, -2, -7, -5
1503683594325,-1, 0, -1, 4, 2, 0, 0, 0
1503683594332,-1, -2, -2, 3, 4, 1, -2, -3
1503683594353,1, -3, -3, -1, -1, -1, 1, 1
1503683594375,-2, -3, 0, 1, -2, -1, -4, -2
1503683594392,1, 0, -1, -1, 0, 0, 0, 0
1503683594413,-2, 2, -1, -2, 0, -2, 6, 4
1503683594435,-1, -2, 2, -1, 0, -1, -1, -2
1503683594451,2, 1, -1, -1, 1, -2, -3, -6
1503683594473,0, -1, -1, -1, -4, -1, 0, 2
1503683594496,1, -3, -2, -2, -1, 1, 0, 0
1503683594511,2, 2, 4, 2, 1, -2, -6, -5
1503683594534,0, -1, 1, 3, 6, 1, 1, 2
1503683594555,-1, 0, 0, -1, -2, -1, -2, -3
1503683594571,1, 0, -4, -4, -2, -1, 0, 1
1503683594586,3, -4, 1, 1, -3, -1, -4, -5
1503683594601,0, -1, -2, -7, -8, -4, 2, 1
1503683594623,-2, -1, 0, -2, -2, 0, 0, 1
1503683594645,0, -1, -3, -2, -2, -2, -2, -4
1503683594661,1, -2, 0, 1, 2, -1, 1, 2
1503683594683,-3, -2, -2, 2, 0, 0, -1, -3
1503683594705,2, 0, 0, 0, 0, -2, -2, 1
1503683594720,0, -3, -6, -3, -2, -1, 0, 3
1503683594743,0, 0, 0, -1, -2, -2, 0, 2
1503683594766,-3, 1, 1, 0, 0, 0, -5, -6
1503683594780,-2, -4, -1, -1, -1, 1, 0, -2
1503683594803,-2, -3, 1, 2, -2, -1, 1, 0
1503683594828,1, 1, 1, 0, 0, 0, 2, 1
1503683594834,-1, 2, -2, -2, -4, 0, -1, 1
1503683594856,-1, 0, -1, 1, -3, -2, 0, 0
1503683594873,-2, -3, -2, -5, 0, 1, 2, 1
1503683594896,-2, -3, 1, -3, -4, -2, -3, 2
1503683594916,1, -4, -2, -4, -1, -2, -4, -4
1503683594931,-2, 1, 0, 0, -5, -1, 0, 2
1503683594954,-2, -1, -2, 2, 3, 3, 1, -1
1503683594976,1, -3, -1, -2, -1, 0, 1, -2
1503683594991,-3, 1, 0, 2, 1, -1, -3, -4
1503683595014,1, -3, 3, -2, -2, -2, -2, 0
1503683595036,-2, 0, -1, -2, -1, 0, -1, 2
1503683595043,0, 0, 0, 2, 1, -1, -6, -2
1503683595066,-1, -1, 0, 0, -8, -1, 0, 0
1503683595081,-2, 1, -2, -4, 0, 1, 1, -1
1503683595103,-1, 1, 0, -1, 0, -2, -1, 0
1503683595125,1, -2, 1, 20, 11, 1, 0, -1
1503683595134,-2, 0, 1, 0, 2, -1, 4, -5
1503683595155,-2, 0, -2, -6, -4, -4, 1, 6
1503683595172,0, 2, 0, 20, 15, 1, 1, 0
1503683595193,-2, -2, -2, -6, -7, -2, -1, -4
1503683595216,-1, -2, -1, 5, 6, 1, -2, -1
1503683595232,0, 2, 1, 6, 7, 4, -1, -2
1503683595254,-6, -3, -1, -14, -8, -2, -6, -13
1503683595275,0, -3, -2, -14, -2, -2, 1, 5
1503683595299,-2, -2, -2, 2, 12, -4, -5, -1
1503683595314,-1, 2, -2, -11, -10, -2, 0, -5
1503683595337,-1, -1, -2, -1, -10, -3, -3, -1
1503683595358,3, -2, 0, -1, -20, 1, 0, 5
1503683595374,5, 3, 2, 6, 0, -1, 0, -1
1503683595396,-4, -4, -3, 2, -5, 2, 5, 0
1503683595418,2, -4, -7, -8, -1, -1, -1, 0
1503683595435,2, 2, -2, 3, 4, 0, 2, 5
1503683595456,3, 4, 1, 14, 5, -1, -1, 3
1503683595478,-6, 10, 1, -7, 13, 1, 1, -3
1503683595494,2, -1, 0, 0, -2, 0, -8, -5
1503683595515,-4, -3, 0, 1, 20, 0, 0, -2
1503683595540,-2, -1, -1, -20, -10, -1, -2, -2
1503683595554,-6, -13, -9, -5, -13, -4, -5, -6
1503683595575,2, -14, -2, 3, 0, -2, 2, 0
1503683595599,-1, 0, 2, 13, 8, 2, 2, 6
1503683595613,5, 4, 0, 3, -22, -7, -4, -3
1503683595636,2, -1, -1, -2, -9, -2, -1, -2
1503683595658,-1, 2, 4, -4, 6, 3, -2, -3
1503683595674,-2, 4, 0, 1, 8, 0, -1, 2
1503683595695,-1, 8, 3, -4, -12, -3, 0, 4
1503683595718,-4, -6, -4, -5, 5, 1, 4, 9
1503683595736,2, 2, 2, 5, 1, -3, -8, -6
1503683595755,-2, -2, -4, -4, -4, -3, -12, -9
1503683595778,1, 2, 3, 8, 5, 1, 3, -10
1503683595794,-10, 4, 3, -5, -1, 0, 4, 13
1503683595816,-17, -11, -6, -3, -1, -2, 3, -1
1503683595838,12, 2, 2, 3, 3, 1, 2, 12
1503683595853,-8, 1, 0, -1, -2, -3, 9, 7
1503683595877,5, 5, 2, 1, 0, -1, 6, 3
1503683595898,-7, -3, 0, 4, 6, 1, -1, -15
1503683595913,-2, 22, 10, -4, -6, -1, -6, -12
1503683595937,3, -9, 3, 2, 2, 0, -1, -9
1503683595958,10, -4, -1, 1, 0, 1, 2, -13
1503683595975,0, -2, -3, -4, -7, 0, -1, -2
1503683595995,-3, -8, -8, -3, -5, -4, -1, 12
1503683596018,1, 4, 2, 1, 0, 1, -2, -6
1503683596033,21, 6, 0, -2, -6, -1, -4, -1
1503683596055,-22, -13, -7, -1, -2, 1, 0, 6
1503683596079,2, 1, -7, -7, -1, -2, 3, 7
1503683596093,20, 4, -4, -2, -3, -1, -1, 14
1503683596116,-16, -3, 5, 1, 3, 0, -5, -9
1503683596140,17, 8, -2, -3, -2, -1, -3, -2
1503683596153,-14, -7, 0, 3, 3, 2, -6, 6
1503683596176,-3, -10, -4, 0, -1, -1, 3, 2
1503683596198,-17, 1, -4, -1, -1, 0, -3, -5
1503683596221,2, -10, -8, -1, -2, -3, -2, 2
1503683596238,-6, 1, -2, 3, 5, 3, 3, -5
1503683596258,2, -2, 0, 0, 1, -2, 1, -1
1503683596282,1, -2, 0, -2, -2, -3, -2, -9
1503683596296,5, 13, 6, -1, -1, -2, -1, -9
1503683596318,0, -9, -3, 0, -2, -2, -3, 0
1503683596340,1, 18, 11, -1, -1, -1, 1, 2
1503683596356,-4, -12, -8, -3, -2, 1, -2, 1
1503683596378,0, -1, -1, -1, 0, 0, 1, 1
1503683596400,4, 13, 3, 1, 0, -1, -1, -2
1503683596417,3, -8, -5, -1, 0, 1, 1, 0
1503683596439,-5, 0, -3, -3, -2, -1, 4, 7
1503683596460,2, -3, -3, -4, -1, -1, -2, -1
1503683596477,-4, -14, -6, -1, -2, -3, -5, -12
1503683596498,-10, -11, 0, -1, -3, -5, -5, -2
1503683596520,-4, 7, 0, 1, 0, 1, 0, -3
1503683596536,-2, 2, 1, -2, -2, -1, 2, 3
1503683596558,0, -1, 0, -1, 0, 2, 1, 3
1503683596580,-3, 2, -6, -5, -6, -6, -9, -4
1503683596589,-9, -9, -5, -4, -2, 1, 0, 4
1503683596612,-15, -10, 2, 3, 1, 1, 0, -1
1503683596625,15, 9, 3, 3, 3, -2, -4, 2
1503683596643,0, 2, -5, -1, -5, -2, -1, -7
1503683596656,0, -5, -2, -4, -3, -2, -3, 4
1503683596678,24, 13, 8, 5, 2, 0, -1, -3
1503683596700,-18, 4, -5, -9, -8, -1, 1, 7
1503683596716,-4, 4, -1, 2, 0, 0, -2, -10
1503683596738,19, 20, 9, 2, 1, 2, 1, 0
1503683596760,0, -3, 2, 2, 2, 2, 7, 9
1503683596776,-35, -8, -5, -4, 0, -2, 2, 6
1503683596798,15, -6, -3, -2, -2, -3, -6, -3
1503683596821,-4, -6, -5, -4, -2, 2, 1, 2
1503683596836,-1, -18, 1, 3, 1, -1, -7, -9
1503683596858,19, 23, 16, 7, 6, 0, 0, -2
1503683596881,-9, -6, -7, -6, -6, -2, -3, 0
1503683596888,-4, 0, 7, 3, 5, 2, 2, 0
1503683596911,1, 1, 1, 3, 1, 1, 2, 3
1503683596925,3, -1, 7, 3, -1, -1, 0, -1
1503683596949,-12, -12, -3, 0, -2, 2, 0, 5
1503683596970,-1, 1, -1, -1, 0, -1, 0, 0
1503683596985,-4, -5, -4, -2, -2, -2, -1, -2
1503683597012,-3, 2, 2, -1, 1, -1, -1, -3
1503683597030,-6, -6, -2, 0, 0, 0, 0, 2
1503683597046,3, 0, 1, -1, 1, -4, -6, -2
1503683597068,0, 11, -6, -2, -4, -1, -1, -4
1503683597090,0, -3, 0, 1, 0, 0, 0, 0
1503683597105,-3, 0, 1, 1, 1, -1, 0, -1
1503683597128,4, 13, 2, -1, -1, -1, -2, -1
1503683597150,-3, -6, -4, -3, -2, 1, -1, 2
1503683597172,9, 0, -1, 0, -2, 0, 0, -5
1503683597188,-8, -4, -2, -2, -1, -1, -2, 12
1503683597213,-1, -3, -1, 1, -1, -1, 0, -11
1503683597232,4, 4, 2, -3, -3, -1, 0, 7
1503683597249,-1, -1, -2, -2, -2, 0, -1, -10
1503683597270,-1, 0, -1, -4, -3, -2, 1, -6
1503683597292,-1, -1, -1, 1, 2, 1, -2, -2
1503683597308,-3, -2, 0, 1, 1, -2, 0, 4
1503683597330,-2, -1, 0, -2, -2, -1, -2, 1
1503683597352,-2, -2, -2, -3, 6, 0, 0, 0
1503683597368,1, -2, -6, -5, -9, 1, 2, 0
1503683597390,-2, -1, 0, -3, -1, -3, -2, -1
1503683597414,2, -3, -1, -4, 3, 0, 0, 0
1503683597422,-3, 0, -2, -7, -31, -3, -2, 1
1503683597443,-2, -2, 0, -4, 6, 2, 1, -1
1503683597458,1, -2, -3, 0, 6, -2, -3, -3
1503683597481,-2, -2, -1, 1, -7, 0, 2, 5
1503683597503,-2, 2, 0, -1, 9, -1, -4, 1
1503683597519,1, -2, 0, -1, 8, 2, -4, -3
1503683597541,0, -3, -5, -3, 0, 2, 1, 3
1503683597563,-1, -1, -2, -5, 1, -3, -1, -5
1503683597581,1, -2, 2, -4, -3, -2, 3, 5
1503683597600,-1, 1, -1, 3, 0, 0, -2, -2
1503683597623,0, 2, -3, -2, 12, 0, -1, 1
1503683597646,-3, -4, -1, -4, -4, -2, 1, -2
1503683597660,-2, -2, -1, -2, 0, -1, 0, -1
1503683597683,0, 3, -1, 0, -4, 4, 1, 1
1503683597698,2, 0, -1, 1, -8, -2, -2, -1
1503683597735,-1, 0, -3, -1, -1, -2, 0, -2
1503683597751,-1, 1, 2, 0, 1, 0, -1, -4
1503683597758,-1, 0, 1, -1, -1, -5, -10, 2
1503683597786,0, 2, 1, 1, 2, -1, 1, 0
1503683597803,-2, -20, -6, -1, 0, 0, 0, 1
1503683597818,0, -1, -1, 1, -2, -1, 2, -1
1503683597840,3, 3, 1, -1, -3, -2, -4, 2
1503683597863,-2, 2, -2, 0, 4, 0, -3, -2
1503683597878,-2, -1, 0, -8, -10, -4, -2, -3
1503683597900,-1, 0, -1, 2, 1, -1, -3, -1
1503683597923,-1, 5, 0, -15, -12, -1, 0, 0
1503683597938,-2, -3, -1, 5, 5, 0, 1, 2
1503683597961,-1, 0, 0, -2, 6, 1, 2, 0
1503683597984,-3, 1, -3, 4, 4, -3, -3, -3
1503683597998,1, 0, 1, 2, 1, 1, 1, 2
1503683598021,-2, 0, 0, 7, 4, 3, 0, -4
1503683598043,6, 1, 3, -1, -1, -2, -12, -3
1503683598066,-2, -2, -4, -3, 2, -6, 4, -3
1503683598080,0, -1, -2, -2, -4, 0, 3, 6
1503683598103,-1, 9, -5, -3, -2, 2, 4, -1
1503683598120,-4, -2, 0, 7, 19, 3, 0, -8
1503683598133,0, -1, -1, -3, 0, 6, 2, 0
1503683598157,2, 1, 0, 8, 23, 1, 2, 1
1503683598171,-2, -6, -4, -3, -15, 0, 0, -7
1503683598194,1, 15, 6, 1, -5, 3, 4, 5
1503683598220,0, -8, -6, -3, -9, 0, 3, -2
1503683598231,-1, -5, -4, -7, -9, -4, 0, 0
1503683598254,0, 4, 1, -2, -3, -4, -3, -2
1503683598276,-1, -6, -2, -5, -10, -3, -2, 6
1503683598298,-1, 1, -1, -7, 5, 0, 1, -1
1503683598313,-2, -2, -1, 2, -2, 4, 6, 3
1503683598336,0, 0, 1, 2, 3, 2, -5, -3
1503683598359,-3, 3, 1, -1, -4, -2, -3, -5
1503683598366,-2, 1, 0, 0, -1, -2, -4, 2
1503683598380,1, 4, -3, -1, -3, -3, 1, 3
1503683598403,2, -3, -2, -2, -3, 0, -1, -3
1503683598427,-1, 7, 1, 0, -1, -1, -4, -4
1503683598440,-3, -4, -1, -1, -1, 0, -1, 4
1503683598463,-2, 0, 1, 1, 0, -4, -1, -9
1503683598488,-3, -6, -2, -4, -1, 0, 1, 2
1503683598501,-1, 2, 4, 1, 0, 0, 1, 4
1503683598524,1, -3, 0, 0, 0, -2, -2, -1
1503683598546,-1, -1, -2, -1, 1, 1, 0, 0
1503683598561,0, -8, -3, -2, 0, 2, 1, 4
1503683598583,-3, -4, -5, -2, -1, -1, 1, 2
1503683598605,0, -2, -1, -4, -1, -2, 0, 4
1503683598614,-1, 4, 1, -2, -2, 0, 2, 1
1503683598636,-2, -1, 0, -3, 0, -2, -2, -1
1503683598651,-2, -5, -2, 0, -1, -3, -1, 0
1503683598673,-1, 3, 2, 3, 3, -1, -1, 6
1503683598697,1, -4, 0, -2, -5, 1, 0, 4
1503683598711,-1, -3, -2, -1, -2, -2, -1, 0
1503683598733,-2, -3, -2, 0, 1, 1, 2, -1
1503683598757,0, -5, -2, -4, -1, -1, 2, -2
1503683598771,-2, 5, 1, -1, -1, -2, -3, -1
1503683598793,3, -2, -3, 0, 2, 0, -4, -6
1503683598816,-1, -1, -3, -2, -1, -1, 2, 1
1503683598831,0, 0, 0, 2, -1, 1, 1, 0
1503683598853,-1, -2, -1, -1, 0, -2, -1, -1
1503683598876,-1, -1, -1, 0, -1, 1, -3, -3
1503683598891,0, 0, 0, -1, -1, -2, -1, 1
1503683598914,-2, 3, 1, 1, 0, 0, 0, -1
1503683598936,0, -4, -3, -1, -2, 0, 2, 4
1503683598951,0, -8, -2, -2, -2, -1, -1, -1
1503683598973,-2, -1, 0, 1, 0, -1, -3, -3
1503683599003,-1, -2, -2, -3, 1, 0, 0, -2
1503683599018,-3, -4, -3, -3, -2, 0, 0, 5
1503683599034,-1, 3, -1, -2, 0, 0, -5, -6
1503683599059,0, 0, -2, 0, 0, -3, 3, 1
1503683599078,-1, 7, 3, 1, -1, -1, 2, 0
1503683599093,-3, -20, -7, -2, 0, 0, 3, 2
1503683599116,1, -1, -2, 0, -1, 0, -2, 0
1503683599138,-1, -2, -2, -1, -1, -1, 0, -5
1503683599153,-2, 2, 0, -1, -1, -2, -2, 1
1503683599176,1, 1, -1, 1, -2, -2, -3, -4
1503683599198,0, 3, -1, 0, -1, 0, -1, 0
1503683599214,0, 6, 5, 2, -1, 0, -4, -5
1503683599237,1, 0, -3, -1, 0, -1, -5, -3
1503683599259,-1, -5, 3, -2, 0, -1, 1, 0
1503683599274,-2, 7, 3, -1, -2, -2, -3, -1
1503683599297,-4, -4, -3, -2, 0, 0, 3, 4
1503683599318,-1, 0, 1, 0, 0, -3, -2, -2
1503683599335,-3, -8, -4, -3, -1, -3, -2, -5
1503683599356,2, -1, -4, -1, -2, -3, 0, 2
1503683599378,-3, 7, 4, 2, -1, -1, -1, -1
1503683599397,2, -6, -3, -1, -3, 0, -5, -3
1503683599416,-1, -3, -3, -1, 0, -2, -1, 2
1503683599438,-2, 0, -1, -2, -2, 1, 2, 2
1503683599453,-2, -1, -1, -2, -2, -1, 5, 5
1503683599476,3, -1, 1, 1, 1, 1, 0, 0
1503683599498,-1, 0, 2, 0, 1, -2, -1, -2
1503683599513,-2, 0, -2, 1, 0, 0, 0, -3
1503683599536,1, 1, -4, -4, -1, -3, -6, -14
1503683599558,-24, 2, 2, 1, 1, 2, 4, 3
1503683599573,3, -3, -3, -1, -2, -1, -1, 0
1503683599597,5, 1, 0, 1, 0, -1, -6, -2
1503683599619,1, 1, -1, -2, -1, -1, 3, -2
1503683599634,2, -2, -4, 0, 2, -1, -3, 0
1503683599656,5, -3, -1, -1, -1, 0, 1, 2
1503683599678,3, 3, 1, 0, -1, -1, -2, 1
1503683599696,-1, -1, -2, 0, -3, -2, 2, 1
1503683599716,0, 8, 5, 0, 1, 2, 2, 2
1503683599739,-2, -3, -3, -2, -4, 0, -1, -3
1503683599753,0, -3, -2, 1, -1, -1, -2, -4
1503683599776,2, 1, -1, 0, 0, 0, -1, -1
1503683599798,-1, -2, 0, 0, -1, -2, -3, -2
1503683599813,2, -4, -2, -2, -1, -1, 3, 4
1503683599836,-2, -3, -3, -4, 0, -1, -1, 6
1503683599858,-3, -3, -4, -1, -1, -2, 2, -2
1503683599874,-3, -1, 2, 1, 0, 0, 1, 0
1503683599898,1, -1, -2, -2, -3, -2, -2, -1
1503683599918,1, -1, -1, 0, -1, -3, 0, 0
1503683599940,0, -1, 1, 1, -1, 0, -1, -4
1503683599956,-1, -1, 1, -1, 0, -2, 1, 1
1503683599978,-1, 0, -1, -3, 0, 1, -2, -3
1503683600002,-1, 0, 1, 0, 0, 1, -4, -4
1503683600016,-1, -1, -2, -1, 1, 1, 0, -2
1503683600040,-2, -3, -3, -1, -2, -1, 2, 1
1503683600060,-3, -4, -3, -1, -3, 2, 5, 4
1503683600076,1, 3, 4, -1, 1, -3, -5, -5
1503683600100,-2, 1, -1, -3, -2, -3, -4, -4
1503683600120,1, -2, -3, 0, 0, 0, -2, 0
1503683600138,3, -5, -1, -2, -1, -1, -2, -4
1503683600159,-2, -2, -2, 2, 0, -3, 0, -2
1503683600181,-4, 0, 1, -1, -2, -2, -3, -3
1503683600196,1, -1, 0, 0, 0, 0, -4, -2
1503683600218,0, 3, -2, 1, -2, 0, -1, 1
1503683600241,-1, 3, 0, 1, -1, 2, -2, -1
1503683600264,1, -2, -4, -3, -1, 1, 1, -2
1503683600285,-1, -2, -2, -1, -2, -3, 3, 8
1503683600301,2, -3, -1, -1, -1, 1, 0, 2
1503683600316,-2, 2, 2, 0, 3, -2, -3, -2
1503683600340,-4, -3, -2, -2, -2, -2, 0, 0
1503683600360,-1, -3, -1, -1, -2, 1, 3, 1
1503683600376,-4, -1, -3, -2, 1, 0, 0, -1
1503683600401,-2, -3, 0, 2, -1, -1, 0, -1
1503683600420,2, 1, -1, -4, -2, -2, -5, -2
1503683600436,0, 3, 3, 3, 2, 0, -2, -1
1503683600458,-3, -4, -2, -3, -2, 0, 0, 4
1503683600480,0, -1, -4, -4, -3, 0, 2, -4
1503683600496,0, 1, 1, 0, 2, -3, -2, 0
1503683600518,0, -2, 3, 17, 7, 0, -5, -1
1503683600540,-4, -3, -4, -8, -4, 0, 4, -1
1503683600558,3, 3, -2, -3, 0, -2, -3, -3
1503683600579,2, 7, 0, -2, -3, 0, -1, 4
1503683600603,-2, -3, -2, -5, -3, -4, -3, -7
1503683600616,0, -2, 0, -6, -23, 1, 0, -2
1503683600639,0, -2, 0, 9, 3, 0, 3, 1
1503683600660,-4, -3, -2, -7, -4, -1, 0, -2
1503683600676,0, -3, -4, -3, -5, -3, -1, 3
1503683600698,-1, 15, 4, 3, 4, 0, -2, 0
1503683600720,-6, -4, -4, -14, -4, -1, -1, -5
1503683600742,3, 1, 5, 20, 17, 3, -3, 0
1503683600758,-2, 4, 4, -7, -1, 2, 0, 0
1503683600780,6, -3, -4, 2, 3, 6, -1, 0
1503683600796,-4, -2, 3, -1, 3, -1, 0, -4
1503683600819,-3, -5, 0, -6, -7, -7, 2, 1
1503683600841,0, -8, -3, 10, 4, -8, -2, -3
1503683600863,-9, -7, -4, -7, 6, -3, 2, 3
1503683600879,0, 12, 10, 1, -3, 0, -2, -3
1503683600900,-1, -6, -8, -1, 2, -5, 2, -2
1503683600923,1, 4, -6, -8, -8, -3, 1, 1
1503683600939,-10, -13, -1, 4, -1, 3, -8, -10
1503683600960,-11, -1, 10, -1, 1, 2, 1, 1
1503683600983,-4, -9, -6, 1, 1, -2, -12, -2
1503683600998,2, 0, -2, 3, 6, 2, 7, 5
1503683601020,6, 5, 0, 3, 0, 0, 3, 1
1503683601043,5, 5, 0, 9, 6, -1, -2, 1
1503683601058,18, 16, 7, -5, -7, -1, -6, 1
1503683601080,39, 21, -2, -3, -3, 0, 1, 3
1503683601106,-20, -20, -5, -3, -2, -1, 1, 1
1503683601118,-5, -3, 1, 6, 4, 1, -2, -2
1503683601141,-8, -13, -4, -14, -11, -3, -2, -4
1503683601163,-4, -2, -1, -4, -31, -8, 0, 2
1503683601179,-12, -19, -6, -9, -13, 3, 4, -5
1503683601200,11, 10, -2, 1, 6, -1, 2, 5
1503683601223,2, -3, -6, -9, 0, 1, -3, -3
1503683601240,-2, 3, 1, 4, 4, 4, -2, -7
1503683601261,-2, 0, 0, 2, 10, -3, -2, -2
1503683601283,-12, -6, 1, -1, -1, -4, -5, -4
1503683601298,-7, 2, -2, 3, 5, 1, -3, -9
1503683601320,-2, 0, -3, 2, 3, 0, 2, 2
1503683601343,-7, 15, 10, 2, 2, 1, 0, 5
1503683601358,-2, -14, -8, -2, -1, 0, -1, -2
1503683601382,0, 0, -4, -4, 7, -3, 2, 3
1503683601403,6, 1, 1, 0, 0, 5, -12, -8
1503683601418,17, 6, -1, 3, 7, -6, 5, 4
1503683601442,-10, -9, -5, -5, -8, -1, 4, 2
1503683601463,-4, -8, 0, -4, -4, 0, 5, 6
1503683601479,6, -2, -5, -1, -1, -2, 1, -8
1503683601500,-14, -13, 2, -4, 1, -1, -2, 0
1503683601523,-13, -3, 0, 12, 20, 1, -7, -6
1503683601538,-1, -12, -2, 2, -1, 3, 0, -1
1503683601560,11, 2, 0, -4, -4, 0, 5, 14
1503683601584,4, 13, -1, -1, -5, -5, -12, -18
1503683601598,-13, -5, -4, 1, 2, 1, 0, -6
1503683601614,-5, 1, -5, 0, 0, 1, -1, -6
1503683601628,-4, 0, -1, -2, -14, -4, -1, -13
1503683601651,-3, 2, 1, 0, 2, 1, -5, -3
1503683601672,-13, -9, 0, -1, 3, 2, 1, -9
1503683601688,6, 6, 1, 1, 3, -2, -2, 0
1503683601713,19, 4, -2, -1, 0, 0, -2, -3
1503683601732,-14, 6, 0, -1, 1, 1, 2, -16
1503683601748,-1, -3, -3, 0, 0, -1, -1, 10
1503683601770,38, 3, -2, -1, -1, -4, 0, 20
1503683601792,-16, -9, 3, 4, 3, 2, 0, -17
1503683601815,4, -8, 0, 0, -1, 1, 2, 12
1503683601830,-3, -4, -2, -1, -1, 0, 0, 11
1503683601854,-1, 4, 1, 1, 0, -1, -4, -7
1503683601878,-14, -8, -2, -1, -1, 3, 18, -4
1503683601890,-25, 3, 4, 4, 1, 0, -5, -19
1503683601913,-1, -16, 7, 2, 2, 1, -3, 11
1503683601935,-4, 12, 13, -1, -1, -1, -4, 9
1503683601950,9, 0, -10, -3, -2, -4, 0, 2
1503683601972,-7, 1, -18, -3, -4, -1, -1, 56
1503683601995,-11, -1, 19, 1, 0, -1, -4, -8
1503683602025,-7, -17, -4, -2, 0, 1, -2, -19
1503683602041,8, -7, -7, -2, -2, -1, 2, 11
1503683602063,24, 3, -3, -2, -2, -4, 0, 37
1503683602085,2, 5, 5, 2, 0, -1, -2, -13
1503683602101,-7, -9, -3, 0, -1, -1, 2, 3
1503683602123,-14, 11, -2, -2, -3, -1, -1, -10
1503683602146,-23, -5, -5, -1, 0, 0, 1, 6
1503683602161,13, 1, 3, 3, 1, 0, 1, -9
1503683602183,7, 2, -3, -1, 2, 0, -3, 7
1503683602205,12, 7, 3, -2, -2, -1, -7, -8
1503683602221,4, 1, -5, -4, -4, 0, 3, 17
1503683602243,-11, -14, -9, -3, -2, -1, 1, -9
1503683602265,5, 1, 1, 1, 0, 0, 2, 0
1503683602281,-8, -7, 5, -1, -2, -2, -3, -7
1503683602302,-15, -4, 0, 3, -1, 2, 1, 3
1503683602310,2, 10, 3, 1, -1, 0, -5, -4
1503683602333,-6, -6, -4, -3, -1, 0, -9, 11
1503683602355,-3, 2, -1, 0, 0, -2, 5, -5
1503683602370,-25, -2, 1, 3, 1, 1, 2, -2
1503683602393,19, 0, -1, -1, -1, -1, 0, -2
1503683602415,0, -7, -3, 0, -1, -1, -7, -14
1503683602430,-3, 6, 8, 0, -1, -2, 3, 0
1503683602453,-10, -22, -6, -1, 2, -1, 3, 5
1503683602475,1, 4, 1, -2, -3, 1, -1, 2
1503683602490,4, 20, 9, 0, -3, 1, -2, 2
1503683602505,-10, 4, 6, -1, -1, -1, 0, -6
1503683602521,-3, 9, 9, 5, 4, 0, -2, 2
1503683602543,0, 9, 0, -1, -1, 1, 0, -3
1503683602565,-8, -13, -8, -3, -2, -1, -3, 2
1503683602584,-4, -13, -5, 1, -1, -1, -3, -5
1503683602603,2, 10, 1, 2, 0, 0, 1, -5
1503683602625,1, -7, -2, 2, 1, 1, 1, -3
1503683602641,-4, 0, -1, -2, -1, 1, -1, -2
1503683602663,3, 7, -1, -3, -2, -2, -2, 7
1503683602685,-8, -4, 0, -2, 0, -2, -3, -7
1503683602708,-5, -3, -10, -1, -2, -1, 1, -1
1503683602723,-26, -11, -4, -3, -1, 1, 2, -2
1503683602745,5, 4, 0, -3, -1, -2, -1, -3
1503683602768,28, 9, 2, -2, -1, -2, -5, 0
1503683602784,-10, 1, 0, -7, -7, 3, 9, 20
1503683602805,4, 5, -8, -9, -8, -8, -6, -9
1503683602828,3, 1, -2, -2, 0, 1, 0, 0
1503683602844,7, -39, -15, -7, -6, -4, -5, -7
1503683602866,0, 1, 8, 7, 5, 0, -3, -2
1503683602888,-8, 4, 3, 5, 4, 1, 3, 4
1503683602902,-5, 9, 8, 6, 1, 1, 0, 3
1503683602926,30, 12, -8, -6, -3, -6, -8, -10
1503683602948,-3, 7, 6, 0, 1, 2, 3, 6
1503683602963,-1, 6, -2, 1, 0, -1, -1, 0
1503683602990,-7, -7, -1, -1, 0, 1, -1, -4
1503683603007,10, -1, 5, 5, 4, -1, 1, 2
1503683603014,7, -6, -1, 2, 0, 0, -1, -2
1503683603037,-3, 10, 5, 3, 3, -1, -3, 0
1503683603053,0, -5, -9, -1, -1, 0, 1, 0
1503683603082,5, -4, 4, 1, 1, -2, 0, -2
1503683603097,-1, -8, -2, 0, 2, 0, 0, -1
1503683603113,-1, -8, 3, 0, 0, -1, -1, 0
1503683603135,-1, 5, -3, -2, -3, -1, -1, -1
1503683603157,-2, -5, 2, 1, -7, -2, -1, 7
1503683603172,4, -6, -1, -2, -2, 1, 0, 5
1503683603188,-1, 1, 0, 0, 1, -2, -1, -4
1503683603203,-4, -2, -1, -2, -2, 2, 1, 7
1503683603227,-3, -1, -2, -2, -2, 0, 2, -9
1503683603248,-2, -1, 5, 6, 2, -2, -2, -9
1503683603264,-1, 4, 5, 4, -1, -3, -2, -3
1503683603288,-1, -2, -5, -6, -5, 0, -3, -7
1503683603308,-6, -1, -5, -5, -4, 0, 1, 1
1503683603323,0, 4, -3, -1, -1, -1, 0, -3
1503683603345,5, -3, -1, -1, 7, -1, -3, 4
1503683603368,-1, 1, -1, -2, -2, -2, -9, -7
1503683603391,1, 0, -2, -3, -5, 0, 4, 4
1503683603405,-1, -3, -2, -2, -2, 1, -1, 6
1503683603428,-3, -4, -3, -3, -12, -2, -2, -3
1503683603443,0, 0, -2, 0, 2, -1, -1, 3
1503683603465,-5, -2, -1, 0, -2, 0, 4, 1
1503683603489,-6, -2, -1, 0, -3, 1, 0, -6
1503683603496,-1, -4, 0, -1, -1, 1, 0, 2
1503683603518,0, -3, -2, -3, -13, -2, 1, 4
1503683603541,0, 1, 0, 1, 2, 0, 0, -2
1503683603557,-2, 1, -1, -1, 4, 0, 0, -2
1503683603578,-4, 1, -3, -3, -4, -2, -2, -2
1503683603601,0, -2, 0, -4, 2, -2, -2, -2
1503683603616,0, -5, -2, 6, 9, 0, -2, -5
1503683603638,1, 1, 0, 3, 11, 0, 1, 0
1503683603661,-1, -2, 2, 1, 0, 0, -2, 1
1503683603675,-4, 0, -6, -4, 2, -4, -4, -4
1503683603691,-4, -3, -3, 0, -3, 4, -2, -2
1503683603720,-2, -4, -1, 31, 13, 1, 11, 3
1503683603736,1, -3, 4, -9, -8, -1, 6, 2
1503683603759,0, -1, -2, -8, -5, -9, -3, 0
1503683603781,1, 0, -3, -5, -4, -7, -9, -1
1503683603796,-3, -1, -5, -9, -12, -4, -5, -2
1503683603819,1, 4, 0, -5, -5, -2, -8, 1
1503683603841,-1, 0, -1, -4, -1, 2, -2, -3
1503683603858,-3, -1, -1, -3, -3, -1, -2, -2
1503683603878,-1, 0, 2, 6, 8, 3, 1, -1
1503683603901,1, -1, 2, 7, 2, 2, 3, 0
1503683603915,-1, -1, 0, -2, 3, -1, -2, -2
1503683603930,-3, -1, 0, -1, 3, 2, 0, 0
1503683603945,0, 0, -1, -4, 1, -3, -2, 0
1503683603968,-2, -1, -1, -3, -1, -2, -1, 0
1503683603992,-1, 11, 3, -1, -1, -2, -5, -5
1503683603999,-2, -1, -1, 0, 1, -3, 0, -1
1503683604021,1, 0, -7, -4, -4, 1, 0, 1
1503683604036,-1, -4, -2, -1, 0, -3, 1, -1
1503683604061,-1, -2, -2, -2, -3, -2, 2, 1
1503683604081,-2, 0, -2, -1, -2, 5, 0, 2
1503683604097,-2, -1, -1, -1, -2, -1, -1, -1
1503683604132,-1, -5, -4, -2, -2, 0, 0, -3
1503683604148,1, -3, 1, 1, 0, -2, 0, -2
1503683604170,-1, 0, -2, -2, 0, 3, -1, -4
1503683604185,-5, -1, 0, -1, -1, -3, -1, -8
1503683604208,-1, 4, 2, 0, -2, -2, 3, 6
1503683604231,-4, -2, -1, -1, 1, 0, -1, -3
1503683604246,1, 0, -1, -2, -2, -1, -3, 0
1503683604264,-1, -5, -3, 0, 1, -3, 2, 0
1503683604280,-4, -1, 0, -2, -1, -3, 0, -1
1503683604298,0, 2, 0, -2, 1, 1, 0, 0
1503683604323,2, 3, 6, 4, 1, 0, 0, -1
1503683604336,0, 1, 0, -2, -1, -2, 4, 2
1503683604368,-1, 0, -1, 1, 0, 1, 2, 1
1503683604388,-1, 0, 1, -1, -1, 0, 0, -1
1503683604410,-3, 2, 0, -2, 1, -1, 0, -1
1503683604425,-3, -1, -1, 0, -2, -2, 1, 0
1503683604448,1, 0, -1, 1, 1, 0, 2, 2
1503683604471,0, 0, -1, -1, -1, 3, 0, 1
1503683604485,-3, -2, -4, -1, 0, -1, -2, -2
1503683604508,3, 1, 1, -2, -3, -1, -1, 3
1503683604530,-2, -3, -1, -1, 0, 0, 0, -1
1503683604545,0, -2, 0, -2, 0, 0, -1, 2
1503683604568,-2, -5, -3, -2, -1, 0, -2, -3
1503683604591,-1, 0, 0, 3, -3, -2, -1, 2
1503683604613,-1, 0, 0, -1, 2, -2, -1, -3
1503683604631,2, 0, -2, -1, -1, 1, 0, 3
1503683604650,-5, -2, -2, -3, -2, -3, -2, -4
1503683604673,0, 0, -1, 1, -1, -2, -2, -3
1503683604681,0, 1, -2, 0, 1, -1, 3, -1
1503683604703,3, 2, -3, 0, -3, 0, -1, -1
1503683604718,1, -1, 0, -1, -2, 0, -1, -2
1503683604740,0, -5, -3, -3, -1, -1, -1, 0
1503683604765,-1, 2, 2, -1, -1, 0, 0, -1
1503683604778,0, -2, -1, 2, 2, -1, -3, -3
1503683604801,-3, -2, -3, -1, -1, -2, 1, -1
1503683604823,0, 1, -1, 0, -1, -3, 2, -2
1503683604833,-3, -2, -1, -3, -2, -2, 2, -1
1503683604853,-1, 1, -1, -3, 0, -1, 0, 1
1503683604868,1, -3, -4, -1, -1, 1, 0, 2
1503683604890,1, -3, -1, 1, 0, -1, -4, -2
1503683604913,2, 2, -1, -2, -1, 0, 2, 1
1503683604928,0, -2, 1, 1, 0, -1, -1, -4
1503683604950,2, -1, 1, 0, 0, 4, 2, 1
1503683604973,0, -2, -4, -2, -1, -3, -4, -3
1503683604988,-4, 1, -3, -4, -2, -2, 0, 4
1503683605013,0, 5, 2, 0, -1, 0, 0, 2
1503683605033,-2, -4, -2, 0, -1, -1, -2, -5
1503683605048,-1, -1, 1, 0, 0, 1, -1, -2
1503683605071,0, -1, 1, 1, 1, -2, -4, -8
1503683605093,1, -2, -1, -2, -3, 0, -2, -1
1503683605109,-2, 3, -3, -2, -1, -2, -2, 1
1503683605130,1, -5, 1, -1, 0, -1, -3, -3
1503683605139,-2, 0, -2, -2, -1, -1, -2, -1
1503683605160,-1, 0, -2, 1, -2, -1, -2, 0
1503683605182,0, 0, 0, -1, -1, -2, -4, -5
1503683605200,-3, -2, -1, -3, 1, -2, 1, -1
1503683605221,1, 1, 0, 2, 0, 0, -5, -3
1503683605243,1, -3, -2, 0, 0, 1, 1, 2
1503683605258,-3, -4, -6, -4, -3, -2, 1, -3
1503683605281,-2, -4, 0, 3, -2, -1, 5, 3
1503683605304,-1, 1, -2, 1, -1, 0, -2, 2
1503683605319,2, -3, 1, 0, 0, -3, -1, -1
1503683605341,-3, 0, -1, -3, -1, -1, -2, -2
1503683605362,-2, -2, -1, 1, -1, -2, -2, -3
1503683605378,0, 3, 1, -2, 0, -1, -2, -3
1503683605407,2, -1, 1, -1, 0, -2, -4, -4
1503683605423,0, -1, -1, -2, -1, 0, 2, -1
1503683605438,-1, -5, -2, -2, 0, 0, -1, 0
1503683605461,-1, -1, 0, 0, -2, 1, -1, 0
1503683605483,1, 2, -1, 1, 1, 0, -6, -3
1503683605506,0, -2, -4, 0, -2, -1, 1, 0
1503683605522,0, -1, 0, -4, 0, 0, -1, 1
1503683605543,-1, 2, -2, 1, -2, -1, -3, -5
1503683605565,-1, 0, -1, 0, -3, -1, 1, 2
1503683605581,-3, 0, -4, 0, -1, -1, 1, -1
1503683605606,0, -3, 0, -2, -1, 0, 1, 0
1503683605625,0, -1, -2, 0, -1, -1, -2, 0
1503683605641,-2, 1, 0, -1, 1, 1, 4, -1
1503683605663,-5, -2, -2, -2, 0, -1, 5, 3
1503683605685,-1, -2, 0, -3, -4, 0, -1, 0
1503683605703,0, -2, -1, -1, -1, -3, -3, 0
1503683605723,2, 1, 2, 1, -1, -1, -3, -1
1503683605746,1, 1, 3, 8, 19, 2, -2, -3
1503683605761,-13, -5, -3, -21, -24, -3, -3, -4
1503683605782,4, 1, 2, 32, 27, 0, -2, -3
1503683605790,6, 11, -4, -32, -4, 0, -1, 1
1503683605813,-9, -2, 3, 14, 21, 0, -1, -3
1503683605835,2, -12, -8, -7, 3, -36, 0, -3
1503683605850,-2, 22, 8, 4, 10, 50, -1, -1
1503683605875,-6, -16, -2, 0, -5, 0, -6, -1
1503683605895,9, 2, 4, 6, 11, 1, -1, -1
1503683605910,12, 5, -4, -1, -4, -10, 1, 1
1503683605932,-16, -5, 12, -6, -3, -5, 0, 1
1503683605955,-23, -26, -17, -7, -4, -1, -3, -6
1503683605970,-12, -11, 2, 1, 11, 1, -1, 0
1503683605992,-1, 11, 21, 0, 5, -7, 5, -6
1503683606015,3, -10, -5, 1, 0, -5, -3, -11
1503683606030,6, 17, -1, -7, -6, 2, 1, 7
1503683606052,11, 9, 0, -4, -6, 0, -2, 3
1503683606077,-1, -13, -11, 2, 7, 2, -6, -3
1503683606090,-4, -5, -8, -7, -10, -2, 0, 2
1503683606113,20, 23, -1, 0, 1, 0, -4, -6
1503683606135,-11, -8, -4, -2, -7, 0, 1, 1
1503683606150,2, 8, 9, 4, 7, -1, -1, -8
1503683606175,0, -1, 0, 5, 15, 2, 2, 4
1503683606196,-5, -7, -8, -5, -7, 0, 6, -1
1503683606210,17, 2, -6, -6, 8, 0, -1, 5
1503683606232,0, -14, -4, -4, -15, -1, -2, 0
1503683606255,-22, -13, -6, -3, -8, -2, -3, 3
1503683606270,0, 0, 0, 7, 16, -9, 2, 7
1503683606292,-5, -3, 1, -2, -3, -2, -1, -3
1503683606315,-3, 7, 9, 10, -10, -4, -5, -3
1503683606330,9, -5, 14, 6, 15, -2, -2, -3
1503683606346,-13, -10, 2, 3, -4, -16, -4, 3
1503683606361,4, 3, 5, 3, 1, -1, 3, 4
1503683606384,9, 10, 1, -5, 0, 2, -8, -5
1503683606405,11, 3, -5, -2, 1, 2, 0, 0
1503683606420,0, 5, -6, -1, 2, 1, 4, 0
1503683606443,-18, -32, 3, 0, 0, 0, -8, -3
1503683606465,8, 19, 2, 2, 5, 0, 7, 7
1503683606488,3, 9, 2, 0, 0, 1, 0, 1
1503683606503,-11, -12, -2, -3, -14, -2, 0, -4
1503683606525,0, -1, -2, -1, -3, 0, 0, -6
1503683606548,-13, -10, 2, -5, -3, -1, 4, 1
1503683606563,8, 1, -5, -4, 1, -2, 0, 3
1503683606586,5, 9, 3, 3, 2, 2, 0, -7
1503683606608,-2, -1, 3, 5, 8, -1, -12, -1
1503683606630,9, 7, -3, 5, 13, 14, 4, -3
1503683606645,-1, 1, -5, -2, -10, -10, -3, 0
1503683606668,5, 15, -1, -6, -6, -7, -3, 4
1503683606697,2, 9, -1, -2, -10, 1, 0, -1
1503683606713,20, 21, 2, 0, 0, -1, -8, 2
1503683606735,-14, -11, -5, -3, -1, -6, 2, -1
1503683606757,-5, -3, -1, -1, 1, -1, -3, -4
1503683606772,5, 13, 10, 1, 0, 0, 4, 7
1503683606796,-7, -29, -17, -4, 1, 0, 5, 5
1503683606818,-16, -20, -8, 1, 1, 6, -2, 10
1503683606832,4, 6, 11, 0, -3, -3, 2, 1
1503683606858,4, 6, -1, -3, -3, -1, 3, -4
1503683606880,-2, 4, -4, -2, -4, -6, -3, -17
1503683606886,-17, -6, -2, -2, -2, 0, 9, 1
1503683606907,-3, 2, 6, 4, 0, -1, 3, 4
1503683606923,-6, -6, -6, -1, 1, -4, -1, -6
1503683606947,18, 2, 1, 0, -3, -2, -14, 4
1503683606968,-9, 19, 10, -2, -3, -2, 12, 2
1503683606983,-28, -1, -2, -6, -3, -4, -20, -11
1503683607005,5, -12, -4, -3, 0, -2, 7, 11
1503683607027,26, 8, -6, -2, -1, -3, -2, 5
1503683607035,-12, -3, 7, 4, 5, 0, 4, 0
1503683607057,19, 18, 7, 3, 1, -2, -4, 6
1503683607072,1, -1, -7, -2, -2, -1, 7, 21
1503683607095,7, -14, 0, 0, 1, -3, -6, -4
1503683607121,-13, 4, -3, -2, -1, 0, -1, 4
1503683607132,4, -2, 2, 0, 1, 0, -2, -17
1503683607157,-6, 2, 4, -2, -3, 1, 8, 7
1503683607177,-4, -4, -7, -2, -2, -3, -1, 0
1503683607192,8, 3, -5, -5, -4, 0, -3, 5
1503683607216,-8, -11, -5, -2, -1, 1, -2, -5
1503683607237,-10, -24, -7, 1, 1, 0, -5, -15
1503683607253,-22, -9, -4, -1, -2, -2, -1, 1
1503683607275,-5, 4, -1, -2, 0, -1, -5, -4
1503683607297,3, 10, 3, 2, -2, 0, 0, 0
1503683607313,8, 10, 0, -4, -5, -2, 2, 9
1503683607335,7, -10, -1, 0, 0, -1, 0, -9
1503683607365,3, 3, -1, -3, -1, 1, 0, 3
1503683607379,-25, -3, 0, 3, 3, 0, -2, -6
1503683607395,22, 8, 2, 1, 2, 0, -1, 0
1503683607418,5, 4, -2, 2, 1, 0, 3, -7
1503683607440,0, 7, 4, -2, -1, 0, 0, 2
1503683607456,25, -5, -9, -6, -4, -3, -4, 0
1503683607477,-16, -2, 0, 0, 1, 1, -4, 0
1503683607499,-7, -2, -4, -2, -2, -2, -1, -5
1503683607518,3, 3, 4, 3, 0, -2, -1, -1
1503683607537,0, -9, -2, -1, -1, -1, 1, 3
1503683607559,-1, 0, -3, -4, -3, 0, -2, -1
1503683607571,10, -2, -9, -5, -1, -2, -2, 0
1503683607590,-4, -2, 2, 2, 0, -2, -1, 2
1503683607605,1, 3, 5, 3, 2, 1, -1, 0
1503683607628,-8, -3, 1, -2, -2, -1, -1, 2
1503683607652,-13, -8, -8, -6, -4, -3, -1, -2
1503683607665,9, 10, 2, 1, 1, 0, -3, 1
1503683607688,-10, -8, -6, -3, -3, 1, 1, 0
1503683607710,-4, 0, 3, 1, 0, 0, -1, 0
1503683607726,5, 2, 1, 0, 0, 0, 0, -5
1503683607747,-5, -3, 0, 0, 0, -1, 0, -1
1503683607777,-5, 23, 7, -3, -4, -2, -2, 3
1503683607799,6, -6, -3, 0, -2, 0, 1, 1
1503683607815,12, -1, -1, -4, -3, -2, -3, -6
1503683607837,10, -5, 0, 0, 0, -1, -4, -1
1503683607861,-3, 0, -6, 1, 1, -1, -7, -3
1503683607875,-23, -23, -2, 1, 1, -1, 0, -1
1503683607897,3, -1, 3, 1, 0, 1, 5, 8
1503683607921,-30, -2, -3, -2, -1, 1, 1, -2
1503683607935,-3, -14, -8, -5, -3, -2, -2, 0
1503683607965,16, 27, 0, -7, -7, -6, -4, 5
1503683607979,-5, -1, -2, -3, 0, 2, 1, -9
1503683607995,-14, -5, 2, 0, -1, 2, 7, 15
1503683608017,-3, 2, -1, 0, -1, 0, -4, -4
1503683608039,4, -1, -10, -5, -2, -1, 0, -4
1503683608055,-1, 0, -5, -1, -3, -2, -7, -7
1503683608070,1, 5, 11, 3, 0, 0, -4, 1
1503683608087,-2, 8, -3, -8, -4, -3, 0, 4
1503683608107,-15, -3, -3, -2, -2, -1, 3, 2
1503683608130,20, -15, -6, -4, -3, 1, 3, 6
1503683608145,-1, 12, -1, 4, 2, 0, -2, 1
1503683608167,-13, -11, -4, -2, -3, -2, 0, -6
1503683608191,-6, -10, -3, -2, -1, -2, -4, -6
1503683608205,3, 1, -3, 0, -3, -1, -3, -3
1503683608230,2, -6, 2, -2, -3, -3, 2, 2
1503683608250,-2, -10, -5, -4, -1, 1, -2, 0
1503683608265,-4, -1, -6, 0, 0, -1, -3, -4
1503683608289,-8, 5, 2, 1, 0, -1, -2, 0
1503683608311,-2, 13, 3, 0, 2, 1, 0, 0
1503683608332,-7, -6, 1, 0, 0, -1, 0, -5
1503683608347,0, 0, -3, -1, 0, 0, -1, 4
1503683608371,-3, -2, -1, -3, -1, 0, 1, 7
1503683608393,-1, -3, 2, 7, 0, -1, -2, -6
1503683608407,2, -2, -2, -4, 0, -1, -2, -7
1503683608432,1, -1, -1, -1, -2, -2, 0, -5
1503683608452,-2, 3, 2, -1, 1, 0, -1, -1
1503683608468,-1, 1, 0, 0, 0, 0, 2, 1
1503683608492,0, 12, 7, 0, -3, -1, -4, -14
1503683608512,-4, -5, -2, 0, -1, 0, 1, 1
1503683608528,2, -9, -5, -3, -2, 1, -1, 3
1503683608550,2, -2, -3, -1, -1, -1, -5, 3
1503683608572,1, 0, -1, -3, -1, -2, 0, 2
1503683608597,0, -1, -5, -3, -3, -1, -4, -3
1503683608610,-4, -1, 1, 2, 1, 1, 2, 4
1503683608633,2, -3, -3, -2, -2, -1, 2, -1
1503683608647,0, -2, -3, 2, 7, -1, 1, 2
1503683608670,-4, 0, -1, -6, -8, -3, -3, -2
1503683608693,0, 2, 2, 4, 9, -1, 0, -3
1503683608707,-1, -1, 1, 3, 0, -1, -3, -2
1503683608731,0, -1, -2, -2, -2, -1, 1, 2
1503683608752,-1, -1, -2, -5, -6, 0, 1, 0
1503683608768,-2, -3, 1, -2, -3, -2, -2, 0
1503683608792,-1, -1, -1, 1, -4, -4, -2, 0
1503683608812,-2, -1, 0, 1, -1, 0, -2, -1
1503683608828,-2, 0, 0, 0, -3, 0, -1, -1
1503683608850,2, -1, 0, 0, -5, 4, -2, 0
1503683608872,1, -2, 1, 7, 17, -1, 5, -7
1503683608887,-1, 0, 2, 18, -1, 5, 5, 1
1503683608910,1, 1, -2, -12, -6, -3, -2, 0
1503683608933,1, -4, -1, -5, 3, -6, -1, -2
1503683608941,-2, -10, -3, -5, 0, -6, -4, -4
1503683608963,-1, -2, 1, 2, 0, -3, -3, 2
1503683608985,-3, 3, 4, 2, 3, 3, -1, -2
1503683608995,0, -3, -8, -10, 2, 6, 0, -1
1503683609007,-2, -3, 0, -7, -14, 0, -1, 1
1503683609033,-2, -3, -3, -4, -5, 1, 6, 0
1503683609052,0, -3, -4, 0, 1, -4, -1, 0
1503683609069,0, -9, 6, 2, 1, -3, 0, -1
1503683609090,-2, 0, -1, 0, 1, -3, -4, -1
1503683609112,-2, 3, -3, 0, 1, -3, -7, 0
1503683609136,-3, -3, 0, -1, 0, -1, -1, -1
1503683609150,1, 10, 0, -1, -4, 0, -1, 8
1503683609172,-2, 2, 0, -2, 0, 0, -1, -1
1503683609187,-1, -6, -1, -2, -7, -1, 0, -2
1503683609210,4, 21, 3, 1, 1, -1, 1, -1
1503683609232,-3, -9, -1, 0, 1, -1, 0, -1
1503683609255,-1, -4, -1, -4, -4, -4, -6, -4
1503683609285,-2, 7, 2, -2, -1, 2, -1, 0
1503683609300,-1, -6, -5, -1, 0, 0, -1, -3
1503683609323,-2, -5, -4, -1, 1, -1, 2, 0
1503683609345,0, 3, -2, 0, -2, -2, -2, -6
1503683609364,2, -5, -1, -1, -1, -2, -9, -1
1503683609383,-1, 3, 3, -2, 0, -2, 2, 2
1503683609405,-1, 3, 3, 2, -1, -2, -1, -1
1503683609420,1, 9, 3, -3, -1, -1, 1, 2
1503683609450,-4, -8, -5, -6, -3, 0, 6, 0
1503683609466,0, -1, 0, 2, 1, 1, 1, -1
1503683609480,0, -5, -1, 0, 0, 0, -2, 0
1503683609503,-1, -4, -3, 1, -2, -3, -2, -1
1503683609525,-2, 0, -1, -1, 0, 0, -1, 0
1503683609540,4, 12, 4, 0, 0, -2, -2, -1
1503683609565,0, -4, -1, -1, 0, 0, -2, -2
1503683609585,-3, -4, -5, -3, -1, 1, 2, 0
1503683609601,-2, -10, -3, 0, -3, -1, -1, -1
1503683609623,-1, -1, -2, 0, 0, -3, -5, 0
1503683609632,-2, -3, -3, -1, -2, -2, 3, 3
1503683609652,0, -2, 0, -2, -1, -1, -1, -5
1503683609675,-2, -1, -3, -1, 0, 1, -1, 1
1503683609690,0, -7, 0, 1, -1, 0, 0, 3
1503683609712,1, 8, 2, 0, -1, -2, -5, -2
1503683609735,-3, -6, -2, 0, -1, -1, -4, -2
1503683609750,-2, 0, 0, -1, -1, 2, 3, 2
1503683609773,1, -7, -1, -2, 0, 1, 1, -2
1503683609795,-3, -6, -4, -1, 0, -1, -3, -3
1503683609811,-3, 8, 0, -1, 1, 0, 2, 0
1503683609833,1, -2, -2, -1, -2, 0, 0, 0
1503683609855,0, -3, -2, -1, 0, -2, -1, 0
1503683609871,-1, 0, 0, -1, -2, -2, -2, 0
1503683609892,-1, 0, 0, 1, 0, -1, 2, 2
1503683609915,-2, 9, -1, -2, 0, -1, -1, -2
1503683609930,-2, -11, -1, 0, 0, 1, -1, 0
1503683609952,-1, -2, -5, 1, 0, -2, -5, -9
1503683609976,0, -1, -1, 0, -2, 0, 2, 1
1503683609990,-1, -7, -3, -4, -1, -2, 1, 1
1503683610012,0, 3, 0, 0, -2, 0, 0, 1
1503683610035,-1, 6, -2, -4, -1, 0, -4, 1
1503683610050,0, 7, 0, -2, -1, 0, 4, 0
1503683610073,1, -4, -3, -2, -2, -3, -3, 1
1503683610081,1, -2, 0, -2, 0, -2, -6, -3
1503683610103,-3, -3, -1, -1, -1, -2, 0, -1
1503683610125,0, 0, -1, 0, -1, 0, 1, 2
1503683610140,0, 6, 0, -1, 0, 1, 0, 3
1503683610163,-3, -6, -3, -2, 0, -2, -2, -1
1503683610178,0, 2, 4, 4, 1, -1, -2, -2
1503683610192,-2, -7, -5, -4, -3, -3, -3, -3
1503683610215,-2, -6, 0, -1, -3, 1, 3, -4
1503683610238,0, -2, -3, -1, -1, -1, 1, 1
1503683610246,-1, 2, 0, -3, 0, 0, -3, 0
1503683610270,2, -2, -1, 0, -1, 1, 0, 0
1503683610283,-2, -2, -2, -3, -1, 0, 0, -1
1503683610305,-1, 2, 2, 0, 1, -1, -8, -5
1503683610328,1, -5, -2, -2, -2, 0, 0, 0
1503683610343,-1, -5, -4, 1, -1, -1, 1, 2
1503683610365,0, -1, -4, -1, -2, -3, 0, 2
1503683610388,-1, -1, 2, -2, 0, -1, 2, 0
1503683610405,4, -3, -2, 0, 0, -1, 0, -1
1503683610425,1, 2, -2, -1, -1, 0, -2, -2
1503683610447,-3, -4, -4, -1, -1, -2, 0, -1
1503683610464,-3, 4, 1, -2, -2, -1, 1, -2
1503683610486,-1, 4, 2, -1, -1, -2, -2, 2
1503683610509,-4, -3, -2, -2, -1, 0, -5, -3
1503683610524,2, -3, -2, 0, 0, 0, -1, -1
1503683610545,-4, 8, 0, -1, -1, -1, -1, -3
1503683610567,-1, -3, -1, 0, 0, -1, 1, -4
1503683610583,0, -2, 0, 0, 0, 2, 0, -2
1503683610606,1, -1, -1, -3, -1, -2, 0, 1
1503683610627,-3, -3, 0, 0, -1, -2, 1, -1
1503683610643,0, -10, -5, -3, 0, 1, -1, -1
1503683610665,-2, -1, 0, 0, -1, 0, -1, 1
1503683610687,3, 4, 3, -1, -1, 1, -3, -3
1503683610703,-2, -1, 1, 2, -1, -1, 0, -1
1503683610725,-1, 1, -1, -1, -3, 0, 0, 3
1503683610748,1, 2, 0, -1, -1, -1, -1, 3
1503683610763,-4, -6, -7, -2, -2, 2, 8, 2
1503683610785,1, -12, -3, -1, -1, -2, 0, 2
1503683610808,-1, -3, -3, 1, 1, -1, -2, -1
1503683610823,-1, 1, -1, -3, -1, -2, -6, -6
1503683610846,-1, 3, 1, 1, 0, -2, -2, -3
1503683610867,1, 4, 2, -1, 0, -3, -6, -6
1503683610883,-2, 0, 0, -1, 0, -1, -1, 0
1503683610908,-1, -2, 0, -1, 0, -3, -1, -1
1503683610913,0, 4, -1, -3, -1, 0, 3, -2
1503683610935,-1, -4, 0, -1, 0, -1, 0, -3
1503683610957,-1, -3, -3, -1, -1, -3, -1, 1
1503683610974,0, -1, -1, -1, -1, 0, -2, -3
1503683610995,-1, 2, -2, -3, -2, 0, -2, -2
1503683611017,0, 4, -2, -2, -2, 0, 2, 0
1503683611025,-1, 5, 0, 0, -2, 0, 3, -2
1503683611050,-1, 1, -1, -1, -1, -2, -3, -1
1503683611063,-1, -7, -2, -1, -1, -3, -1, -5
1503683611085,0, 2, -2, -1, -4, -1, -2, -2
1503683611109,-3, 1, 1, 0, -1, -1, -2, 0
1503683611130,-1, -4, 0, -1, 0, -1, 1, -2
1503683611146,0, -5, -2, 0, 1, -2, 1, -1
1503683611167,-1, -2, 0, -1, -3, -1, -1, -3
1503683611190,1, 8, 2, -2, 1, 0, -1, 3
1503683611205,3, 1, -1, -2, 1, 2, 0, 3
1503683611227,-1, -10, -1, 1, -1, 1, 1, 3
1503683611251,-3, -3, -5, -2, 0, 1, -1, -5
1503683611265,-2, -9, -4, 1, 0, 0, -1, 1
1503683611287,-1, 0, -1, 0, -2, 0, -1, 0
1503683611310,0, 6, 2, 0, 0, -3, -2, 0
1503683611325,0, 0, -1, -3, -1, 1, 3, 4
1503683611348,-1, 7, 3, 0, -1, -3, -2, -2
1503683611370,-2, -6, -4, -3, -2, -2, -3, -4
1503683611387,-1, -5, 0, -1, 0, 0, -2, 0
1503683611407,1, 0, 3, 0, -1, 0, 1, 0
1503683611430,0, 2, -3, -2, -1, -1, -3, -3
1503683611445,1, -7, -5, 0, -2, -1, -1, -2
1503683611467,-3, -4, -3, -1, 0, -2, 0, -1
1503683611490,-1, -3, -3, 0, -1, -1, -1, 2
1503683611505,1, 14, 4, -1, 1, 0, -6, -7
1503683611527,0, -5, -1, 1, -1, -2, -3, -2
1503683611550,-4, -1, -3, -2, -1, 0, 0, -2
1503683611565,-4, -4, -2, 0, -1, -2, 7, 5
1503683611588,0, 12, 0, -1, -1, 0, -3, -6
1503683611612,-1, -7, 3, 2, 0, -1, -1, -2
1503683611625,-2, -3, -1, -1, -2, -2, -3, -2
1503683611648,0, -4, 0, 0, 0, -2, -3, 5
1503683611670,-1, 0, -2, -2, -1, 0, 0, -2
1503683611685,1, 2, -1, -2, -1, 1, 1, 2
1503683611707,2, -9, -3, -2, 0, 0, -2, 2
1503683611730,-1, -5, -1, 0, 0, 1, 5, 1
1503683611753,-2, -9, -3, -1, -1, -1, 1, -3
1503683611767,1, -1, -3, -1, -2, -1, -2, -1
1503683611790,-2, -1, -2, 0, -2, -1, -5, -7
1503683611814,-3, 0, -4, -3, -1, -1, 0, -4
1503683611828,1, 10, 0, -1, 0, -2, -6, -4
1503683611850,-1, -2, -1, -3, -1, -1, 0, 1
1503683611858,-1, -1, -2, 0, -3, 0, 1, -1
1503683611881,-3, 5, 2, 0, -2, -1, 0, 0
1503683611895,0, -3, -3, -1, 0, -1, 1, -3
1503683611918,-2, -4, -7, -3, -2, 0, 1, -1
1503683611939,-1, -2, -1, -2, -3, -2, -4, 2
1503683611956,0, -11, -2, 0, 0, 0, -1, -1
1503683611977,0, 7, 2, 0, 0, -1, -1, 1
1503683611999,1, 1, -1, 1, 0, -1, 0, -3
1503683612016,-4, -6, -1, 0, -1, -1, -1, -1
1503683612037,1, 2, 1, 1, 0, 1, -2, -1
1503683612060,1, 7, 4, 0, -2, -2, -2, -3
1503683612083,2, 2, 6, 0, -1, -1, -6, -5
1503683612097,-2, -4, -4, -4, 0, 1, 2, 1
1503683612121,-2, -1, -3, 0, -1, -2, 1, -1
1503683612141,-3, -11, -5, -1, -1, -1, -2, -2
1503683612150,-1, -2, -1, 1, 0, -1, -1, 0
1503683612172,1, 4, 6, 1, 1, -1, -3, 1
1503683612191,0, 13, -1, -1, 0, -1, -1, -3
1503683612210,-1, -7, -2, -1, -2, 0, 2, 1
1503683612232,0, 26, 12, 0, 0, 0, 3, 2
1503683612249,-1, -10, -4, -1, -1, 0, -2, -2
1503683612271,-2, -6, -2, -2, -5, -3, -1, -2
1503683612292,-1, -11, -4, -3, -1, 1, -1, 0
1503683612308,5, -7, -2, 1, 1, -3, -5, -3
1503683612330,-3, -4, -2, -1, -1, 0, 2, 3
1503683612353,-2, -4, -3, 0, -1, -2, -5, -5
1503683612368,3, -4, -6, -3, -1, 1, 2, -1
1503683612390,2, -2, -1, 0, -1, -2, -1, -2
1503683612412,-5, 2, 2, -3, -1, 2, 0, -2
1503683612428,-1, -5, -4, 0, 2, -1, 1, -1
1503683612451,0, 2, -2, -4, -3, -2, -2, -5
1503683612472,-4, -3, -1, 8, 18, -1, 1, 1
1503683612489,3, 3, 1, -4, -19, -3, -4, 1
1503683612502,-1, -3, 0, 16, -2, -1, 1, -2
1503683612519,-3, 7, 2, -8, -11, -3, -3, -5
1503683612540,-6, -21, -8, 3, 12, 2, 1, -2
1503683612562,22, 7, -2, 5, -6, -3, 0, 5
1503683612577,-22, -5, -2, -13, -12, 13, -4, -5
1503683612600,-1, -7, -1, -4, 8, -7, -1, 4
1503683612622,-2, -3, -2, -4, -1, -11, -2, 1
1503683612637,1, 1, -3, -9, -6, -1, -1, -1
1503683612661,11, 5, -1, 4, -8, 0, 2, 1
1503683612681,-3, 6, -7, -8, -18, 3, 1, -1
1503683612697,-7, -23, 0, 5, 14, 1, 0, -4
1503683612720,6, 8, 4, 14, 28, -2, 1, -3
1503683612741,0, 14, 3, -5, -8, -2, -2, 0
1503683612758,-6, 13, -2, -1, 2, -2, -4, -2
1503683612780,2, -9, 3, 36, 19, -4, -3, 1
1503683612802,3, -1, 7, -14, -5, 1, -7, -6
1503683612821,-17, 9, -4, 1, 8, 1, 3, -4
1503683612832,8, 3, -1, -11, -36, -2, -2, 1
1503683612848,13, 18, 8, 1, 5, 0, -1, 0
1503683612870,-17, -7, -10, -2, 21, -4, 0, 2
1503683612894,0, -5, 2, 13, 27, 13, -3, -4
1503683612908,1, -3, 0, -3, -2, 9, 3, 0
1503683612931,9, 21, 4, 3, -6, -17, -1, 2
1503683612956,-11, -13, -5, -6, -15, -7, -4, -2
1503683612975,-6, -23, -2, -1, 3, -1, 0, -1
1503683612990,14, 2, -7, -8, 2, 4, 4, 1
1503683613012,18, 29, 7, -4, -2, -6, -7, -7
1503683613035,-5, 5, -4, 3, -14, 2, -1, -3
1503683613050,-8, -2, 2, 1, -1, -2, 3, -1
1503683613072,-5, -16, -10, -2, 4, -3, -4, -2
1503683613095,-6, 4, 8, 4, 3, 0, -7, -5
1503683613111,-7, -12, 0, 0, 3, -1, -2, 0
1503683613132,-2, -4, -2, -2, 2, 2, -1, -3
1503683613158,-3, -2, -1, 5, 10, -1, 3, 1
1503683613162,-7, -8, -2, -4, -1, 14, 5, 3
1503683613184,6, -25, 2, -4, -18, -5, 2, 6
1503683613200,-13, -1, -5, -3, -2, -7, 0, -6
1503683613223,3, 2, -2, -6, -4, -5, -1, -4
1503683613244,1, 7, 0, 2, 9, -3, -2, -4
1503683613260,1, 1, -4, 0, -5, -4, 1, 5
1503683613281,-9, 4, -3, -4, -2, 3, 0, -1
1503683613292,-5, -4, -2, -7, -13, -4, 1, -1
1503683613313,2, 10, -2, -3, 0, -4, -1, 3
1503683613335,-1, -4, 2, 1, -5, 4, -1, 0
1503683613350,-4, 2, 3, 2, -1, -4, -3, -4
1503683613372,-5, -6, 0, -5, -18, -1, 2, 1
1503683613395,5, 3, -4, -4, -2, 0, 4, 0
1503683613417,4, 3, -1, 1, 2, -2, 2, 0
1503683613433,-7, 3, 5, 1, 2, -4, -2, -7
1503683613440,3, -6, -2, -1, -2, 1, 2, 6
1503683613462,15, 1, 0, -3, 0, -1, -1, 33
1503683613484,-8, 2, -2, 0, 0, 0, -4, -13
1503683613493,3, 2, -5, -5, -5, -5, -11, -18
1503683613515,-21, -9, -1, 1, 0, -1, 0, -9
1503683613531,19, -10, -6, 0, 0, -1, -12, -7
1503683613552,5, -10, -6, -1, 2, 0, 3, 1
1503683613575,18, 8, 0, 0, -1, -3, -3, 3
1503683613592,-2, 0, 1, 0, 1, -1, 1, 6
1503683613612,-23, -11, -8, -1, -1, 0, 3, -3
1503683613635,10, -8, -8, 0, 0, 1, 6, 0
1503683613649,-6, 0, 1, -1, -2, -3, -6, -11
1503683613672,-11, 0, -1, -3, -1, 0, 0, 0
1503683613680,-22, -5, -4, -5, -2, -2, 3, -5
1503683613703,-22, -10, -3, -1, -1, 0, -2, -8
1503683613724,-22, -4, 0, 0, -2, 1, 1, -1
1503683613740,0, -1, 1, -1, -2, -1, -4, -1
1503683613762,8, 14, 8, -1, 0, -2, -3, -9
1503683613784,-9, -4, -4, -2, 1, 2, 1, 0
1503683613800,8, 0, -2, 1, -1, -1, -4, 6
1503683613821,14, 7, 1, 0, 0, -2, 1, 11
1503683613830,-18, 1, 2, 1, 0, 0, -2, -1
1503683613852,62, -11, -6, 1, 0, -2, 0, 1
1503683613875,-19, -7, -4, -2, 0, 2, -1, -7
1503683613898,-12, 1, -4, -1, -1, -1, 0, 2
1503683613912,-18, -7, -5, -1, -1, -1, 1, -3
1503683613937,-11, -9, -1, -1, 0, 1, 1, 0
1503683613957,-6, -4, -2, 0, 0, 0, 1, -3
1503683613972,1, 3, 3, 2, 0, 0, -1, -2
1503683613996,6, 15, 8, -1, -1, -1, 1, 6
1503683614017,3, 4, -5, -2, -3, -2, -1, 4
1503683614032,3, 1, 2, -1, -1, 0, -2, -2
1503683614055,-10, 0, -3, 2, 0, -2, -2, -2
1503683614078,15, 4, 2, 1, 0, 0, -2, -9
1503683614092,4, -4, -8, -5, -6, -3, -1, 1
1503683614107,-3, -1, 2, 0, -1, 0, 3, 4
1503683614131,-3, -5, -2, -2, -1, 0, -1, -3
1503683614139,3, 10, 2, 1, 1, 1, -4, -4
1503683614152,-7, -9, -7, -5, -3, -1, 1, 2
1503683614175,-10, 3, 1, 2, 1, -1, 1, 2
1503683614197,-3, -7, -7, -3, -2, -1, 0, -7
1503683614212,2, 3, -1, -4, 1, -1, 1, 3
1503683614235,-6, -4, -3, -4, -4, -3, -9, -11
1503683614252,3, -5, -3, -1, 0, 1, 2, 5
1503683614268,-11, -2, -2, -6, -4, -3, -5, -10
1503683614273,-7, 20, 6, 1, 0, 1, -2, 2
1503683614297,1, -6, 5, 4, 1, 2, 3, 8
1503683614317,-5, -2, 2, 1, -1, -1, 2, -6
1503683614348,-7, -12, -10, 2, 4, -2, -4, -3
1503683614370,0, 8, -4, -2, 1, -1, -3, -7
1503683614392,-23, -20, -5, 1, -1, -1, -1, -6
1503683614410,0, -12, -2, -2, -4, 0, -1, -8
1503683614437,-16, -10, -11, -10, -6, -3, 0, 12
1503683614445,18, 15, 12, 2, -1, -1, 2, 11
1503683614468,25, 16, 5, 2, 4, 1, 0, -5
1503683614492,3, -15, 0, -2, -2, -3, -7, -3
1503683614507,-23, 9, 8, 2, 0, 1, 3, -1
1503683614528,-1, 5, 3, 6, 7, -2, -6, 8
1503683614551,-7, -20, -12, -5, -3, 0, 4, -7
1503683614568,2, 16, 5, -2, -3, 1, 3, 1
1503683614590,5, 3, 2, 0, -3, -1, -1, 0
1503683614612,1, 14, -1, 2, -1, -1, 0, 3
1503683614625,-2, -4, -4, -4, -3, -2, -1, 2
1503683614648,-1, -5, -2, -2, -2, 0, 2, 1
1503683614670,-4, -3, -1, 0, 0, 0, -4, -2
1503683614685,1, 14, 0, 0, 0, 0, 0, 1
1503683614709,-4, -11, -1, 1, 1, 0, -1, -1
1503683614730,-1, -2, -3, -3, -1, -3, 1, 5
1503683614747,4, 0, 1, 2, -1, -1, -1, -3
1503683614770,-5, -6, -3, -1, 0, 0, 0, 2
1503683614790,5, -6, -7, -3, -4, -1, 0, 9
1503683614811,-2, 4, -4, -1, 2, -2, -1, 1
1503683614828,1, -4, -2, 0, -2, 1, 1, -9
1503683614850,1, -1, -1, 2, -2, -1, -3, -10
1503683614867,-8, -5, -1, -4, -2, -1, 4, -2
1503683614888,-2, -2, -2, -1, -2, 1, 2, -2
1503683614910,-17, -4, -4, -3, -2, -3, -1, -1
1503683614917,-2, -2, -3, -1, -2, -1, -1, 10
1503683614940,1, -3, -4, -1, -1, -1, 1, 1
1503683614954,-2, 1, -4, -2, -2, 1, -2, -1
1503683614978,-2, -6, -4, -1, -1, -3, -8, 2
1503683615002,0, -1, 1, 2, 0, 1, 3, 1
1503683615015,0, -1, 0, -1, -3, -2, 0, -1
1503683615038,-1, 5, -3, -2, -5, -1, 2, 5
1503683615060,-3, -13, 0, 1, 0, -1, 2, -3
1503683615075,-5, -5, -4, -4, 0, -1, 1, 1
1503683615097,4, -1, 1, 22, 37, 5, -1, -5
1503683615120,0, -1, 0, -4, 11, -1, -1, 1
1503683615137,0, 4, 1, -4, -9, 1, -1, -3
1503683615157,-1, 0, 4, -4, -6, -3, -3, -5
1503683615180,2, 1, -1, -2, -8, -4, -2, 4
1503683615194,-2, -1, -2, 4, 11, -1, -3, -3
1503683615211,0, 1, 0, 5, 16, 2, -2, -4
1503683615225,1, 0, 1, -3, -15, -1, 6, 3
1503683615248,0, 0, 1, 4, -5, -3, 2, -2
1503683615271,0, 0, 1, -2, -3, -1, 3, 5
1503683615285,0, 0, -2, 1, -6, -1, -4, -5
1503683615308,-2, 1, -1, 0, 10, 7, -1, -2
1503683615330,-4, -4, -2, -4, -19, 0, 6, -1
1503683615347,0, -2, -2, -5, 0, -3, 2, -2
1503683615368,0, -5, -2, 3, 5, -3, -2, -2
1503683615376,-4, 3, 1, -2, 6, -4, -1, -5
1503683615397,-1, -6, -3, -3, -1, -2, -1, 3
1503683615420,0, 1, 1, -1, 0, -5, 0, 2
1503683615434,2, 1, -3, 0, 1, 1, 0, 5
1503683615457,-3, -4, -3, -3, -2, 1, 4, 0
1503683615480,0, 3, 0, 2, 5, 2, 2, 2
1503683615494,-3, -5, -2, -6, -5, 0, 0, -5
1503683615517,-1, 0, 0, -1, 0, 0, 1, 1
1503683615540,1, -1, 1, -3, -1, -1, -4, -3
1503683615555,4, 2, 4, 0, -3, -2, -6, 0
1503683615578,-3, -7, -7, -2, -1, -2, -3, -4
1503683615600,3, -1, 2, 1, 0, 0, -7, -3
1503683615616,-1, 0, 0, -2, 0, 1, 7, 5
1503683615637,0, -3, 0, -3, -2, -3, -1, 0
1503683615659,-4, -2, -3, 0, 1, -1, 2, -2
1503683615690,-1, 0, -2, 1, -1, -1, -1, -1
1503683615712,1, 11, 6, -1, 0, -2, 2, 1
1503683615728,-1, -5, -2, -3, -5, -1, 0, 0
1503683615751,-2, -1, -1, -3, -3, -1, -5, 3
1503683615778,-2, -3, 0, 1, 0, -1, 2, -3
1503683615787,0, -1, 0, 0, -2, -3, 1, -2
1503683615802,-1, -2, 2, 1, -1, 0, -1, -1
1503683615817,-5, 2, -1, -1, 0, -1, 3, 0
1503683615841,0, 1, 3, 1, 1, -1, 0, -3
1503683615848,-1, 0, -3, -1, 0, -2, 1, -2
1503683615870,2, 1, 1, 1, 1, 0, 1, -1
1503683615892,-2, -1, -3, 0, -1, 1, 5, 0
1503683615909,3, 3, 2, 0, -1, -1, 1, -1
1503683615931,-3, -2, -1, 0, -3, 1, -2, 1
1503683615952,0, -3, 1, -2, 1, 0, 1, 7
1503683615967,-1, 0, 2, 0, -1, -1, -4, -2
1503683615990,-4, -1, -1, 1, -1, 0, 0, -4
1503683616013,-2, 0, -1, -2, -1, -2, -3, -5
1503683616035,2, -1, -5, -2, -2, -2, -1, 1
1503683616050,-1, -4, 0, -1, 0, -2, 0, -8
1503683616072,-2, 2, 1, 0, -1, -3, -3, 1
1503683616088,-2, 0, -2, -2, -1, 1, -2, 0
1503683616113,2, 0, 3, 3, 0, -3, -5, -2
1503683616132,-1, -1, 1, 0, 0, 0, 2, 1
1503683616147,0, -2, -3, 0, -1, -1, -3, 0
1503683616162,-3, -3, -3, -1, -1, -2, 1, -2
1503683616178,0, -4, -2, -2, 0, 0, 3, 1
1503683616200,3, 0, 0, 0, 1, -1, -7, -4
1503683616222,0, 3, 2, 1, -1, 1, 0, 0
1503683616237,-2, -2, -1, 0, -1, -2, 1, 3
1503683616259,1, 2, -1, 1, -1, -2, 0, -1
1503683616283,-4, -4, -5, -4, -3, -3, -2, -4
1503683616297,1, -1, -2, -1, 0, 0, -2, -5
1503683616320,-1, 1, -3, -2, -2, -2, -2, -5
1503683616346,-2, -3, -1, -1, -1, -1, -2, 3
1503683616357,-1, -1, -1, 0, -1, 0, 4, 3
1503683616381,0, 0, -1, 0, -1, -1, 0, 2
1503683616402,-2, 0, 3, 0, 0, 0, 2, 2
1503683616417,0, 0, 0, 0, 0, 0, -1, -2
1503683616439,2, -1, 0, 1, -3, -1, 1, -1
1503683616462,-1, 1, 0, -1, 0, -1, 1, 3
1503683616479,-3, 1, -1, -1, -1, 0, -1, -3
1503683616499,-3, -6, -3, -2, -2, 0, 1, -4
1503683616523,1, 1, -1, -2, 0, -2, -2, -1
1503683616537,-1, -3, 0, 0, -1, 0, -1, -1
1503683616560,-3, 4, 2, -1, 0, -1, -3, -1
1503683616568,-3, -4, -2, 0, -1, 2, 1, 0
1503683616591,3, 4, -1, -1, -1, -3, -7, -6
1503683616614,1, -3, -2, 0, -1, 0, 3, 0
1503683616630,-1, -2, 0, 0, -1, 0, -3, -1
1503683616650,-1, -4, 1, -1, 0, -2, 0, 0
1503683616657,3, -2, -2, -2, -1, -2, -7, 3
1503683616681,-1, -2, -3, -1, -2, 0, -2, -1
1503683616704,-3, 0, 1, -1, -2, -2, 4, 1
1503683616724,0, -3, -3, 1, 0, -1, -2, 2
1503683616739,-2, -2, 1, 0, 2, -1, -1, -4
1503683616762,0, -3, 4, -2, -2, 0, -1, 0
1503683616784,0, 2, -3, -3, 0, 0, 1, 0
1503683616799,-1, -1, 0, 1, -1, 1, 0, 3
1503683616822,-2, -3, 1, -1, 0, 0, 0, -1
1503683616830,-4, -4, 0, -1, -2, -1, -5, -2
1503683616852,1, 4, 2, 0, 1, 0, 2, 1
1503683616874,-3, 3, 0, -4, -1, 0, 3, 1
1503683616891,0, -3, -1, 1, -1, -2, 1, 0
1503683616912,-4, -1, -2, 0, -2, 0, -3, 0
1503683616934,-1, -3, -1, 0, 0, -1, -2, -3
1503683616951,2, -1, 0, 0, 0, -2, -4, 1
1503683616972,-2, -2, -3, 0, -1, -1, 2, -1
1503683616994,-3, -3, -4, -2, -2, -1, 1, -1
1503683617010,2, 1, -2, 1, 0, 0, 1, 2
1503683617032,1, 5, 4, 1, 0, 1, -2, -1
1503683617055,-1, -9, -5, -3, -2, -1, 3, 0
1503683617070,0, -1, -2, 0, 1, -2, -4, 0
1503683617093,-1, 3, 2, -1, -2, 0, -3, -3
1503683617120,3, 1, -1, -4, 0, -1, -3, -2
1503683617130,-3, -10, -3, -1, -2, -2, 0, -1
1503683617152,-1, 3, -2, 0, 0, -1, 0, 0
1503683617175,-4, -1, 0, 0, 1, 1, -1, -2
1503683617190,-4, -4, -5, 0, -1, 0, 1, 0
1503683617212,0, -2, -1, -1, -1, -1, 0, -3
1503683617235,1, 2, 1, 1, 0, 0, 1, -1
1503683617252,-2, -2, 2, -2, -1, -2, -3, -3
1503683617272,-2, 2, -4, -3, 0, -1, 1, 3
1503683617295,0, 0, 0, -1, -2, 1, 2, 0
1503683617310,0, -1, 0, -2, -2, -1, 2, 0
1503683617332,4, 1, 0, 2, -2, -1, -7, -4
1503683617355,-1, -1, -3, -1, -1, 1, -2, -1
1503683617371,-3, -5, -3, -1, -1, -1, -2, -1
1503683617394,-3, 1, 1, 0, -1, 0, 0, 0
1503683617415,-1, 0, -3, -1, 0, 0, 1, 2
1503683617430,-1, -3, 1, 0, -2, 0, -1, -1
1503683617453,-1, 3, -2, 1, 1, -1, -1, -2
1503683617474,1, 1, 0, -2, 0, 0, 5, 4
1503683617491,-1, 3, -4, -3, -1, -1, -7, -2
1503683617512,0, -4, -1, 2, 0, -3, 1, -2
1503683617534,-2, -4, 1, -1, -1, -3, -3, 1
1503683617551,-1, 0, -2, -3, -3, -1, 0, 0
1503683617572,-1, 1, 1, -1, -2, -1, 1, -1
1503683617595,3, 0, 0, -1, 0, 0, -4, -2
1503683617610,-1, -2, -2, -1, -1, 2, 2, -1
1503683617632,-3, -1, -1, 0, -1, -3, 0, -1
1503683617655,1, -2, -4, -3, -1, -2, 1, -1
1503683617677,2, 8, 3, 1, 1, 0, 0, 0
1503683617692,-2, -3, 1, 0, -1, 0, -2, 1
1503683617715,-1, 3, 1, 0, -1, -1, -3, -4
1503683617738,-1, -5, -4, -2, -1, -3, -5, -3
1503683617752,0, -3, 0, 0, -1, -2, -13, -3
1503683617774,-3, -4, -1, -2, 2, -1, 2, 0
1503683617804,-2, 1, -1, -2, -1, 0, -1, 1
1503683617827,0, -1, -2, -1, -1, -3, -1, -3
1503683617842,-3, -3, -2, -2, -3, 0, 3, 4
1503683617865,-2, 2, 2, -1, 0, 1, -3, -1
1503683617888,2, -4, -8, -2, -1, -3, -4, 0
1503683617902,0, -3, -1, -1, 1, 0, 6, 0
1503683617924,0, 1, 3, 0, 0, -2, -2, -1
1503683617946,-1, 8, 0, -3, -2, -2, -4, -4
1503683617962,0, 1, -3, -2, 1, 0, -2, 0
1503683617984,-2, -4, 1, -1, 0, 1, 1, -1
1503683617993,-1, -1, -2, -1, -1, -2, 1, -5
1503683618015,2, 0, 3, 0, 0, -1, -1, 0
1503683618037,0, 3, 1, -1, 0, -1, -2, -3
1503683618052,-1, -4, -3, 0, -2, 0, 3, 2
1503683618074,-2, 0, -2, -1, 0, 0, -2, 0
1503683618098,-2, -1, -1, 0, -2, -1, -1, 2
1503683618112,1, 1, 0, 0, 0, 0, -2, -4
1503683618135,-1, -3, -4, -1, -2, -1, 1, 4
1503683618158,-1, 1, 0, 1, -1, -2, -1, -1
1503683618172,1, 0, 0, -1, -1, 0, -3, -3
1503683618201,0, 0, -3, -2, -1, 1, -1, 0
1503683618225,-2, -2, -3, -2, -1, 0, 3, 0
1503683618246,-1, 5, 0, -1, 0, -1, -2, -2
1503683618259,-4, -2, -3, -1, -3, 1, 5, 4
1503683618277,-1, 2, 3, -1, 0, -1, 1, -2
1503683618292,-1, -1, -1, 0, -1, 0, -1, 0
1503683618316,0, -2, -2, -2, -1, 0, -1, 0
1503683618337,1, 0, -2, 0, 0, -1, 1, -1
1503683618352,-1, -1, 0, 1, -1, 0, 1, 0
1503683618375,0, 5, -1, -1, 0, 1, -3, -2
1503683618397,-2, -4, -1, -1, -2, -2, -3, 0
1503683618412,-1, 1, 2, 1, -1, -2, -2, 1
1503683618436,-2, -5, -3, -1, 0, -2, -1, -3
1503683618458,-3, -5, -5, -4, -2, -2, -1, -1
1503683618472,2, -2, 0, 0, -1, -1, -5, 0
1503683618495,0, -1, -1, -1, 0, -1, 0, -1
1503683618517,1, 0, 0, -1, -1, 0, 1, 1
1503683618532,2, 7, 4, 0, 0, -2, -4, 0
1503683618555,0, -3, -1, -2, -1, 0, -1, -2
1503683618577,-2, -4, 1, 1, 2, -2, 1, -1
1503683618600,0, 0, -3, 0, 0, 0, -3, -1
1503683618615,1, 1, 2, -1, -2, -2, 3, 0
1503683618637,1, 1, -2, 2, 0, -1, -7, -4
1503683618661,-4, 0, -2, -2, 0, -2, 2, -1
1503683618675,-1, -2, -3, -5, -2, 0, 1, -1
1503683618697,-3, -5, 0, -1, 1, -2, -1, 3
1503683618719,0, 1, -2, 0, -2, 0, 4, 1
1503683618737,-1, -1, -2, -2, 0, -1, 0, -4
1503683618757,1, 0, 1, 0, 0, -2, -1, 0
1503683618779,-2, 0, -1, -1, 0, 1, -4, -1
1503683618796,-1, 0, 1, 0, -3, 0, -2, 1
1503683618817,-1, -1, -1, -1, -1, 0, 3, 1
1503683618839,2, 2, 0, 1, -2, -3, -3, -2
1503683618846,1, -1, 0, -1, -6, -1, 2, 2
1503683618869,-3, 2, 11, 79, 14, -1, -1, -3
1503683618885,-2, -2, -5, -35, -11, -3, 1, 0
1503683618906,-1, 0, -2, 2, 0, -1, 4, 0
1503683618930,-1, -3, -3, -24, 13, -29, -3, 1
1503683618944,-1, -2, 2, 15, -9, 48, -4, -6
1503683618970,-1, 0, -4, -20, 22, -6, -1, 2
1503683618989,-5, -3, -5, -16, -21, -18, 0, -5
1503683619005,-5, -7, 0, -10, -13, -4, 2, 1
1503683619026,9, 9, -1, -1, 12, 1, 1, 4
1503683619049,-3, -3, -1, -4, -6, 3, 1, -3
1503683619065,0, -4, -4, 5, 17, 0, 5, 0
1503683619086,0, 0, -1, -3, -4, -3, 2, 3
1503683619109,-4, 0, 0, 2, -5, -3, -1, 0
1503683619124,2, 6, -6, 10, 11, 3, -1, -2
1503683619146,19, 6, 0, -8, -12, 0, -5, 1
1503683619169,-15, -4, 3, 0, -11, 3, 0, -3
1503683619184,-4, -1, 8, 5, 1, 2, 2, 2
1503683619206,5, 21, 2, -5, -6, -2, -2, 2
1503683619239,-2, -2, 2, 17, 19, -1, -4, 0
1503683619259,-14, -10, -7, -4, -8, 2, 4, -1
1503683619275,-9, -12, -2, -5, 3, -1, -3, -5
1503683619299,-10, -3, 0, 19, 19, -3, -4, -5
1503683619319,-9, -11, -1, -18, -21, -3, -12, -9
1503683619335,3, 1, -1, -2, -1, 1, 3, 1
1503683619358,27, 24, 10, -4, -19, -4, 2, 7
