1503702810850,-3, -3, -2, -2, -1, -2, -1, -3
1503702810866,0, 0, 0, -1, -2, -1, 0, 0
1503702810895,1, -2, -1, 0, 0, 0, -1, -1
1503702810918,0, 0, -3, -1, -1, -1, -3, -1
1503702810941,-2, -2, -1, -1, -1, -1, -1, -2
1503702810955,-1, -1, -1, -2, -2, -1, 1, -1
1503702810979,0, 0, 0, -1, 1, -1, -1, 0
1503702811000,-1, 0, 1, 0, -1, -1, 0, -1
1503702811015,0, -2, -2, -2, -1, -2, -2, -2
1503702811046,-4, -4, -5, -1, -1, -1, -3, -4
1503702811068,1, -2, -2, -1, -1, 0, -1, -1
1503702811090,0, 0, 1, -1, -2, -2, -1, -1
1503702811106,0, -2, 1, 0, -1, -2, -1, -3
1503702811128,0, -3, 1, 0, 1, 0, 0, 0
1503702811150,1, 0, -1, -2, -1, 0, 0, 1
1503702811168,0, 2, -1, -2, 1, -1, -2, -1
1503702811188,0, 1, 1, -2, -1, 0, 0, -3
1503702811210,-2, -2, -1, 1, 0, -2, -3, -5
1503702811226,-1, -2, -1, 0, -2, -1, -1, 1
1503702811248,-1, -3, -2, 0, -1, 0, 0, 0
1503702811271,1, 0, -1, 0, -1, -2, 1, 3
1503702811286,1, 0, 0, -2, 0, -2, -3, 0
1503702811309,-1, 0, 0, 0, 0, 0, 1, 1
1503702811331,-1, -3, 0, 1, -1, 2, 0, -3
1503702811346,-3, 2, 0, -1, -3, -2, -2, -3
1503702811369,1, 0, 1, -3, -1, -1, -1, 0
1503702811390,-2, -2, -2, 1, -2, -1, -1, -1
1503702811406,0, -2, 1, 1, 1, 0, 0, 2
1503702811428,0, -1, -1, -1, 1, -1, -1, 1
1503702811450,0, -1, -1, -1, -1, 0, -1, -1
1503702811466,-2, 0, -1, -1, 0, 1, 1, 0
1503702811488,-3, -1, -3, -2, -1, -2, -2, -2
1503702811511,0, -1, 0, -2, -2, 0, -2, -2
1503702811526,-2, 1, -1, 0, -2, 0, 1, -1
1503702811548,0, -1, -2, -2, -1, -3, -1, -1
1503702811572,0, -1, -1, 1, 1, 0, 0, -2
1503702811593,-1, 0, 0, 0, 1, 0, 0, 1
1503702811608,-1, 0, -1, 0, 0, -1, -1, -2
1503702811630,1, -2, 0, -1, 0, -1, 1, -2
1503702811653,0, 2, 2, 0, 0, 1, -2, 1
1503702811670,-1, -1, -1, -2, -1, -1, 0, -1
1503702811690,-2, -3, -3, -2, -4, -1, -2, -2
1503702811713,1, -2, -1, 0, 0, 0, -1, 0
1503702811728,-2, -3, -3, -2, -2, -1, -3, -4
1503702811750,0, -1, 0, -2, -1, -3, -2, 1
1503702811773,-1, 0, 1, 0, 1, 1, 1, 1
1503702811788,0, 1, 1, -2, -2, -2, -1, 0
1503702811810,-1, -1, -2, -1, 0, -2, 0, 0
1503702811833,-4, -6, -3, -2, -1, -1, -2, -5
1503702811848,-2, -3, -3, -4, -2, -3, 0, 1
1503702811877,-1, -1, -2, -1, -2, -1, -2, 0
1503702811893,2, 0, 1, 2, 0, 1, -1, 0
1503702811909,-1, 0, -1, -1, 0, -1, -1, -2
1503702811930,0, 1, 1, 1, 0, 0, 2, 2
1503702811953,0, 1, 0, -1, -1, -1, -2, -1
1503702811968,-2, -4, -2, 1, -2, -2, -1, 1
1503702811990,0, -1, 0, -3, 0, -1, -1, -2
1503702812013,1, 2, -1, 0, -2, -2, 0, 2
1503702812028,1, -1, 2, 0, -1, 0, 0, 0
1503702812050,-3, -3, -3, -1, 0, 1, -1, -3
1503702812073,-2, 2, -1, 0, -1, -1, -1, -4
1503702812088,-1, -1, -4, -4, -1, -3, -3, 0
1503702812111,-2, -2, -1, -1, 0, 0, -2, -3
1503702812133,-1, -4, -2, -1, -3, -1, -1, -2
1503702812148,-1, 0, 0, 1, 0, -1, 0, 1
1503702812170,0, -2, -1, 0, -1, 0, -3, 0
1503702812193,0, -1, 0, -2, 0, -2, -1, -4
1503702812209,-1, -2, 1, -1, -2, -2, -1, -3
1503702812230,0, -2, -2, -1, 0, 0, 1, 0
1503702812261,1, -2, -1, -2, 0, -1, 0, 1
1503702812283,-1, -2, 0, -4, -5, -2, -3, -1
1503702812298,0, 0, 1, 0, -2, -4, 0, 1
1503702812320,-2, -1, -2, 2, 2, 0, 0, -1
1503702812342,0, -2, -1, 0, 0, 2, 0, 1
1503702812358,-2, -1, 0, 1, 0, -1, 0, -1
1503702812380,-2, -2, -2, -3, -3, -2, -1, -2
1503702812402,0, 0, -2, -1, -2, 1, -1, 0
1503702812418,-2, 0, 0, 0, -1, 0, 0, -1
1503702812443,-1, -1, -2, 0, 1, 1, 0, 0
1503702812462,1, -1, 1, 0, 0, -1, -1, -1
1503702812478,-1, -1, -2, -4, -1, -1, 0, -1
1503702812500,-1, 2, -1, -1, 0, -2, -1, -1
1503702812522,0, -2, -2, -2, -1, -1, 0, 0
1503702812545,-2, -3, 0, -2, -2, -1, -1, -2
1503702812560,-4, 0, -2, 0, 0, 1, -3, -2
1503702812582,2, 0, 0, 0, -2, 0, -2, -3
1503702812605,-2, -2, -1, -2, -3, 0, 0, 2
1503702812620,0, 0, -1, 1, -1, -1, 0, 0
1503702812644,0, -1, 1, -1, 1, -1, 0, -2
1503702812665,-1, -5, -2, -1, -1, -2, -2, 0
1503702812681,0, 0, 0, 1, 1, 0, -1, -2
1503702812702,0, 1, 1, 0, 0, -1, 1, 0
1503702812725,-1, -1, -2, -2, -1, -2, -1, -3
1503702812740,0, 0, 1, 3, 1, -1, -2, -1
1503702812762,-1, 1, -1, -1, -1, -1, -2, 0
1503702812785,-3, 0, -2, -3, -4, -2, 0, -3
1503702812800,-2, -1, -1, 0, 0, 0, 1, -1
1503702812822,-1, 0, -1, 1, -1, 0, -1, -1
1503702812848,-1, -1, -1, -3, 1, -2, -1, -1
1503702812860,3, 0, 0, 1, 0, 0, 0, 0
1503702812882,0, -4, -2, -2, 0, -1, -3, 1
1503702812904,-1, -3, -2, -1, 0, -1, 0, 1
1503702812913,-2, 0, 0, -1, -1, -1, -1, -4
1503702812921,-1, -1, -1, -1, -2, -1, 0, 0
1503702812942,0, 1, -2, -3, -3, -2, -1, 1
1503702812965,-1, -1, 0, -1, 0, -2, 1, 0
1503702812981,-1, 3, 1, 2, -2, 1, -2, -2
1503702813002,-1, -2, -1, -1, 0, -1, 0, -1
1503702813025,-1, -1, -2, -1, -1, 2, 0, 0
1503702813040,-2, 0, -1, -1, -3, -2, -2, -3
1503702813062,0, 0, 1, 1, 1, 0, 0, 1
1503702813085,0, -3, -3, -2, -2, -1, -1, -2
1503702813101,0, -3, 0, -2, -3, -1, -2, -1
1503702813122,-4, -2, -1, -2, -1, -3, 1, 0
1503702813144,-2, 2, -1, 0, 1, -1, -3, 0
1503702813153,-2, -2, -1, -2, -3, -2, 0, 0
1503702813175,0, -1, -1, -1, 1, -1, 2, -2
1503702813190,0, -1, -2, -1, -1, -1, 0, 2
1503702813214,-1, -2, -3, -1, -1, 0, 0, -2
1503702813236,-1, 1, 0, -2, -1, 1, 0, 0
1503702813251,-3, -2, -2, 0, -1, -2, -3, -5
1503702813273,1, 1, -1, -2, -1, -2, 0, 1
1503702813295,0, 1, 2, 1, 2, -2, -2, 1
1503702813310,0, -1, 0, -1, 1, -1, 0, 2
1503702813333,-2, 0, -1, -2, -2, 0, 1, -1
1503702813355,-2, 0, -1, -1, -2, 1, -2, -1
1503702813370,-3, -4, -2, -2, -2, -2, -2, -5
1503702813393,0, -2, -2, -2, 0, -1, -1, -2
1503702813417,-1, 0, -1, -1, -1, 0, 0, -1
1503702813438,-2, 0, 1, 1, -1, 0, -2, -2
1503702813453,-1, -1, 0, -1, 0, 0, 0, -1
1503702813475,1, 0, -1, -2, -3, 0, 0, 1
1503702813498,1, -2, -4, -1, 0, -2, 1, 0
1503702813513,-1, 1, 0, 1, 0, 0, -1, 0
1503702813535,0, -2, 0, 1, -1, -1, 1, 0
1503702813559,-1, 1, 0, -1, -1, -3, 0, 1
1503702813574,1, -1, 0, -1, 1, 1, 0, 1
1503702813595,-1, 1, 0, 0, 0, 0, -1, -1
1503702813622,0, -5, -2, -2, -1, -1, -1, 0
1503702813633,1, 1, 1, 1, 2, 2, -1, 0
1503702813655,-2, -2, -4, -3, -2, -1, 0, -3
1503702813663,0, 0, -2, -2, -1, -1, 0, 2
1503702813685,-2, -4, -2, -4, 0, -1, -1, 0
1503702813707,1, 0, -2, -1, -2, -1, 0, 1
1503702813723,-1, -1, -1, 1, 0, 1, -1, -2
1503702813744,-2, -2, -1, 0, -1, 0, 0, -2
1503702813767,-1, 0, 0, -1, -1, -1, -3, -1
1503702813783,2, 4, 2, 2, 2, 0, 1, 2
1503702813798,1, 0, 0, -1, -3, 0, -2, 1
1503702813813,-2, -3, -2, 0, 0, -1, 1, 0
1503702813835,-2, 1, 0, 1, 1, 0, -2, -2
1503702813843,0, -3, -2, -2, 0, -1, -1, 0
1503702813864,-1, 0, 0, -2, -1, 0, -1, -2
1503702813898,-3, -2, 2, -2, -3, -1, 0, -2
1503702813903,2, 0, -1, 0, 0, 1, -2, 1
1503702813925,0, -1, -2, -2, 0, -2, 0, 1
1503702813947,-1, 1, -1, 0, -3, 0, -1, 0
1503702813963,-2, 0, 0, 0, 0, 0, 0, -2
1503702813990,1, 0, 0, 1, 1, 0, 0, 1
1503702814007,1, 0, -1, -2, -1, -1, -1, 0
1503702814024,-1, 0, -1, -1, -2, 0, 0, 0
1503702814044,-1, -2, 0, 0, 1, -1, -1, -2
1503702814067,0, 0, -2, -1, 0, 0, 1, 0
1503702814083,0, -1, -2, -3, -1, 0, -3, -4
1503702814106,-1, -2, 0, 0, -2, -2, -2, -1
1503702814129,-2, 0, 0, -2, -1, -1, -1, -1
1503702814151,1, 0, -1, -2, -1, -1, 1, 1
1503702814167,-2, -1, -3, 0, -2, -1, 0, -3
1503702814189,-3, -1, 1, 1, 0, 1, -3, -3
1503702814211,-3, -3, -3, -2, -1, -2, 0, -1
1503702814226,1, 2, 0, 1, -1, 0, -1, 1
1503702814248,-2, -2, -2, -2, -3, -3, 0, -2
1503702814270,3, 1, 0, 0, 1, 1, -2, 0
1503702814278,-1, -2, -1, 0, 0, 1, -1, -3
1503702814293,-1, 0, -1, -1, 0, 1, -1, 0
1503702814315,-2, -1, 0, 1, -2, 0, -1, -2
1503702814337,0, -2, -1, -1, -1, 0, 1, 3
1503702814346,0, 1, 1, 0, 0, -1, -1, -1
1503702814368,-4, -3, -2, -3, -2, -1, -1, -3
1503702814391,2, 0, 0, -1, -1, -1, 0, 1
1503702814406,0, -1, -1, 0, 1, 0, -2, -2
1503702814428,0, -1, -2, 0, -1, -2, 0, 0
1503702814451,-1, -2, 0, 0, 1, 0, 0, -1
1503702814466,-1, -1, 1, 0, -1, -1, 0, 1
1503702814493,-3, -2, -1, -2, -2, -3, -5, -7
1503702814510,1, -3, -2, 0, 0, 0, 0, 2
1503702814526,0, 0, -3, -2, -1, -1, 0, -1
1503702814548,0, -1, -1, 0, -2, 1, 0, 1
1503702814570,1, 0, 0, 0, -2, -1, -1, 0
1503702814577,-1, -2, -1, -3, -1, -1, -2, -1
1503702814600,-2, -1, -2, -1, -1, -2, -2, -4
1503702814615,-1, -2, 0, -2, 0, 0, -1, -3
1503702814637,-1, 1, -3, -1, -1, -3, -1, -2
1503702814646,0, -1, -1, -1, -3, 0, -1, 0
1503702814668,-5, -2, -2, -2, 0, 1, -1, -3
1503702814697,1, -1, 0, 0, -2, -2, -1, -1
1503702814705,0, 1, 1, -2, -1, -1, 1, 0
1503702814728,0, -1, -1, -1, -1, 3, -1, 0
1503702814751,-2, 0, 0, 1, 1, 0, -2, 0
1503702814765,-2, 1, 0, -2, -1, 0, 1, 0
1503702814780,0, 1, 2, 1, 0, 1, 0, -1
1503702814796,0, -3, -3, -2, -2, 0, 0, 1
1503702814818,1, -1, 0, -1, -1, -1, -2, 1
1503702814840,0, -1, -1, 0, 1, -1, 1, 0
1503702814855,-3, 0, 0, 1, -2, -2, -2, -2
1503702814877,-1, 1, -1, -2, -1, -2, -1, 2
1503702814901,0, -4, -2, -2, -2, 0, -1, -2
1503702814915,-2, -3, -1, 1, 1, 2, 1, 0
1503702814937,-2, -1, -1, -3, -2, -3, -2, -1
1503702814960,2, -2, -1, 0, -2, 0, -2, 0
1503702814975,-1, 0, 0, -2, -1, -1, 0, -1
1503702815004,-1, 0, -1, -1, -3, -3, -1, -2
1503702815020,-1, -2, -2, -3, -1, -2, -1, -1
1503702815035,-1, -1, -1, 0, 0, 0, 0, 0
1503702815057,-2, -3, -1, 0, 0, 1, -1, -1
1503702815080,0, 0, 0, -1, -2, 0, 1, 1
1503702815095,-3, 1, 1, -1, -1, 0, -3, -4
1503702815117,0, 0, 1, 1, -1, -1, 0, -1
1503702815140,0, -1, -2, -1, 0, -2, -1, -2
1503702815155,-2, -3, 0, -1, 0, -2, -2, -2
1503702815177,-3, -1, -1, 0, -1, 1, 1, 0
1503702815200,1, -1, -2, -2, -1, -1, -2, 1
1503702815215,1, 4, 2, -1, 0, -4, -1, -3
1503702815238,0, -3, -1, -1, -2, -1, 1, 2
1503702815262,2, 1, -1, 0, -2, 1, -1, -2
1503702815268,0, -1, -1, -2, 1, -1, 0, 1
1503702815290,-1, 2, 2, -1, -2, 1, 0, 1
1503702815319,-1, 0, -1, 0, -3, -2, -2, -3
1503702815321,2, 0, 0, -1, 0, 0, -1, -1
1503702815343,-3, 1, 0, 0, -1, 0, -2, -2
1503702815357,0, -3, -3, -4, -3, -1, -1, 1
1503702815380,0, 0, -2, -1, 1, 1, -2, -2
1503702815403,-3, -3, -3, -2, -1, -2, 1, -3
1503702815417,-1, -1, 1, 2, -1, -1, 0, -1
1503702815440,-4, -5, -5, -2, -3, -3, -2, -3
1503702815465,1, 1, 1, 0, 0, -1, 1, 2
1503702815477,0, 0, -1, 0, 0, 0, 0, 2
1503702815501,0, 1, -3, 0, -1, -1, -2, -3
1503702815522,1, -1, -2, -2, -1, 0, -2, 1
1503702815537,0, 0, 0, -1, 0, -1, 0, 1
1503702815560,-2, -4, 0, 1, 0, 0, -1, -3
1503702815582,0, -1, -2, -1, 0, -2, -1, -3
1503702815598,0, 2, 0, -1, -2, -2, -2, 3
1503702815620,0, -2, 0, 0, -1, 0, -1, -1
1503702815642,-3, -3, -2, -2, 0, -2, -2, -3
1503702815650,0, 0, 0, -2, -1, 0, 0, 0
1503702815673,-1, -3, -3, -1, 0, -2, -3, -3
1503702815688,0, -2, -2, 0, 0, -2, -1, -2
1503702815710,-1, 1, 2, 2, -1, 1, -1, -4
1503702815734,0, -1, -4, -2, -2, 0, -1, 1
1503702815748,1, 1, 1, 1, 1, 0, -1, 2
1503702815771,0, -1, -1, -2, -3, -1, 0, 2
1503702815792,-1, -2, -3, -2, -1, 0, -1, 1
1503702815808,0, 2, -1, -1, -2, -1, -2, -1
1503702815834,-3, -1, 2, 1, -1, -1, -2, -5
1503702815853,-1, -2, -2, -1, -2, -1, 0, -2
1503702815870,-1, -3, 0, 0, 1, 0, -1, 0
1503702815891,-2, -2, -1, -3, -2, -3, -2, -2
1503702815914,-2, 0, -1, -2, -3, -1, -2, -2
1503702815928,0, 2, 1, 1, 0, -1, 0, 0
1503702815951,-1, -2, -2, -1, -1, 0, -1, -4
1503702815973,0, 0, -2, 0, -1, 1, -2, -3
1503702815988,-2, -1, -1, 0, -2, -1, -1, -1
1503702816010,-2, -2, -2, 0, 0, -1, -1, 1
1503702816034,-1, 0, 1, 0, -1, -1, -1, -1
1503702816055,0, -2, 0, -1, -2, 0, 0, -1
1503702816071,-2, -1, -1, -2, 1, -1, 0, 0
1503702816102,-2, -2, -3, 1, 0, 1, 0, -1
1503702816123,0, 0, 0, -1, -1, -2, -2, -1
1503702816138,-1, -1, -2, -1, -1, 0, 0, -1
1503702816153,-2, -3, -1, -1, -1, -3, -2, -1
1503702816170,0, 0, 0, -1, -1, -2, -2, 0
1503702816191,-1, 1, -1, -1, 0, -2, 0, -2
1503702816212,0, -1, -1, 1, 0, -1, -2, -1
1503702816220,0, 0, -4, -3, -1, -1, -2, -1
1503702816243,0, -3, 0, -2, -2, -3, 1, 0
1503702816264,3, 2, 0, -1, -2, 1, 0, 1
1503702816285,-1, 0, -2, -2, -2, -2, 0, 1
1503702816303,-3, -2, -1, -1, -2, -2, 0, -3
1503702816324,0, -1, 0, 0, -2, -1, 0, -2
1503702816333,-1, -2, -3, -2, -2, 0, -1, -2
1503702816356,-3, -3, -2, -2, -2, -3, -2, -2
1503702816370,0, -2, -2, 0, -1, -1, -1, 1
1503702816393,-2, 1, 0, 0, 0, -1, 1, -1
1503702816415,-1, -4, -1, -2, -1, -2, -1, 0
1503702816430,-1, 1, -2, -1, -1, 0, -2, -1
1503702816453,0, -1, -1, -2, -1, 0, 0, -3
1503702816475,1, 0, 0, 0, 0, -1, 0, 0
1503702816490,1, -1, 0, 2, 0, 0, -2, -2
1503702816513,1, 0, -2, -2, -2, 0, 0, 1
1503702816536,1, -3, -2, -1, -1, -2, -1, 0
1503702816551,-2, -1, 1, -3, -1, -1, -1, -2
1503702816573,-3, -4, -3, 2, 1, 1, -1, 0
1503702816595,-1, -1, -2, 0, -2, -2, 0, 0
1503702816610,-1, -2, 1, -1, 0, -1, -2, -1
1503702816632,1, 2, 1, -1, -1, 1, 1, 2
1503702816641,0, -2, -1, -2, -1, -2, 0, 3
1503702816662,-1, 0, 0, -1, -2, 1, -3, -4
1503702816684,-2, -2, 0, 1, 1, 0, -1, -2
1503702816700,0, 2, 1, 1, 0, 0, -1, 1
1503702816722,-4, -2, 0, -1, 0, -2, -1, -2
1503702816731,-1, 0, 2, 1, 0, -1, 0, -1
1503702816753,0, -1, -3, -2, 0, -2, 0, -3
1503702816775,-2, -4, -1, -1, -2, -1, 1, -2
1503702816790,-3, 0, -3, 1, -2, -2, -1, -1
1503702816807,0, -1, -2, -1, 0, -1, -1, -1
1503702816820,1, 2, 0, 0, -1, 0, -1, -1
1503702816844,-1, -2, 0, 1, -1, 0, 0, 0
1503702816865,-1, -2, -2, -2, 1, -2, -2, -2
1503702816880,0, -1, 0, -1, 0, 1, -1, 0
1503702816902,-1, 0, -1, 2, -1, -2, -1, 1
1503702816925,-3, -3, 0, -1, -1, 0, -2, -1
1503702816940,-4, -5, -2, -3, -1, -2, -2, -3
1503702816962,-3, -4, -1, 0, 0, 0, -1, -1
1503702816977,3, 1, 0, 0, 1, 1, 1, 3
1503702816993,0, 1, -1, -1, -2, -1, 0, 0
1503702817016,0, -2, -2, -2, -1, -1, -1, 0
1503702817031,-2, -4, -3, 0, -1, 0, 0, 0
1503702817053,0, -1, -2, -1, -1, -1, -2, -4
1503702817075,-1, 0, 2, 0, 0, -2, 0, -2
1503702817090,0, -2, -1, -1, -1, -1, -2, -1
1503702817113,-1, -1, -1, 0, 0, -1, -1, 0
1503702817135,-3, 0, 0, 0, 1, 0, -1, -1
1503702817157,0, 0, -1, -1, 1, 0, -2, 1
1503702817175,-2, -3, -2, -2, -1, -2, -1, 1
1503702817195,0, 1, -2, 0, 0, 1, 1, 0
1503702817218,-2, -1, 0, -1, -2, 3, 0, -2
1503702817233,0, 1, 1, -1, -1, -2, 1, 1
1503702817255,1, 0, -1, 0, -2, -1, 1, 0
1503702817278,1, -1, -2, 0, 0, 0, -1, -7
1503702817293,-1, -2, -3, -1, -2, -2, -1, 1
1503702817308,0, 0, -1, -3, -1, -2, 1, 1
1503702817316,-1, -1, 0, -1, -1, -1, -1, -1
1503702817338,-2, -1, 2, 0, 0, 0, -2, -1
1503702817353,0, -1, 0, 0, -2, 0, 0, 1
1503702817376,0, -3, -2, -1, -1, -1, 0, 0
1503702817397,0, -2, -1, 0, 0, -2, 0, 0
1503702817415,-1, 0, 0, 1, 1, -1, -3, -4
1503702817435,0, 5, 4, 3, 1, 0, -1, 3
1503702817457,-1, -2, -4, -3, -3, -3, -1, -2
1503702817474,-2, -2, -2, 1, 0, 1, 0, 0
1503702817495,1, 0, -1, -3, 2, 0, -1, 2
1503702817518,-2, -4, -4, -6, -2, -3, -2, -3
1503702817533,-1, 4, 19, -9, -19, -3, 0, -1
1503702817555,4, 3, -15, -5, 3, 0, 0, 0
1503702817580,-2, -7, 8, -1, 5, 1, 1, 5
1503702817588,-6, -6, -18, -3, 2, -1, -1, -2
1503702817607,-5, -3, -2, -5, -4, -3, 0, -1
1503702817622,-3, 0, 21, 3, -2, 0, 1, 2
1503702817649,5, -2, -2, -4, -1, 0, -1, -1
1503702817667,-17, -9, 1, 8, 0, -2, -4, -5
1503702817682,8, 1, 9, -3, 8, 1, 0, 1
1503702817705,8, 8, 10, 3, -4, -1, -2, 1
1503702817727,5, 6, -12, -20, -9, -2, -2, 1
1503702817742,-11, -16, -26, -14, -5, -4, -1, -4
1503702817765,5, -11, -1, 8, 2, 0, 1, -1
1503702817788,5, 2, 12, 11, -3, 3, 1, 0
1503702817802,1, 10, -9, -7, 0, -2, -2, -1
1503702817818,-12, 2, 35, 13, 0, 2, -1, -1
1503702817833,18, 4, -1, -1, 1, 0, 4, 8
1503702817855,0, -6, -27, -14, -4, -3, -2, -2
1503702817878,-1, 13, 5, -10, -8, -4, -2, -2
1503702817893,2, 8, 6, 0, 3, -1, -7, -1
1503702817917,6, 3, 5, 9, 5, 3, 4, 6
1503702817937,-2, -16, -13, -9, -1, -1, 1, 1
1503702817953,0, 4, 10, 3, -2, -2, -1, 2
1503702817975,2, -4, -9, 4, 1, -2, 1, 0
1503702817997,-3, 1, -10, -1, 1, -1, 3, 5
1503702818014,-2, -6, -5, -5, -4, -1, -1, -5
1503702818035,1, 13, 7, 1, -2, 0, -1, 0
1503702818057,-4, -4, -4, 1, -1, 0, -5, -3
1503702818073,-5, -7, -11, -9, -7, -3, 0, 0
1503702818095,-13, 3, 9, -1, -4, -4, -4, -11
1503702818118,10, 5, 3, 4, -3, 2, 0, 4
1503702818140,2, -3, -2, -5, -1, -2, -1, 0
1503702818155,-3, 0, 0, -4, -1, 1, -2, -2
1503702818178,-3, -8, -5, -3, -1, 1, -1, -2
1503702818200,-1, 3, 3, 1, -12, -8, -1, 3
1503702818216,2, 6, 4, 0, 7, 4, 3, 2
1503702818238,6, 11, 2, 1, 1, 0, -2, -3
1503702818260,-1, -3, 6, 4, 3, 0, 1, 0
1503702818275,-3, -13, -3, -3, -6, -5, -5, -2
1503702818297,13, 33, 6, -3, -39, -22, -3, 6
1503702818320,5, 52, 20, 5, 56, 5, 5, -6
1503702818335,15, -20, -78, -33, 5, 38, 1, 69
1503702818351,-27, -50, -92, -11, -5, -125, -27, -32
1503702818365,19, 63, 25, -18, -126, -46, -35, 39
1503702818387,-42, -119, 16, 17, 6, 40, 23, -36
1503702818409,9, 17, 15, 8, 53, 33, 11, -30
1503702818426,-8, -5, 10, 2, 1, -35, 0, -19
1503702818447,-8, 11, -1, -35, -15, 25, 6, -7
1503702818469,4, -6, -5, 15, 3, 13, 3, 18
1503702818485,-3, 17, 10, 1, -13, -7, -3, 3
1503702818507,0, -9, -6, -14, -34, -38, -8, 3
1503702818529,-5, 6, 6, -6, -14, 22, 11, 0
1503702818538,2, 3, -6, -2, 3, 5, -3, -17
1503702818560,4, 2, -1, -4, -3, -18, -3, 3
1503702818575,3, 3, 6, -1, 1, 21, 2, 0
1503702818597,-2, 10, 9, 3, 3, 11, -1, -8
1503702818620,4, -1, 1, 3, -5, -20, -1, 2
1503702818635,0, -3, -3, -6, -6, -9, 0, 16
1503702818657,2, 2, -1, 0, -1, 1, -2, -2
1503702818680,-3, -4, -3, -3, -3, -1, 0, 3
1503702818695,-1, 0, 1, 1, -1, 2, 6, 12
1503702818720,0, -1, -2, -3, -2, 5, -2, -11
1503702818740,-1, -2, -2, -2, -2, 3, -2, -8
1503702818755,-4, -4, -6, -3, -2, -1, -1, -6
1503702818777,0, -3, -1, -3, -1, -4, -2, -2
1503702818800,-3, -2, 0, 0, -2, -1, -4, -8
1503702818815,2, -1, -1, 1, 1, 0, -2, -2
1503702818837,0, -1, -1, 1, 0, -3, -1, -1
1503702818860,-1, -1, -2, -3, 3, 2, 4, 5
1503702818875,-1, -1, -1, -2, 1, -2, -3, -4
1503702818897,-1, 2, -1, 0, -3, 0, -3, 2
1503702818921,0, -2, -1, -2, -3, -2, -2, 3
1503702818935,-1, 0, -1, -1, -2, 0, 1, -2
1503702818958,-1, 0, 1, 2, -1, 0, 0, 0
1503702818980,-2, -1, 0, -1, 2, -2, -1, -1
1503702818996,-6, -2, -2, -1, -1, -1, -1, -7
1503702819017,4, 1, 0, 0, -2, -1, -1, 0
1503702819040,0, 1, -2, -1, -2, 0, 0, -3
1503702819047,0, -2, -2, -2, 0, 0, 0, 1
1503702819069,-1, -1, -2, -3, -1, 0, 1, -5
1503702819092,-1, 2, 0, 1, 1, 2, 3, 2
1503702819106,-2, -6, -4, -2, -2, -1, -2, -1
1503702819129,-1, 1, 1, 2, 4, 0, 0, -1
1503702819152,-1, 0, 2, 1, -1, -1, -16, 0
1503702819167,5, -1, -1, -3, 5, 0, 5, 2
1503702819196,10, 9, 7, 9, -1, -1, -1, 1
1503702819212,-21, -6, -5, -1, 4, -2, -2, -6
1503702819228,-52, -23, -6, -6, -8, -2, -2, -17
1503702819249,26, 5, -1, 3, 3, -3, 3, 4
1503702819272,3, 2, 1, -3, -1, -5, 2, 3
1503702819287,1, -5, -2, -3, 1, 0, 3, -2
1503702819309,-53, -5, -7, -5, -5, -2, -8, -12
1503702819332,14, 5, 2, 2, -9, 0, -10, 2
1503702819347,22, -1, -4, -5, -12, -2, 0, -2
1503702819369,8, 0, 2, 0, 5, -1, 1, 6
1503702819392,3, 5, 4, 2, 2, 5, 9, -10
1503702819415,25, 8, -7, -4, -5, 0, 1, 7
1503702819430,1, 1, -2, 0, 2, 0, -2, -5
1503702819453,-27, -8, -3, -3, 1, 0, 1, -15
1503702819475,6, -2, 2, 1, -4, -2, -2, 5
1503702819491,8, 0, 2, 0, 0, -1, -1, 9
1503702819513,5, -2, -9, -3, -1, -3, -11, 4
1503702819535,-9, 3, 3, 1, 0, 0, -9, -4
1503702819550,17, -4, -5, -5, -3, 0, 10, 21
1503702819573,-2, -12, 12, 8, 3, 0, 1, 5
1503702819595,3, 24, 2, 0, 0, -1, -2, 0
1503702819610,-24, -20, -5, -9, -4, -5, 1, -14
1503702819633,1, 0, 5, 4, 0, -4, -1, -1
1503702819655,-8, -3, -9, -2, 2, 0, 0, 8
1503702819670,15, 25, -4, -3, -1, 2, 11, 11
1503702819694,29, -10, -19, -9, -6, -6, -10, -9
1503702819715,-50, -10, 6, 5, -9, 2, 3, 2
1503702819730,3, 3, -5, -4, -1, 3, 2, 6
1503702819737,-29, -2, -1, -3, -13, -5, -5, -5
1503702819761,15, 5, -3, -1, 2, 2, -2, 2
1503702819782,1, -2, 5, 1, 0, 1, 1, 5
1503702819798,2, -4, 0, 0, 3, 0, 0, 4
1503702819820,8, 3, 1, 2, -5, 4, 4, 3
1503702819842,5, -1, -3, -3, -5, -2, -2, 2
1503702819857,-1, -3, -2, -1, -5, -1, -6, -11
1503702819880,-12, -34, -11, 0, 3, -3, -12, 2
1503702819903,1, 2, -4, -6, -4, -1, -2, -11
1503702819918,-32, -2, 2, 0, 1, -2, 1, 4
1503702819940,16, 18, 11, 6, 23, 1, 4, 4
1503702819963,2, -3, -9, -6, -5, -1, 0, -4
1503702819971,3, -3, -3, 1, -3, 2, 2, 1
1503702819995,-5, -3, 4, 3, -4, -2, 1, 2
1503702820015,4, 6, 7, 4, -1, 1, 0, -1
1503702820030,-2, -2, -3, -2, -4, -2, -6, -6
1503702820053,-2, 7, 0, -1, 0, -4, -1, -5
1503702820075,16, -6, -1, -3, -5, -4, -5, -3
1503702820090,-8, 1, -1, -2, 1, 0, 0, -1
1503702820113,-5, -4, -14, -8, -5, -4, -3, -6
1503702820135,3, 3, -2, -1, 0, -1, 0, 1
1503702820150,-10, -4, 5, -1, 6, 1, -1, -1
1503702820166,0, 1, -4, -3, 0, 0, 3, 0
1503702820180,6, 4, -3, -5, -4, -2, -2, -6
1503702820203,-12, -14, 1, -1, -4, -2, -1, -16
1503702820225,-2, 1, 2, -1, 1, -2, -3, 6
1503702820240,-9, -12, -2, -3, -5, 2, -5, 2
1503702820264,-10, -10, -7, -3, -2, -2, -1, 2
1503702820285,7, 0, 2, 1, 2, 8, 8, 15
1503702820300,-4, -7, 4, 0, -2, -5, -1, -3
1503702820322,-2, -12, -4, -1, 0, -3, -3, -1
1503702820346,12, 12, -2, -4, -5, -4, -5, 1
1503702820360,4, 2, 3, 0, 2, -1, 4, 8
1503702820382,-2, 5, 0, 2, -4, 0, 3, 0
1503702820407,5, 0, -5, -1, 0, 4, 6, -10
1503702820420,4, 1, 0, 0, 6, 0, -1, 5
1503702820442,10, -1, -2, -1, 6, -1, -3, 8
1503702820450,-13, 12, 2, 0, 4, 5, -3, -9
1503702820475,-3, -5, -3, 1, 7, 1, 1, 6
1503702820495,-6, 2, 4, -3, -8, -1, -1, 4
1503702820502,7, 2, 0, -2, -6, -1, 1, 6
1503702820510,4, 7, 10, 1, -4, 1, 1, 0
1503702820541,8, 5, 2, 1, -1, -2, -2, -4
1503702820563,7, -2, -1, -1, -11, -2, -3, -2
1503702820585,9, -1, -4, -4, -2, -4, -8, -14
1503702820604,1, 1, -1, 1, 13, 0, 0, -1
1503702820622,10, 6, -5, 1, 0, -3, 1, 0
1503702820633,10, 3, -2, -3, -2, -2, 0, 6
1503702820653,-10, 6, -5, -5, 4, 3, 4, 6
1503702820675,-19, -5, -1, -2, -3, -1, 0, 10
1503702820690,17, 2, 3, 2, 2, -1, -7, 1
1503702820713,8, -1, -6, -4, -5, -4, -2, -2
1503702820735,2, -3, -3, -4, 1, -1, 1, 10
1503702820751,7, -2, -1, 0, -4, -4, 1, 6
1503702820773,-20, -4, -2, 0, 1, -1, -4, -8
1503702820795,-14, -14, -6, -4, -1, -3, -22, -30
1503702820811,5, 1, -3, -1, 0, -1, -4, -49
1503702820835,-9, 0, 2, 3, 3, 1, 6, 14
1503702820855,-13, -1, -4, -3, 0, 2, 4, 0
1503702820870,23, -11, 12, 0, -3, -6, -3, 6
1503702820893,3, 8, -6, -2, 2, 6, 7, 0
1503702820915,19, 1, 1, -1, -2, -3, -4, 1
1503702820939,9, 3, 11, 1, -4, -2, 6, 6
1503702820953,20, -1, -6, -1, -3, 0, 8, 21
1503702820975,-7, 4, -6, -2, -3, -3, -3, -1
1503702820998,1, 3, 0, 1, 2, 3, 5, 11
1503702821013,3, 16, -1, 1, 4, -2, -3, -9
1503702821037,7, 4, -4, -4, -2, 1, 2, 6
1503702821064,-42, -21, -4, -1, -1, -2, -10, -19
1503702821076,-15, -5, 0, -2, 1, -2, 6, 6
1503702821095,-25, -3, -2, -3, 0, 3, 0, -6
1503702821117,7, -4, 1, -1, -3, -3, -4, -4
1503702821133,-22, -1, 1, 3, 7, -2, -1, 4
1503702821155,17, 3, 8, 2, -1, 2, 2, 7
1503702821178,11, 11, 3, 1, -2, -3, -7, -10
1503702821193,38, 1, -3, -2, -1, 3, -1, -1
1503702821222,-6, -11, -10, -5, -4, -4, -1, -2
1503702821238,2, -3, 2, 3, 1, 0, -3, 21
1503702821253,-3, 2, 0, -5, -10, 1, 9, 4
1503702821276,-15, -13, -6, -1, -4, -1, -5, -21
1503702821298,3, 2, 0, -1, 2, -2, -9, -11
1503702821313,2, 1, -1, 1, 5, 0, -1, 0
1503702821343,2, -10, 0, 0, 0, 3, 0, -7
1503702821357,-9, -1, 0, 2, 0, 1, 2, 7
1503702821373,-6, 0, 2, 0, -1, -4, -5, 3
1503702821395,11, -2, 4, -1, 0, 0, 1, 0
1503702821417,3, 13, 1, 3, 0, -1, -2, -14
1503702821433,-46, -13, -10, -5, -1, -2, 2, 2
1503702821455,12, 1, 1, 0, -1, -1, -4, -7
1503702821477,10, 3, 0, 2, 1, 2, 1, 8
1503702821493,-5, -6, -8, -7, -5, -2, 0, -4
1503702821515,-9, -13, 0, -3, -1, -4, -7, -5
1503702821543,5, 17, 5, 4, 2, -1, 2, 1
1503702821553,-11, -5, -5, -3, -3, 0, -2, -2
1503702821576,0, 5, 3, 4, 0, 0, 0, -1
1503702821598,-3, 9, 1, -2, 1, 2, 2, 3
1503702821613,11, -6, -8, -3, -1, -1, 5, 4
1503702821635,19, 4, -2, -1, -2, 2, 2, 3
1503702821657,-5, 2, 1, -4, -3, -2, -2, -2
1503702821681,-2, -13, -3, -1, 0, -5, -3, -2
1503702821695,16, 8, -1, 2, 1, -1, -6, 1
1503702821717,2, -4, -5, -2, -2, -4, -3, -14
1503702821733,-8, -3, 0, 0, -2, -1, -2, -4
1503702821755,-8, -6, 7, 4, 2, 2, -1, 0
1503702821777,-8, -3, 1, -4, -5, -3, -1, -7
1503702821793,-9, -6, -1, 0, -1, 1, -4, 2
1503702821816,4, 7, 0, 0, -1, 0, 1, 5
1503702821837,-2, 10, 12, 11, 4, 1, 0, -3
1503702821860,-1, -13, -4, -4, -2, -3, -3, -2
1503702821876,-18, -10, -9, -4, -2, -3, -1, -3
1503702821898,3, -6, -8, -7, -4, -3, -1, 12
1503702821920,-12, 3, -7, -4, -2, -1, -3, -5
1503702821935,1, 0, -6, -2, -1, 0, 1, -2
1503702821957,4, -1, -4, -1, -1, 3, 6, 6
1503702821980,-2, -2, 5, 0, -1, 1, 2, 4
1503702821996,6, -3, -1, -2, -2, -1, 4, 0
1503702822018,-17, 0, -12, -10, -7, -3, -4, -5
1503702822040,6, 4, 6, 7, 5, 4, 0, -5
1503702822055,3, 1, 3, 3, 1, -2, 2, 1
1503702822077,0, -6, -3, -3, -1, -1, -3, -6
1503702822100,-3, -3, -1, 0, 0, -6, -11, -5
1503702822116,-2, 2, -1, 0, -6, -3, -5, -7
1503702822137,6, -5, 1, -1, -1, -1, -1, 2
1503702822160,4, 7, 3, 1, 0, -1, 1, 3
1503702822177,-5, -1, 5, 2, 3, 2, 1, -3
1503702822197,-1, 17, -2, -3, -2, -4, -3, 4
1503702822220,12, 2, 7, 6, 3, 2, -1, 10
1503702822235,11, 9, -9, -4, -5, -2, 1, -5
1503702822257,4, -5, 1, -1, -1, -2, -3, -1
1503702822280,-14, -4, -4, -4, -3, -3, -2, -5
1503702822295,3, -5, -4, -5, -4, -4, -1, 2
1503702822318,-8, -3, 3, 2, 1, 2, 3, -6
1503702822340,-19, 11, 8, -1, 2, 1, -1, -2
1503702822355,-1, -14, -9, -6, -2, -1, 3, 4
1503702822382,13, -1, -5, -5, -5, 1, 1, -1
1503702822400,1, -2, 2, 3, 1, -1, -2, 0
1503702822417,-1, -2, -7, -3, -2, 0, -7, -13
1503702822438,1, -2, 2, 2, 2, 2, 3, -9
1503702822460,0, -2, 2, 5, 3, 1, 4, 4
1503702822475,-10, -11, 8, 7, 5, -2, -6, -5
1503702822505,3, -9, -15, -13, -8, -4, 2, 7
1503702822521,-1, 4, -4, -4, -4, -1, 2, 8
1503702822535,-2, -10, 2, 0, 1, 1, -2, 0
1503702822558,15, 2, 0, 3, 1, 1, -1, 2
1503702822581,4, 6, 14, 11, 8, 5, 3, 5
1503702822595,2, 13, 1, 2, 0, -4, -4, -1
1503702822618,0, 3, -4, 1, -1, -3, 1, 3
1503702822640,0, -2, -1, -2, 0, 0, 1, 0
1503702822656,-4, 1, 2, 0, 0, 0, 0, -3
1503702822681,-7, -8, 1, 4, 3, -2, -8, -3
1503702822700,0, 2, -10, -10, -8, -3, 0, -4
1503702822716,-5, -3, -4, -2, -2, 0, 0, -2
1503702822737,-4, -12, -5, -3, -3, -2, 0, -2
1503702822760,-4, -2, -1, -3, -1, 0, 1, 7
1503702822782,4, 5, -2, -3, -2, -2, 1, 0
1503702822798,7, 2, 3, -1, -1, -1, -2, 17
1503702822820,-7, -3, 3, 2, 2, 1, -3, -16
1503702822842,0, -5, -3, -3, -2, -3, 0, 4
1503702822858,4, 14, 6, 2, 2, 2, 0, -5
1503702822882,-2, -13, -6, -4, -3, 0, -1, -2
1503702822902,-4, 2, 0, -1, -1, 0, 2, -6
1503702822931,3, 4, -1, -2, 1, 1, -2, 0
1503702822953,-5, -7, -3, -4, -4, -1, 0, -7
1503702822970,1, 1, 0, -2, -1, 1, 2, -2
1503702822991,-1, 7, 1, -1, -2, -2, -2, -3
1503702823007,0, 12, -2, -2, -1, -2, 0, -2
1503702823030,-3, -5, -4, 0, 0, 0, -1, 3
1503702823052,-4, -12, 0, 3, 2, 1, -1, 0
1503702823067,0, -2, -2, 0, -1, 0, -2, -2
1503702823090,-10, -8, 0, 0, 0, -2, -1, -6
1503702823111,2, -9, 0, -3, -2, -2, 0, 2
1503702823127,-3, -6, -1, -1, 0, 0, -1, 3
1503702823159,1, -4, 1, 2, 3, 0, -2, -1
1503702823180,3, 10, 6, 1, 0, 0, -2, -2
1503702823202,-7, -1, -3, -4, -1, 0, 1, 3
1503702823227,2, -9, -7, -4, -2, -1, 0, 5
1503702823240,3, -1, 1, 0, 1, 0, 1, 0
1503702823263,-11, 5, -2, 2, 0, -1, 1, -1
1503702823278,6, 0, -6, -2, -2, -1, -1, 1
1503702823300,0, 2, 4, 0, 0, -1, -1, -1
1503702823322,-3, 1, 1, -3, -1, 1, -1, -5
1503702823338,-2, -3, 2, 0, -2, -2, -2, -5
1503702823360,5, 12, 8, 3, 2, 0, -1, 1
1503702823382,-7, -9, -6, -4, -1, -1, -2, -5
1503702823398,0, -5, -6, -2, -2, -3, 1, -1
1503702823422,-4, -8, 0, -1, -1, 1, -1, -1
1503702823442,0, -6, -5, -2, -2, -2, 0, 2
1503702823458,-3, 3, -4, -1, -3, -3, 1, -1
1503702823479,5, -1, -1, -5, 0, 0, 0, 0
1503702823487,1, 0, -1, -2, -1, 0, 1, 2
1503702823510,2, -7, -5, -3, -1, -1, -2, -4
1503702823532,0, -6, -3, -1, 0, 0, -1, 1
1503702823547,-3, 2, 2, -1, -1, 0, -1, -1
1503702823570,5, 6, -3, 1, 0, 0, -1, -1
1503702823592,-12, -3, -2, -3, -3, -2, -1, -5
1503702823607,5, 1, 6, 5, 3, 0, -2, 3
1503702823631,1, -4, -4, -1, -3, -2, -2, -1
1503702823656,7, 5, 3, 1, 1, 0, 1, 1
1503702823667,-3, -6, 2, 0, 1, -1, -1, -1
1503702823692,-2, 0, -2, -1, -1, 0, 0, 0
1503702823711,-21, -7, -2, -1, -2, -1, 0, -3
1503702823734,8, 3, -1, -1, 0, -2, -2, 0
1503702823750,-4, -2, -2, -4, -1, -2, 0, -1
1503702823780,5, -4, -7, -6, -3, 0, 6, 1
1503702823794,2, 1, 0, 1, 0, 0, 1, -1
1503702823810,-2, 0, 1, -4, -3, 0, -3, -1
1503702823832,4, -2, -5, -3, -3, 0, -2, 0
1503702823856,2, 4, 1, 1, 0, -3, -5, -5
1503702823870,-3, 3, 2, 0, 0, 1, -2, -2
1503702823892,-20, -16, -4, -2, -3, -1, -1, -3
1503702823914,2, -3, -3, 1, 0, 0, -1, 0
1503702823931,4, -1, 0, -1, -2, 0, -1, -1
1503702823954,-5, -5, -2, -1, 0, -2, 4, -1
1503702823974,15, 9, 2, 2, 1, 0, 1, 1
1503702823990,-1, 7, 3, 1, 1, 1, -1, -2
1503702824011,3, 8, 3, 0, 0, -1, -4, -1
1503702824034,-1, -9, -4, -1, 0, 0, -2, -2
1503702824050,5, -6, -3, -3, 0, -1, -3, 0
1503702824071,-6, 0, -2, -1, -2, -1, 0, 1
1503702824094,0, -5, 2, 3, 0, 0, -2, 0
1503702824110,-1, 0, -1, -3, -2, 0, -1, 2
1503702824132,-2, -3, -2, -1, 1, -1, -2, -1
1503702824154,-2, 1, -3, -3, -1, 0, 0, -1
1503702824170,-7, -3, -3, -1, -1, 1, 2, -2
1503702824192,3, -3, 0, -1, -1, -4, -1, 1
1503702824214,3, 3, -2, 0, -1, -2, -3, 4
1503702824230,-19, 0, 4, 2, 0, 2, 0, 0
1503702824252,6, -23, -15, -4, -5, -3, -2, -8
1503702824274,13, 8, 1, 2, 1, 1, 7, 8
1503702824291,-5, 5, 7, 4, 2, 0, -2, -2
1503702824311,-6, -19, -2, -4, -3, -3, -2, -10
1503702824334,1, 5, 1, 1, 0, -2, 1, 0
1503702824350,-2, 6, 1, -2, -4, -2, -2, 4
1503702824372,-5, 4, 12, 6, 2, 2, 0, -6
1503702824395,2, -3, -5, -5, -1, -2, 0, 0
1503702824410,1, -2, -1, -2, -5, -5, -9, -1
1503702824431,-3, 0, -3, -2, 0, 1, 2, -1
1503702824454,3, 4, -8, -5, -1, -2, 0, 0
1503702824470,2, -7, -4, -2, -2, -2, -1, 0
1503702824496,5, 3, -4, -1, 0, -2, 1, -5
1503702824514,-7, 0, 1, 0, -2, 0, -2, -4
1503702824530,1, 7, 2, 3, 2, -2, 6, 1
1503702824551,-2, 4, 2, 1, 0, 2, -6, -2
1503702824574,-3, -4, -5, -7, -3, -2, -5, 0
1503702824590,-4, 0, 2, 1, 1, -1, 2, 1
1503702824611,-7, 2, -4, -3, -1, -2, -5, 0
1503702824634,0, 0, -1, -2, -1, -2, 0, 11
1503702824656,3, 1, 3, 1, -1, 0, -4, -16
1503702824671,7, 2, 5, 3, 3, 3, -2, 11
1503702824694,-18, -14, -5, -2, 0, 1, 2, -7
1503702824725,-7, 9, 4, 0, 0, 0, 1, -9
1503702824740,3, 4, -1, 0, -2, -2, 2, -4
1503702824755,1, -10, -5, -1, -1, -1, 0, -2
1503702824778,0, -7, -3, -2, -1, -2, -2, 1
1503702824793,6, -2, -5, -1, -2, -3, 2, 14
1503702824815,8, 0, 4, 1, 1, 0, -1, 2
1503702824839,2, 14, 0, -1, -2, 0, -4, -2
1503702824861,16, -2, -5, -2, 0, 1, 2, 5
1503702824875,-3, 3, 5, 3, 1, 0, 5, -1
1503702824898,-7, -4, -4, -3, -1, 0, -7, -2
1503702824926,-7, 3, -1, -1, 0, 3, 4, -6
1503702824935,-9, -18, -8, -1, -7, -7, -5, 2
1503702824958,-7, 5, 0, -4, -4, -2, -2, -9
1503702824973,1, -5, -2, 0, 2, 0, 1, 1
1503702824996,4, 5, 1, -3, -1, -4, -1, -18
1503702825018,2, 2, -1, -1, 1, 2, 1, 5
1503702825033,5, 2, -1, 1, 2, 2, 1, 18
1503702825064,6, -2, 7, 2, 1, 2, -1, 1
1503702825078,-2, 0, 1, 1, 1, -4, -4, 3
1503702825093,-24, -15, -7, -6, -3, -5, -4, -11
1503702825115,-11, -6, -5, -4, -1, 0, -3, -2
1503702825138,5, -1, 0, 3, 1, -1, 2, 8
1503702825153,0, 1, -6, -5, -4, -3, -1, -10
1503702825176,4, -1, -1, 0, -2, -2, -1, 5
1503702825198,9, 13, 8, 5, 5, 2, 1, -2
1503702825213,-2, 0, -5, -4, -4, -1, -1, -14
1503702825242,-22, -11, 0, 3, 0, 2, -1, -8
1503702825258,-4, -1, -2, -1, -3, -1, -1, 2
1503702825273,8, -3, -2, -4, -3, 0, 1, 0
1503702825296,-3, -8, -2, -3, -3, -2, -4, -1
1503702825319,-8, 2, 2, 2, 1, 1, -7, -8
1503702825340,14, 3, 5, 1, 0, 0, 6, 5
1503702825355,0, 3, 4, 1, 2, 0, 1, -5
1503702825377,-30, -6, -6, -3, 1, 2, 0, 2
1503702825386,16, 2, -1, -1, -2, -3, -1, -6
1503702825407,-9, -1, 8, 4, 2, 0, -2, -3
1503702825422,-35, -9, -5, -4, -3, -3, -5, -28
1503702825445,-29, -7, -1, -2, -4, -1, -1, -6
1503702825468,3, 3, 0, -1, -1, -2, 0, -13
1503702825482,14, 0, 2, 0, 1, 0, -3, 0
1503702825505,3, 0, -5, -3, -3, -2, -1, -5
1503702825527,-3, -3, 1, -2, 1, 0, 1, -7
1503702825550,-3, -2, 9, 1, -1, -1, -1, 13
1503702825564,22, 11, -4, 0, -1, -2, -6, -24
1503702825587,6, -4, -6, -1, -1, 0, 4, 25
1503702825610,-11, -5, -2, 0, -1, -1, 3, 7
1503702825624,15, 5, 8, 1, 0, -2, 1, 3
1503702825640,-11, -2, 2, 1, 0, -2, 1, -9
1503702825655,-4, -4, -9, -8, -8, -4, -2, -3
1503702825679,8, 6, 5, 5, -1, 2, 2, 12
1503702825700,-38, 13, 3, 1, 0, -3, -5, -13
1503702825707,-16, 2, -1, 1, 0, -2, -3, -9
1503702825730,9, 1, 1, -2, 1, 1, -1, 4
1503702825738,0, 3, 6, 1, 1, -1, 1, 12
1503702825760,12, 4, -2, 0, 1, 1, 5, 48
1503702825775,-23, 4, -2, -3, 0, 1, 1, -18
1503702825798,-2, -8, -10, -7, -5, -4, -6, -23
1503702825819,5, -1, 3, 1, 1, 1, 1, 15
1503702825836,-29, -10, -1, -1, -1, -1, -5, -50
1503702825858,-15, -2, -1, 1, 0, -2, -6, -5
1503702825879,-20, -12, -1, -1, -1, -3, -3, -12
1503702825887,7, -6, -7, -1, -1, -2, -2, 9
1503702825910,-4, -3, -4, -5, -1, 0, 2, -2
1503702825925,-7, 3, 7, 3, 1, 0, -5, 10
1503702825947,-9, 2, -2, -4, -3, -1, -4, -7
1503702825970,15, 4, -1, 0, -4, -2, 2, 0
1503702825984,5, 2, -1, -2, -4, 0, 1, -5
1503702826007,-15, -7, -1, -1, -1, -3, -3, -10
1503702826029,2, -5, -6, -4, -3, -2, -5, -8
1503702826046,-16, -14, -1, -1, -1, -2, 1, -13
1503702826067,-4, 9, 7, 4, 4, 4, -1, 10
1503702826089,17, 2, 1, 0, -3, -3, -1, 16
1503702826105,13, 5, 0, -2, 2, 3, 4, -3
1503702826127,-1, -3, 2, 1, 1, 0, -1, 2
1503702826150,3, 2, -1, -3, -2, 0, -1, 7
1503702826165,-15, -3, 6, 1, -2, -1, 0, -2
1503702826188,-1, 1, -4, -2, -1, 0, -3, -7
1503702826210,-1, 2, 1, 2, -1, -2, -2, -5
1503702826225,12, 14, 1, 0, 1, -2, -3, 14
1503702826249,-5, -8, -6, -1, -3, -3, 0, -5
1503702826271,-12, -3, -1, 0, 1, 2, 3, -3
1503702826285,7, 2, -3, -3, -2, -1, 2, -3
1503702826315,4, 2, 0, -1, 0, -2, 0, -6
1503702826344,3, 4, 4, 0, 0, 0, 0, 5
1503702826361,-10, -7, 1, -3, -3, -2, -1, 0
1503702826376,-12, 6, -3, -1, -1, -1, -1, -1
1503702826397,9, 7, 2, 5, 2, 0, -5, -2
1503702826422,7, 3, -1, -3, 0, 1, 2, 4
1503702826435,-3, -1, -2, 0, -2, 0, -3, -1
1503702826450,-8, 5, -4, -3, -2, -2, -2, -10
1503702826464,-1, 6, -2, -4, -3, -2, -1, -1
1503702826480,12, 4, -1, 1, -1, 0, 1, 0
1503702826502,6, -3, 0, 2, 2, -1, 4, -1
1503702826517,-9, 2, -5, -5, -2, -2, 0, -3
1503702826542,9, 12, 6, 2, 0, -1, 0, -1
1503702826562,-1, 0, 5, 5, 3, -1, -1, 2
1503702826578,1, -6, -6, -6, -4, -1, -2, 4
1503702826600,-11, -5, 1, 1, -1, -1, -1, -5
1503702826622,-1, -3, -9, -5, -4, -1, -1, -7
1503702826637,8, 2, 8, 1, 1, -1, -3, -2
1503702826660,-6, -5, -5, -3, -2, -1, -3, -2
1503702826682,-6, 2, -1, -1, 1, 0, 1, 4
1503702826697,8, -2, 3, -1, -1, 0, 0, 5
1503702826720,-9, -5, -3, -2, -2, -2, -2, -6
1503702826743,5, 6, 0, 4, 1, 1, 0, -3
1503702826757,-1, 4, 0, -3, 0, 0, -3, 0
1503702826772,2, -7, -1, -2, -1, 1, 2, 5
1503702826787,-8, -1, -3, -2, -2, -4, -1, -11
1503702826811,1, -18, -4, -3, -1, -2, 1, 5
1503702826833,0, -5, 2, -3, -3, 0, 0, 1
1503702826848,-17, 11, -3, -3, -2, 0, -1, -4
1503702826870,2, -2, 1, 1, 1, 0, -1, 2
1503702826892,3, 0, -7, -4, -3, -3, -1, -3
1503702826907,-6, 0, -6, -3, -4, -2, -4, -5
1503702826930,-14, 2, -3, -3, 0, -4, -6, 4
1503702826952,10, 6, 8, 7, 4, -1, 1, 0
1503702826967,3, 2, -1, -2, -1, 1, 0, -2
1503702826989,-13, -13, -5, -2, -1, -1, -2, 2
1503702826997,-1, -1, -3, -3, -2, 0, -7, -3
1503702827020,-30, 0, -2, -3, 0, -1, 3, -1
1503702827044,5, -2, 2, 3, 1, 0, -1, 1
1503702827057,9, 6, 5, 3, 2, 1, 2, -4
1503702827080,7, 0, -1, 1, 0, -2, 0, -2
1503702827102,1, -1, 2, 1, 2, 0, -2, -3
1503702827118,11, 4, -7, -6, -6, -4, -3, 3
1503702827141,11, 5, 1, 1, 0, 1, 1, 1
1503702827162,-4, -6, -4, -4, -4, 0, 0, -1
1503702827178,-6, -13, 1, 1, 0, 0, 0, 1
1503702827200,-12, -10, -4, -1, -2, -3, -1, -6
1503702827222,-8, -11, 2, 1, -1, -1, 1, 0
1503702827237,-9, 4, -3, -2, 1, -1, -9, -15
1503702827260,0, 3, 5, 3, 2, 2, 1, 0
1503702827282,-11, 1, -1, -1, 0, -1, 1, 3
1503702827298,7, 5, -3, -1, 0, 1, 2, 5
1503702827321,3, -3, -5, -3, -2, -1, 0, 2
1503702827342,0, 7, 8, 5, 0, 1, -1, -1
1503702827357,1, -1, -4, -2, -1, -3, -3, -1
1503702827381,11, 5, 3, 0, 0, 0, 0, 2
1503702827402,5, -7, -2, -2, 0, 1, -1, 1
1503702827424,-3, -4, -7, -3, -2, -3, 0, 0
1503702827441,-2, -3, -9, -5, -3, -1, 7, 4
1503702827462,2, 5, -2, -4, -2, -2, -1, -1
1503702827484,-3, -2, 3, 6, 3, -2, -4, -4
1503702827500,-7, -7, -4, -4, -1, -2, -2, -2
1503702827522,-5, 0, -1, 0, -2, -1, -1, -3
1503702827544,8, 5, 6, 3, 2, 2, 3, 3
1503702827560,-1, -2, -5, -4, -3, -1, 1, 2
1503702827593,-2, -1, -1, -2, -1, -1, -2, -5
1503702827615,-1, -8, -1, -3, -1, 0, -1, -3
1503702827634,-1, -2, -11, -7, -6, -3, 3, -4
1503702827650,-1, 2, 1, 1, 1, 1, -2, -3
1503702827672,4, 9, 7, 6, 4, 0, -3, 1
1503702827694,1, -2, -7, -2, -3, 0, -3, 2
1503702827709,0, 4, 3, 6, -1, 0, 1, 0
1503702827732,6, 2, 3, 2, 3, 1, -8, -3
1503702827754,-4, -6, -6, -5, -3, -3, 0, -2
1503702827769,5, 5, -1, -1, -2, -1, 1, -1
1503702827792,-7, -5, 7, 6, 3, 0, -4, -8
1503702827816,-4, -2, -3, -5, -2, -2, 1, 2
1503702827829,-1, 2, -1, -3, -3, -2, -3, -1
1503702827852,-4, -2, -2, -1, -3, -2, -1, -5
1503702827874,2, 4, 6, 3, 3, 3, 1, 2
1503702827890,0, -3, -1, -2, -1, 0, 0, -2
1503702827914,-6, -5, -4, -3, -2, -3, -4, -4
1503702827934,-3, -7, 1, 3, 2, 0, 4, 6
1503702827950,-1, -1, -1, -3, -2, 0, 0, 0
1503702827972,5, 1, -4, -1, -3, -1, 0, 2
1503702827994,3, 3, 3, -2, 0, 1, 1, 1
1503702828010,-1, -1, 6, 8, 4, -2, -5, -1
1503702828026,1, 3, -4, -5, -1, -2, -3, 2
1503702828040,-8, -8, -3, 0, -1, 1, 0, -5
1503702828062,-3, -3, -1, -3, 1, 0, 2, 1
1503702828085,6, 1, -4, -3, -3, -5, -1, 3
1503702828100,0, 10, 13, 8, 7, 2, -3, -1
1503702828122,0, -2, -9, -10, -7, -4, 0, -2
1503702828145,-3, -5, -9, -6, -7, -1, 2, 4
1503702828161,-4, -8, -5, -2, -3, 1, 0, -2
1503702828182,-7, -6, -4, -2, -2, -2, -9, -14
1503702828204,5, 3, -9, -12, -10, -1, 7, 10
1503702828221,-5, 2, 0, -2, -1, -1, -2, -1
1503702828242,0, -1, 2, 6, 3, 0, -5, -8
1503702828265,5, 16, 22, 19, 14, 3, -2, 0
1503702828281,3, 5, 0, 1, 1, 1, 1, 0
1503702828302,0, -5, 3, 0, 0, -1, 0, 3
1503702828328,-1, -3, -6, -5, -3, -1, -2, -8
1503702828348,-13, -17, -7, -8, -5, -1, 1, 7
1503702828356,-10, -3, 4, 1, -3, 0, 1, -7
1503702828363,1, -4, 0, -1, 0, 0, 1, 3
1503702828389,-4, -9, -2, 0, 0, 0, -2, -7
1503702828407,-3, 10, 4, 2, 1, 0, -1, 1
1503702828423,1, 2, 1, 0, 0, -1, -1, -3
1503702828445,-3, -5, -6, -4, -1, -2, -3, -2
1503702828467,0, -18, -8, -4, -2, -3, 4, 6
1503702828482,-2, -3, 3, 1, 0, 1, 0, -8
1503702828504,-1, -1, -2, -1, 0, -2, -1, 3
1503702828527,-2, -7, -6, -7, -7, -3, 1, 2
1503702828542,-2, 5, -3, -2, -3, -3, -5, -3
1503702828564,-1, 0, 0, 3, 1, 1, -2, -5
1503702828572,1, 7, 1, 0, -1, 0, 0, 0
1503702828594,-9, -2, 1, -1, -1, -1, -2, -8
1503702828616,5, 7, 5, 3, 2, 0, -3, -4
1503702828632,-2, 0, 3, 4, 3, 0, -1, -3
1503702828655,2, -1, 1, 4, 0, -2, -1, 2
1503702828676,1, 4, -2, 1, 0, 0, -4, -8
1503702828694,-5, -17, -2, -1, -2, 0, -1, 0
1503702828714,5, 0, 0, -1, 0, -1, 2, 6
1503702828723,0, -3, 0, 1, 1, 0, -2, -4
1503702828744,-2, 2, 0, -2, -1, 0, 2, 3
1503702828767,0, -2, -2, 2, -1, -1, -1, 0
1503702828782,-3, 1, 9, 4, 4, 1, 1, -1
1503702828804,1, -2, 0, -1, 0, -1, -5, -3
1503702828828,-5, -4, -2, -3, -2, 0, 1, -2
1503702828842,-1, -2, -3, 0, -2, -2, -2, -4
1503702828867,1, 3, -2, -3, -1, 0, 0, 0
1503702828895,-3, 5, 2, 0, 0, 0, -1, -4
1503702828917,3, 2, -1, -1, -2, 0, 0, -1
1503702828932,4, 5, 3, -3, -3, -1, 0, 0
1503702828954,1, 2, 3, 1, 1, 1, -1, -3
1503702828976,0, 5, 0, -4, -1, -3, -1, -2
1503702828998,-1, -3, 0, 1, 1, 0, 0, 3
1503702829014,-3, -7, -3, -1, -3, -1, -1, -1
1503702829036,-1, -2, -2, 0, -1, -2, -3, -5
1503702829052,-8, 2, 0, -2, -1, 0, 0, 0
1503702829074,0, 7, -1, -3, -3, -3, -3, -3
1503702829096,5, 4, 5, 6, 4, 2, 1, 2
1503702829119,4, -6, -1, -1, -1, -1, 3, 7
1503702829134,-3, -9, 0, -1, -1, -1, 1, 2
1503702829156,-1, -2, -6, -4, -2, 0, -4, -2
1503702829172,-6, 1, 1, 2, 1, -2, -1, -5
1503702829197,-2, -1, -4, -5, -3, -2, -3, -2
1503702829216,2, -7, -1, 1, 1, -1, 1, -2
1503702829232,-1, -9, -3, 0, -2, -1, -3, -2
1503702829254,-3, -5, -5, -2, -2, 0, -1, 0
1503702829276,2, 7, 2, 0, 0, 1, 0, -4
1503702829299,5, 9, -1, 1, -1, -1, 2, 1
1503702829314,-5, -1, -2, -2, -2, -1, -1, 3
1503702829336,-5, 3, -2, -1, -2, -2, -1, -3
1503702829361,3, -8, 4, 3, 1, 3, -1, -1
1503702829374,-1, -2, 0, -2, 0, -2, -1, -2
1503702829398,-4, -1, -1, -1, 0, 0, 0, -3
1503702829405,3, -1, -5, -3, -2, -1, 1, 3
1503702829419,5, -5, -3, -4, -1, -3, -1, -3
1503702829434,-2, 1, -2, 0, 0, -1, 0, 4
1503702829456,-1, 4, 2, 0, 2, -1, -1, -1
1503702829479,-13, -2, 2, 0, 1, 1, 0, -7
1503702829496,1, -2, -3, -3, -2, 1, -3, -1
1503702829516,2, 2, -1, -1, -1, -3, 0, 3
1503702829539,2, -2, -3, 0, 0, -1, -1, 1
1503702829554,-1, -5, 0, 0, 1, 1, -2, 0
1503702829576,0, 4, 4, 2, 0, 0, -3, -5
1503702829599,-5, -2, -4, -5, -4, -4, -3, -6
1503702829614,-1, 0, -2, -1, 0, -2, 0, 3
1503702829637,2, 0, -2, 0, 2, 1, 1, -2
1503702829659,2, -3, -5, -5, -5, -2, 0, 3
1503702829674,-6, -3, -3, -2, -3, -2, 0, -2
1503702829699,3, -2, -1, -1, -3, -1, 0, 0
1503702829719,0, 5, 2, -1, 0, 1, 0, 1
1503702829734,2, 4, 2, 2, 2, -1, -2, 1
1503702829756,0, -2, 0, -2, -2, -1, 1, 1
1503702829779,-5, -9, -4, 0, -1, -1, -2, -1
1503702829798,-4, -2, 0, 0, -1, -1, -3, -3
1503702829816,3, -2, -1, 0, -1, 0, 0, 0
1503702829839,1, 1, -2, -3, -2, -1, 1, 1
1503702829854,-1, 1, -2, -2, -1, 0, -2, -2
1503702829876,-3, -5, -3, -5, -1, -4, -3, -2
1503702829899,-1, -5, 1, 2, 0, -2, 0, -1
1503702829914,-5, 0, -1, 0, -1, -1, 0, -5
1503702829936,3, 2, -1, -2, 0, 1, 0, 0
1503702829959,2, 1, -2, 0, -1, -2, -1, 1
1503702829974,0, 0, 1, 2, -1, -1, -1, -2
1503702830002,0, -2, -3, -2, -1, -3, -2, -1
1503702830005,0, -1, 1, 2, 0, -1, 0, 0
1503702830027,-3, -2, -1, -1, -1, -1, -1, -3
1503702830049,4, 1, 2, 1, -1, 0, 1, 1
1503702830068,-1, -4, -3, -3, -3, -2, 1, 0
1503702830087,10, 5, 1, -2, 1, -1, -3, 1
1503702830109,-6, -3, -1, -1, 0, 0, -1, -2
1503702830124,1, 3, -4, -3, -4, -3, -3, 1
1503702830147,-6, 4, -1, -1, -1, -2, -2, -1
1503702830169,3, -2, -1, 0, 1, 2, -1, 1
1503702830185,-17, -5, 2, 1, 0, 0, 1, -1
1503702830208,-4, -4, -2, -2, 0, -1, 1, 0
1503702830229,3, 3, 0, 2, 1, 0, -2, 0
1503702830252,6, -1, 1, 2, 1, -2, -1, 1
1503702830274,-2, -5, -3, -3, -1, -1, -2, -3
1503702830289,-1, -2, -5, -3, -2, -1, -1, 2
1503702830312,-2, -1, 0, -2, -2, 0, -2, -5
1503702830327,10, 4, -5, -7, -5, -2, 0, -2
1503702830349,-7, -6, -1, 2, -1, 0, -1, -4
1503702830372,3, 1, 0, 0, -1, -1, -1, 2
1503702830387,-2, 0, -2, -1, -1, -2, 1, 0
1503702830409,0, -2, 1, 1, -1, -2, 0, -1
1503702830434,-2, -3, 0, 0, -2, -4, 0, -1
1503702830440,-5, 0, 1, -3, -2, -1, -1, -2
1503702830469,3, -1, -3, 0, -1, 2, 5, 0
1503702830478,-3, -1, 1, 2, 0, 1, 0, 3
1503702830503,0, -6, -3, -1, -1, -2, -2, 1
1503702830523,0, 8, -3, -3, 0, -1, -1, -1
1503702830538,-1, 6, 4, 2, 0, -1, 0, -2
1503702830560,0, 3, 1, -2, -1, -1, 0, -2
1503702830582,-3, -7, -2, -2, -1, -1, -1, -4
1503702830598,7, -3, -4, -4, -4, -3, -2, -4
1503702830620,1, 8, 7, 3, 1, 1, -2, 1
1503702830642,5, -5, 2, 2, -2, -4, -5, 6
1503702830657,-1, -6, -1, 1, 2, 0, -3, -3
1503702830680,5, 2, -7, -5, -2, 1, 0, 4
1503702830704,-8, -4, -1, 0, 0, -2, -1, 5
1503702830717,-2, -3, -5, -3, -2, -1, -1, -12
1503702830742,10, 3, -9, -5, -3, -2, -1, 0
1503702830762,-4, -3, 0, 0, 0, -1, -3, -2
1503702830778,-1, -3, 5, 3, 1, -1, -2, -5
1503702830800,-8, -7, -8, -5, -2, 1, 3, 1
1503702830822,-3, 0, 1, 1, -2, -4, -5, -9
1503702830838,-3, 1, 2, 1, -1, 0, 1, -1
1503702830861,-1, 1, 0, 0, -2, -2, -1, 7
1503702830882,-9, 1, -2, -1, 0, 3, 6, 13
1503702830897,-21, 1, 0, 0, 0, -3, 0, -2
1503702830920,24, -3, 5, 2, 1, 1, 0, 19
1503702830942,3, -8, -10, -5, -2, -1, 2, 8
1503702830949,11, 2, 2, 2, 1, 1, 3, 2
1503702830973,-28, -12, 3, 1, 2, 0, -6, -9
1503702830987,-1, -2, -3, -4, 0, 2, 3, 12
1503702831010,-1, 5, -2, -2, 1, -3, -2, -7
1503702831032,4, -3, 3, 0, -1, -1, 1, 7
1503702831047,7, 14, 3, 8, 2, 2, 0, 4
1503702831069,-11, 7, 3, 0, -2, -1, 0, 1
1503702831092,3, 1, -2, -1, -4, 1, 3, 5
1503702831107,3, 9, -6, -4, -2, 0, 0, -6
1503702831129,-24, -7, -2, -1, 0, 0, 0, -10
1503702831152,5, -3, -4, -2, 0, -2, 3, 12
1503702831176,5, -3, -2, -1, -3, 9, -5, -19
1503702831189,9, 3, 3, -3, 0, -9, 0, 7
1503702831213,4, -6, -1, 0, 0, -2, -5, 0
1503702831234,11, -5, -3, -1, 2, 1, 4, 0
1503702831249,-7, -6, -1, 1, 1, 1, 1, 6
1503702831275,-9, 0, -2, -3, 0, -4, 1, 3
1503702831294,11, 2, 1, -1, -1, -2, -2, 0
1503702831310,-3, -3, -3, -3, -4, -3, -6, -16
1503702831332,25, 5, 2, 1, -1, -1, 5, 18
1503702831354,10, 8, 0, -1, -1, -1, -3, -2
1503702831369,10, 0, -1, -1, -2, -1, 2, 6
1503702831384,-20, -7, 1, 1, 1, 1, 4, 0
1503702831400,14, -1, -1, 0, 1, -3, -6, 3
1503702831422,-7, -13, -2, 0, -2, -3, 3, -5
1503702831451,9, 5, -1, -1, -2, 1, 1, 7
1503702831460,-2, -2, -7, -5, 0, 1, 3, 8
1503702831482,-6, 6, 8, -3, -3, -2, -3, -1
1503702831489,25, 6, 0, 1, -1, -2, -3, 17
1503702831512,2, 5, 4, -2, 0, 2, 6, 47
1503702831534,4, -4, -7, -2, -1, 2, 3, -1
1503702831550,-24, -19, -9, -4, 0, -2, -8, -43
1503702831572,19, 13, 12, 6, 3, 0, 6, -4
1503702831594,-34, 15, 5, -1, 1, -2, -4, -26
1503702831610,20, 7, -2, -3, 1, 2, 6, 35
1503702831632,7, -1, -4, -5, -4, -3, -6, -1
1503702831654,-11, -2, 3, 3, 0, 1, 0, 3
1503702831669,1, -9, 2, 3, 1, 0, -5, -13
1503702831692,12, -11, -10, -6, -6, -4, -1, 16
1503702831715,-2, -14, -7, -4, -2, 1, 3, 1
1503702831729,-17, -6, 2, 0, -1, -3, 4, 2
1503702831753,9, 1, 0, 2, 1, -1, 1, -2
1503702831775,-4, 1, 0, 1, -1, -1, -4, -11
1503702831789,6, 0, 2, 1, 0, -2, -1, -4
1503702831812,-32, 12, 14, 1, 0, -1, -1, -6
1503702831834,10, -6, -2, -1, 1, 0, 3, 8
1503702831850,5, -7, -4, -1, 1, 1, 0, 1
1503702831872,-9, -5, 1, 3, 1, -2, -5, -12
1503702831895,-17, -5, -3, -1, -1, -1, -2, -3
1503702831914,-8, -2, -3, 0, -1, 0, -4, -9
1503702831932,11, 1, -6, -3, -3, 1, -3, 9
1503702831955,2, 10, 1, 1, -1, -1, -7, 1
1503702831969,5, -1, 0, -5, -2, -1, 4, 5
1503702831992,12, -1, -8, -1, 0, 1, 4, 13
1503702832015,0, -4, 0, 0, -3, 1, -1, -7
1503702832029,-3, -5, 1, 0, -2, -5, -2, -14
1503702832049,5, -1, -1, 0, 0, -1, -1, -1
1503702832060,-9, 4, 0, 1, 1, -1, -3, -3
1503702832084,-23, -10, 0, 0, -2, -2, -1, -11
1503702832105,9, -4, -4, -1, -2, 0, 1, 8
1503702832127,5, -1, 2, -3, -2, 2, 1, 5
1503702832142,2, 5, 2, 0, -3, -1, -4, -11
1503702832165,9, 2, -6, -3, -1, -1, -1, -1
1503702832187,4, 5, 5, 1, 1, -2, -3, 1
1503702832203,-7, 3, -3, -4, -4, -5, -7, -32
1503702832225,1, -9, 3, 4, 2, 1, 5, 10
1503702832249,-6, -7, 4, 3, 2, 3, 0, 3
1503702832262,2, 4, -2, -3, -2, -2, -1, -2
1503702832285,-9, -9, -2, 0, 0, 0, 0, -9
1503702832307,4, 2, 0, 0, 1, 1, -1, 5
1503702832323,1, 8, -2, -4, -3, -4, -2, 3
1503702832345,1, -3, 0, 0, -4, -3, -1, 1
1503702832367,-2, 4, 4, 0, 0, 1, -1, 4
1503702832383,-3, -1, -4, 0, 1, -2, -1, 3
1503702832405,1, -8, -2, -1, -1, -2, 0, -5
1503702832427,8, 4, -2, -1, 0, 0, 1, 7
1503702832443,-5, -6, -6, -5, -3, 0, 2, 3
1503702832465,4, 3, 0, 2, 0, 1, 0, 1
1503702832487,-6, 3, -1, -1, -2, -2, -4, -11
1503702832502,1, -8, -3, -3, -1, -1, -2, 1
1503702832525,-2, -1, 2, 2, 2, 0, -1, 1
1503702832554,5, 12, 2, -3, -1, 0, -1, -1
1503702832562,1, -3, -1, -1, -2, -2, 1, 2
1503702832586,1, -4, 0, 0, 1, -1, 3, 6
1503702832607,-4, 0, -2, -3, -1, -3, -3, -6
1503702832624,-3, 5, 4, 1, 1, 1, -3, -3
1503702832637,5, 1, -2, 0, 0, -1, -2, 3
1503702832654,1, -1, -4, -3, -2, -2, -2, 3
1503702832674,0, 7, 1, 3, 1, -1, -4, -7
1503702832697,-5, 4, 0, -1, -1, -2, -1, -1
1503702832712,-1, -3, -3, -2, -2, 0, 0, 0
1503702832735,-1, -3, 2, 1, -1, 0, -3, 1
1503702832757,-1, 1, 1, -3, -2, -2, 0, -5
1503702832772,5, 3, 1, -1, 0, -1, -2, 3
1503702832794,-2, -1, -4, -4, -2, 1, 0, -2
1503702832820,-4, -1, 4, 3, 0, -1, 0, 1
1503702832832,-2, -1, 0, -2, -1, 0, 1, 1
1503702832855,1, -6, -5, 0, -1, -2, 0, 1
1503702832877,-2, -3, -5, -6, -3, -1, -1, -1
1503702832892,-2, 2, 1, -1, 1, 1, -2, -6
1503702832915,0, -1, 0, 0, -1, 0, 1, -4
1503702832937,1, -3, 1, 1, 1, 0, -2, 2
1503702832953,0, 1, -1, 0, -1, -1, -3, -5
1503702832974,-4, -3, -4, -2, -4, -2, -1, -1
1503702832997,0, 4, 6, 5, 4, -1, -1, 3
1503702833020,-5, -6, -5, -3, -5, -1, 1, 0
1503702833034,1, 0, 0, -1, -1, -2, 0, -3
1503702833057,3, 0, -2, -3, -1, -1, -2, 3
1503702833079,1, 4, 4, 3, 1, 0, 0, 2
1503702833095,-2, -3, -4, -6, -4, -1, 0, -2
1503702833117,-1, -1, -3, 0, 1, 0, 0, 1
1503702833138,-1, 4, -5, -5, -3, -3, 1, -2
1503702833147,-2, 2, 2, 0, 0, -1, 2, -4
1503702833169,1, -5, -3, -1, -2, -1, -3, -6
1503702833187,1, 4, -2, -6, -4, -1, 0, 2
1503702833207,-4, -2, 3, 2, -2, -1, -2, -1
1503702833229,-4, -4, -2, -2, -1, -3, -1, 1
1503702833245,-5, -8, -6, -6, -2, 0, -3, -6
1503702833267,2, 5, 4, 5, 3, 0, -1, 1
1503702833290,-2, 2, -5, -4, -4, 0, 0, 0
1503702833305,-9, -5, 1, 4, 2, -3, -7, -10
1503702833327,-3, 1, -2, -2, -2, 0, 0, -3
1503702833352,-5, -3, -4, -2, -3, -1, 0, -5
1503702833367,1, -6, -2, -4, -2, 1, -2, -9
1503702833394,-6, -3, -4, -4, -2, -2, -2, -5
1503702833409,1, -2, -1, -1, 0, 0, 2, 11
1503702833425,5, 0, 1, 1, 1, 1, 4, 14
1503702833447,-2, 0, -2, 0, 1, -1, -3, -10
1503702833469,8, 2, 6, 5, 2, 0, -1, 10
1503702833486,-1, 4, -1, -1, -3, -2, -1, -1
1503702833507,4, -1, -3, -2, -2, -1, -9, -2
1503702833529,-4, 5, 10, 7, 4, 2, -2, -2
1503702833546,-3, -2, -4, -4, -2, -3, -1, -9
1503702833567,1, -2, -4, -4, -5, -2, 3, 2
1503702833590,-2, 0, 2, 3, 2, -2, -6, -8
1503702833606,-1, -4, 8, 8, 7, 6, 1, -1
1503702833628,-3, -10, -5, -6, -3, -1, 4, 1
1503702833649,-7, -10, -13, -13, -10, -1, 1, -3
1503702833665,-3, 1, -2, 0, -3, -2, 0, 1
1503702833687,2, 0, -5, -3, -3, -3, 0, 6
1503702833709,6, 10, 5, 2, 1, -2, 6, 5
1503702833726,-4, -7, 1, 4, 3, 0, 1, 0
1503702833747,1, 9, 3, 1, -1, -2, -6, -4
1503702833769,4, 2, 4, 0, 1, 4, 4, -1
1503702833785,-1, -1, 1, 1, 2, -1, -2, 1
1503702833807,-5, -3, -4, -3, -3, -1, 0, -7
1503702833830,-2, 4, -5, -3, -3, 0, 0, 14
1503702833845,-3, 7, -4, -2, -2, -1, 1, -2
1503702833867,0, -4, -3, -3, 1, 0, -2, -4
1503702833891,-3, -10, -1, -2, -2, -2, -6, -22
1503702833905,3, 0, -1, -1, -2, -1, -5, -11
1503702833927,2, -1, 7, 11, 7, 3, -1, 0
1503702833949,6, -2, -2, -3, 0, 1, 2, 15
1503702833972,-2, -8, 1, 3, 1, -1, -3, -3
1503702833987,-4, -1, 1, -1, -1, -1, 1, -4
1503702834010,-9, -6, -3, -3, -4, 0, -8, -1
1503702834032,2, 0, -3, -4, -3, -2, 2, 7
1503702834046,0, -3, -9, -6, -5, -5, 0, 0
1503702834069,4, 2, 3, 1, 1, 0, 0, -2
1503702834093,-1, 3, 0, 3, 3, 1, 0, -4
1503702834107,5, 1, -3, -3, -3, -2, 5, 7
1503702834130,-2, 0, 0, -1, -1, -1, -1, -3
1503702834152,-2, -4, 3, 2, -1, -2, -1, -2
1503702834168,1, 3, -3, -5, -5, -3, -3, -3
1503702834189,-1, 0, -2, 0, 1, 2, -1, -7
1503702834212,-2, 3, -1, -1, -3, -2, -1, 4
1503702834228,-2, 2, -1, -2, -3, -3, 0, 1
1503702834249,1, -1, 2, 3, 2, 0, 1, 4
1503702834272,-1, -1, 2, 2, 1, -2, -2, 1
1503702834287,-2, -15, -2, -2, -1, -1, 0, -1
1503702834309,2, 2, -3, -1, 0, 0, -1, -2
1503702834332,-1, -6, 0, 1, 0, 1, 1, -1
1503702834347,-3, 0, 0, -2, -2, -2, -3, -3
1503702834370,1, -3, -4, -3, -2, 0, 0, 1
1503702834392,1, 3, 0, 1, -3, -2, 0, 2
1503702834407,4, 3, 3, 1, 0, -2, 0, 9
1503702834429,3, 4, 2, 4, 4, 3, 0, -1
1503702834452,-12, -3, -3, -6, -5, -4, -1, -11
1503702834467,2, -2, -4, -2, -1, -2, 0, 2
1503702834489,-6, -6, -1, -2, -2, -3, -2, -3
1503702834512,-1, 1, -4, -3, 0, 1, 0, -2
1503702834527,0, 10, -1, -2, -3, 1, 0, -1
1503702834549,1, -2, -2, 1, 0, -1, -2, 0
1503702834572,-5, 0, 1, -2, 0, -1, -1, -8
1503702834587,-1, -5, -3, 0, -2, -2, 0, -4
1503702834609,5, -5, 2, 2, 1, 0, 1, 7
1503702834632,-6, -3, -1, 3, 2, 0, -2, -3
1503702834647,0, 3, 1, 1, -1, 0, 1, 3
1503702834669,2, -3, -3, -3, -1, -2, -2, -1
1503702834692,0, -1, 1, 2, -4, -1, -3, -6
1503702834707,-1, 0, -2, -2, 0, -2, -1, -2
1503702834732,2, 4, 2, 1, 1, -2, -2, 1
1503702834752,-1, 0, -5, -4, -3, -1, -2, -1
1503702834767,0, 0, -2, -3, -2, -1, -2, 1
1503702834789,-1, -2, -2, -1, 0, 0, -1, -1
1503702834812,1, 4, 0, -1, -1, -1, 1, 1
1503702834827,-4, -3, 0, -1, -1, 0, -3, -8
1503702834849,-1, -8, -2, -2, -1, -2, 2, -3
1503702834872,-3, -3, 1, -1, 0, -2, 0, 3
1503702834894,-3, 0, 0, 0, 0, 1, 0, -1
1503702834911,2, 1, -3, -1, 0, -1, -1, 1
1503702834933,1, 0, 1, 1, 1, -1, 0, -1
1503702834954,-2, -1, 1, 0, -1, 1, -1, 1
1503702834969,-3, -4, -1, -1, -1, 0, -3, -3
1503702834992,5, -1, -3, -3, -4, -2, 1, 6
1503702835014,-1, -1, -1, 0, -2, -1, 0, 2
1503702835029,1, 1, 0, -1, 0, 1, -3, 0
1503702835052,-6, -4, -2, 0, 0, -2, -4, -8
1503702835074,2, 2, 1, 2, 1, 1, 2, -1
1503702835089,2, -2, -1, 0, -1, 0, 0, 1
1503702835104,1, 2, 2, -2, -1, 0, 0, -2
1503702835118,-3, -2, -2, -1, 1, 0, 2, 3
1503702835141,1, 1, -1, 0, 0, -1, -1, -1
1503702835164,4, -2, -1, -1, -1, -1, -1, 1
1503702835179,-4, -2, -1, -1, -1, -1, 0, -4
1503702835201,0, -5, -1, 2, 1, 2, 1, 0
1503702835223,-8, -3, -3, 0, -2, -2, -2, -3
1503702835239,-2, -2, -2, -2, -2, -2, -3, -1
1503702835261,3, 1, -1, -3, -1, 0, -2, -3
1503702835283,1, -1, -2, -3, -1, -1, 0, 1
1503702835307,4, -1, -3, -2, -1, -1, -1, 2
1503702835329,-3, -2, 2, -1, -1, -2, -1, 1
1503702835345,-2, -2, -2, 1, 1, -1, -2, 0
1503702835369,0, 6, 2, 0, 0, -1, -3, -1
1503702835382,2, 3, -1, 0, -1, -1, 0, 0
1503702835405,-1, -4, 0, -1, -2, -1, 0, -1
1503702835427,-1, -4, -2, -1, -1, 1, 0, -2
1503702835449,-1, 3, 1, 0, 0, -2, -1, -1
1503702835465,-1, 3, 1, -2, 0, -1, -1, -1
1503702835487,-1, -3, -2, 1, 0, -1, 0, -1
1503702835503,-3, 0, -1, -1, -2, -2, 1, -2
1503702835525,-3, -6, 2, 1, -1, 0, -1, 0
1503702835532,1, 4, 0, 0, -2, -1, 0, 1
1503702835554,0, -2, -1, 1, -1, 0, 0, 0
1503702835571,-5, 4, -1, -2, 0, 0, 3, -4
1503702835591,2, -2, -2, -2, -1, -2, -3, -1
1503702835614,0, 5, 1, -1, -1, -2, -1, -1
1503702835629,2, 3, -1, -1, -1, -1, -1, -1
1503702835652,1, -2, 1, -1, 0, 0, 1, 2
1503702835674,-3, -3, 0, 0, -1, -2, -2, 0
1503702835689,-1, 7, 3, 2, 0, 0, 0, -3
1503702835712,-2, -2, 1, -1, -1, 1, -2, -1
1503702835734,-8, -1, 0, 0, -2, -2, 0, -5
1503702835749,2, -6, -4, -1, -1, -1, -2, 0
1503702835772,1, -2, 3, 0, 0, 0, 1, 2
1503702835794,-2, -7, -4, -2, -2, -1, -2, -3
1503702835817,2, 0, -1, 0, -1, 1, 0, -2
1503702835831,-2, 3, 1, 1, 0, -1, -1, -1
1503702835854,-2, -8, 0, -2, 0, -1, -1, 0
1503702835877,-5, -3, -2, -3, -1, -2, -1, -1
1503702835891,-1, -1, -4, -2, -1, -2, 0, -3
1503702835916,-3, -2, -3, 0, -1, -1, 0, -1
1503702835936,-3, -4, -3, 0, -1, 0, -2, -4
1503702835945,1, 2, -3, -2, -2, -1, 1, 0
1503702835967,1, 1, 0, 0, 0, -2, -1, 0
1503702835982,2, 3, -1, -2, 2, 1, -1, 0
1503702836008,-3, 3, -4, -4, -3, -1, -2, -1
1503702836027,-2, -8, 1, 1, 0, -1, -1, 1
1503702836043,-2, 2, 0, 3, 0, 1, 0, -2
1503702836064,-3, -3, -4, -3, -3, -1, -2, -3
1503702836087,1, -2, -1, 0, 0, -1, 1, 2
1503702836102,-1, -2, -3, -1, -1, -1, -1, 0
1503702836125,-1, 0, 1, 0, -2, -2, -3, 0
1503702836147,3, -1, 1, -2, -2, -2, 0, -1
1503702836162,1, 0, 0, -1, -2, -1, 0, -2
1503702836185,-1, -3, -3, -2, -3, -1, -2, -3
1503702836214,-4, 0, -1, 0, 0, 0, 0, 0
1503702836222,1, 0, -2, 0, -1, -2, 0, 1
1503702836250,-2, 4, 0, -2, -2, -2, 0, 0
1503702836267,-2, 2, -1, 1, -2, -3, 3, -1
1503702836282,-2, -2, -1, -1, -1, 1, -1, -1
1503702836305,1, -5, -3, -3, 0, 0, -3, 0
1503702836327,1, 5, -2, 0, -2, -1, -3, 0
1503702836345,2, -1, -2, -2, 0, 0, 1, 1
1503702836357,-1, -9, 2, 5, 2, 1, -7, 1
1503702836372,-3, 3, -2, -2, -1, -1, 0, -4
1503702836394,0, -1, -3, -1, -2, -3, 1, -2
1503702836417,2, 1, 1, -3, 0, -1, 0, 1
1503702836433,-1, 2, -2, -2, -2, -1, -9, -3
1503702836454,3, 0, -2, -2, -1, 1, 3, -3
1503702836477,-1, 2, 3, 1, -1, 1, 3, 2
1503702836492,1, 2, -1, -1, -2, -2, -1, -2
1503702836514,-4, -5, -3, -2, 0, -1, -3, -5
1503702836537,1, -4, -4, -1, -2, 0, 0, -1
1503702836552,-2, -4, -1, -1, 1, -1, 0, 1
1503702836574,-3, -1, -1, 0, -2, -2, 0, -3
1503702836583,1, 4, 3, 1, -1, -1, -2, -2
1503702836605,-1, 2, -1, -1, -2, -1, -4, 1
1503702836627,-1, 4, 3, -2, -1, -1, 0, -1
1503702836645,-2, -1, -1, -2, -1, -1, 1, -2
1503702836665,3, 1, -2, 1, -3, -1, 1, 1
1503702836687,2, -3, -2, -2, -1, 1, 2, 2
1503702836702,1, -2, -2, -2, -2, -2, -1, -1
1503702836725,-2, 3, 0, 0, 1, -1, -2, -1
1503702836748,1, -3, 2, 0, -1, -1, -2, 0
1503702836769,-1, -3, -1, 0, 0, -1, -5, -1
1503702836785,-2, -7, -4, 0, -2, -2, 0, -2
1503702836808,0, -1, 0, 0, 1, 3, 3, -1
1503702836836,-3, -2, -1, -1, 0, -1, 2, 0
1503702836847,-1, -2, -3, -1, 2, -2, -1, -1
1503702836867,-2, 1, 1, 0, 0, 0, -3, -2
1503702836889,0, -4, 0, -1, -2, -2, 5, -2
1503702836905,-3, -5, 1, -1, -3, -2, -2, -1
1503702836927,0, 3, -1, 0, -2, 0, -3, -1
1503702836949,-2, -3, -1, -3, 1, -1, -4, -4
1503702836957,2, -2, 1, 0, 0, -1, 0, 0
1503702836980,1, 7, 3, 0, 0, 0, 2, 1
1503702836994,-1, 1, 3, 2, -1, -1, 0, -2
1503702837017,4, 0, -2, -1, 1, -1, 3, 2
1503702837039,-1, -7, -5, -4, -3, -1, -4, -4
1503702837055,-17, -11, -5, -1, -3, 0, -5, -11
1503702837076,-10, -4, -3, -2, -4, -2, -4, -10
1503702837099,5, -3, 1, 0, 0, 2, 6, 4
1503702837115,1, 4, 5, 3, 3, 1, -1, 4
1503702837137,-11, -4, -3, -1, 1, -3, -2, -4
1503702837159,5, 3, 2, 0, -5, 1, -3, 0
1503702837174,8, 2, -1, 0, 6, 0, 3, 6
1503702837197,1, -6, -2, -1, -3, -2, 0, 3
1503702837219,5, 2, -1, 0, -3, -2, 2, 9
1503702837234,-3, -1, -4, -2, -1, 0, -7, -5
1503702837257,-1, -2, 1, -1, -5, -2, 1, -1
1503702837282,1, 7, 5, 1, -1, 0, -1, 1
1503702837294,1, 3, -4, -3, -2, -1, -2, -17
1503702837317,0, -1, 0, -3, -3, 1, -2, 0
1503702837339,-8, 4, 4, -1, -6, -1, -4, 0
1503702837351,-1, 0, -2, -1, 1, 2, -1, 4
1503702837369,5, -2, -1, 0, -1, 0, 0, 2
1503702837386,5, 7, 4, 0, -3, 0, 1, -6
1503702837407,0, -10, -4, -3, 1, -1, -2, 31
1503702837418,8, 3, -1, 0, 11, 1, -1, -2
1503702837437,-4, -1, -2, -2, 3, 0, -2, -1
1503702837459,-19, -6, -4, -3, -9, -5, -3, -7
1503702837474,2, 3, 1, 0, -5, -3, 0, 2
1503702837497,-1, -4, -2, -3, 1, -1, 2, 1
1503702837519,6, -2, 1, -1, -2, -2, 4, 0
1503702837534,-1, -5, 3, 2, 4, 1, -2, 1
1503702837557,1, -2, -3, 0, 0, 1, 3, 4
1503702837579,0, 2, 1, 0, -3, -4, -10, -16
1503702837594,-2, -3, -3, -2, -1, -1, -4, 2
1503702837618,8, 1, -2, -2, -1, -2, -5, 13
1503702837639,-5, -4, 0, 2, -1, 0, -8, -6
1503702837656,6, 2, 2, 3, 2, 1, 3, -7
1503702837677,9, 4, 0, 0, 0, 0, 1, -3
1503702837699,7, -4, -2, 1, 1, 2, 8, 3
1503702837721,-19, -5, 0, -1, -1, -3, 1, 11
1503702837736,-5, 6, -1, -1, -1, 0, -4, -8
1503702837759,26, -3, -2, 0, 1, 0, 4, 9
1503702837782,-11, -3, -5, 0, 1, -1, 0, 10
1503702837797,-20, -4, 1, -3, -3, 0, -1, -7
1503702837820,-1, -4, -5, -3, -5, -1, -4, -1
1503702837841,14, 6, 2, -1, 1, -3, -7, 4
1503702837864,-3, 7, 12, 3, 0, -1, -1, -5
1503702837888,-13, -1, -4, -3, -2, 0, 0, -8
1503702837901,16, 1, -2, 0, 0, 0, -1, -5
1503702837919,-4, 6, 5, 0, 1, -1, -4, -8
1503702837939,-7, -15, -8, -4, -4, 0, 5, -11
1503702837962,-2, -6, -4, -1, 1, -1, 2, 7
1503702837977,-4, -3, -4, -1, 0, 1, -4, -16
1503702837999,6, 3, 0, 1, -2, -2, -4, -4
1503702838022,6, -2, 0, 0, 1, -1, 0, 11
1503702838037,-2, -3, -1, -2, -1, -3, -2, 8
1503702838059,-2, -7, -1, 2, 5, 1, -2, -3
1503702838068,-2, 3, 0, 0, 2, 0, 0, 2
1503702838089,6, 0, 0, -1, -1, -1, -6, -10
1503702838111,-3, -5, -1, 1, -1, 3, 2, 6
1503702838127,0, 0, 0, 0, 1, -1, 2, 4
1503702838149,-7, 2, -1, 2, 4, 1, 4, -3
1503702838171,2, -2, -1, -2, -2, -1, 0, 4
1503702838188,-11, 1, -2, -1, -1, 0, 1, 2
1503702838209,0, 7, 4, 1, -1, -1, 0, 0
1503702838231,-2, 2, 1, -3, -2, -2, -7, -12
1503702838247,-4, -12, -5, -4, -4, -1, 2, 3
1503702838269,-1, -5, 2, 2, 1, 0, 2, 2
1503702838292,-9, -3, -2, 0, 1, -2, -1, 5
1503702838307,-2, 0, -4, -3, 0, -3, -3, -9
1503702838330,2, 6, 2, -3, -4, -2, -1, 2
1503702838351,4, -4, -5, -2, -1, -2, -5, -2
1503702838368,-4, -2, 0, 0, 0, 1, 3, -4
1503702838400,-1, -1, 0, 0, -1, -1, -1, -3
1503702838419,-2, -2, 1, 0, -2, -3, -1, 4
1503702838442,-7, -4, 0, 1, 1, 1, 3, 7
1503702838458,1, 1, -3, -2, -3, -1, -1, 0
1503702838480,0, -3, -2, -2, -3, -4, -4, -5
1503702838501,-5, -9, 1, 1, -1, 1, -1, -6
1503702838525,-6, 0, -2, -3, -1, 1, 3, -4
1503702838540,4, 1, -1, -2, -1, -3, -4, -1
1503702838562,1, 6, 1, 4, 3, 0, 0, 2
1503702838576,-14, -7, -4, -4, -4, -1, -4, -7
1503702838600,1, 0, 1, -1, -4, -1, -2, -1
1503702838621,3, -3, -1, 0, 1, -2, -1, 4
1503702838643,9, 5, 1, -4, -2, -1, 0, 2
1503702838659,-4, -4, -4, -4, -2, -2, -2, -3
1503702838682,-5, 4, 4, 1, -2, -3, -3, -16
1503702838703,9, -4, -1, -3, -1, 0, 2, 7
1503702838719,4, 0, 0, 3, 2, 2, -1, -3
1503702838741,-3, -1, -16, -16, -6, -3, -1, -9
1503702838749,9, 10, 14, 12, 4, 4, 1, 5
1503702838771,-5, 6, 35, 15, 4, 1, -4, -9
1503702838796,-5, -9, -17, -8, -3, -3, -2, 6
1503702838809,-2, -2, -5, -1, 2, 0, 4, 10
1503702838831,-6, -1, 6, 4, -1, 0, 1, -1
1503702838854,-17, -4, -12, -6, -8, -3, -4, -10
1503702838862,-6, -2, 0, -1, -1, 1, -1, -4
1503702838883,0, 3, 9, 8, 4, 1, 1, -1
1503702838899,0, -2, -4, -4, -4, 0, 0, -2
1503702838921,2, 7, 0, 1, 2, 0, 3, 8
1503702838943,-3, 6, 5, -7, -7, -5, -3, -5
1503702838961,-1, -6, -3, -6, -4, 0, 0, -2
1503702838981,4, 1, -2, -2, -2, 0, -5, -6
1503702839003,1, 0, 5, 3, 4, 3, 1, 5
1503702839019,-10, -2, 1, 0, -2, -3, -1, -5
1503702839041,0, -2, 1, 0, -3, 0, 1, 1
1503702839049,-5, -1, 1, -2, 0, 0, 0, -4
1503702839071,-8, -11, -7, -3, -1, 0, -11, -7
1503702839094,-3, 4, 9, 10, 4, 1, 1, 2
1503702839110,3, -3, -7, -2, -4, -1, 2, 1
1503702839131,0, 4, 6, 0, 2, 0, -3, -1
1503702839139,4, -10, -3, -9, -7, -3, 0, 7
1503702839163,1, -10, -4, -2, -1, -1, -3, 5
1503702839183,4, 8, 5, 8, 5, 1, -1, 0
1503702839199,-3, -6, -8, -6, -4, -1, 1, -2
1503702839221,-6, -7, -12, -12, -9, -6, -1, 0
1503702839243,-2, 2, -1, 2, 1, 0, 0, -11
1503702839259,1, 5, 2, 2, 3, 2, 4, 0
1503702839281,0, 6, 10, 11, 8, 1, -1, 1
1503702839305,2, 1, 1, 2, -1, 0, -2, 2
1503702839319,-6, -2, 1, -1, -1, -2, 1, 11
1503702839341,1, -2, -4, -1, -1, -1, -1, -5
1503702839364,4, 5, 4, 3, 3, 1, -7, -2
1503702839386,-1, -3, -2, -6, -5, 0, -2, 0
1503702839402,-2, -1, -2, 0, 0, -2, 3, 1
1503702839423,2, 4, 7, 7, 6, 2, -2, -2
1503702839446,2, -4, -7, -7, -6, -2, 0, 6
1503702839462,-3, -1, -1, -3, -3, -2, 0, -2
1503702839483,0, 4, -1, -2, -1, -1, 1, -9
1503702839499,-3, -2, -3, -5, -5, -2, 0, 1
1503702839514,1, 0, -3, -2, -1, -2, 1, 4
1503702839537,3, -2, -4, -2, -2, -2, 3, 9
1503702839552,-5, -6, -4, -3, -3, 1, -4, -5
1503702839574,-1, -1, 3, 1, 2, 0, -2, 1
1503702839598,2, 4, -1, -1, -1, -1, 2, -2
1503702839611,0, 2, 0, 1, -3, -2, -2, 0
1503702839634,-1, 0, 0, 1, 1, -1, 0, 0
1503702839657,0, -1, -1, -3, -2, -1, 0, 5
1503702839672,-2, -2, -1, 0, -1, -1, -2, -1
1503702839694,-3, -3, 1, -1, 0, -3, -3, -3
1503702839716,1, 0, -2, -1, -1, 1, 2, 7
1503702839733,0, -3, 2, 1, 0, -3, 0, -2
1503702839754,-2, -4, -1, -2, -4, -1, -3, -4
1503702839776,1, 4, -3, -1, 0, 2, 0, 0
1503702839791,-3, -4, -1, 1, 3, 1, 3, -4
1503702839814,-1, -2, 0, -1, 0, -1, -2, 2
1503702839837,0, -2, -3, -2, -3, -1, -5, -3
1503702839851,0, 0, -3, -1, -1, -1, 0, 2
1503702839874,2, 2, -1, -3, -3, -1, 1, 2
1503702839896,1, -1, 2, 3, 2, -1, -4, -3
1503702839912,-3, -2, -2, -2, -2, 1, 0, -1
1503702839935,0, -3, 0, 1, -2, -1, 2, 1
1503702839957,-1, 3, 0, -1, -1, -1, 0, -3
1503702839972,-7, -1, -2, -1, -2, -2, -3, -6
1503702839994,1, 0, 5, 3, 2, -2, -1, -1
1503702840017,-3, -11, -3, -5, -4, -4, -1, -2
1503702840032,1, -2, -1, -1, 1, 0, -1, 0
1503702840054,1, 0, 0, -1, 0, 1, 1, 0
1503702840077,0, -4, -5, -4, -2, 1, 1, 0
1503702840091,2, 5, -1, -1, -1, -1, -1, 1
1503702840114,0, 4, 0, 0, 1, 1, -1, -1
1503702840137,0, 1, -2, -2, 0, -2, 1, 0
1503702840151,-3, -3, -1, 2, 0, 0, -1, -3
1503702840174,-2, -5, 2, 2, 0, -1, -1, 2
1503702840196,0, -6, -1, 0, 0, -1, -3, -2
1503702840214,2, 6, -1, -2, 0, 0, 0, 3
1503702840236,1, 3, 2, -2, -2, -1, 0, 2
1503702840256,1, 3, 0, 0, -2, -1, -3, -4
1503702840271,-2, -1, -2, 0, -2, -1, 0, 0
1503702840294,-2, -2, -1, -2, 0, -3, -1, -4
1503702840316,0, -3, 0, 0, -1, -2, -7, -4
1503702840332,-3, -1, 0, 1, 3, 1, 1, -2
1503702840354,-3, -2, -6, -2, -3, 0, -1, -2
1503702840376,2, -4, -3, -1, -1, 1, 0, 1
1503702840391,0, -2, -2, -2, 0, -2, -4, -4
1503702840414,-1, -2, 0, -3, -1, -2, 0, 0
1503702840441,1, 2, -1, -1, -1, -1, 1, 2
1503702840452,1, 7, 1, 1, -1, -1, 0, 1
1503702840474,-1, 2, 2, 1, 2, 1, 2, 1
1503702840496,-1, -1, 1, 0, -1, 0, -2, -1
1503702840519,-2, -6, -1, 0, -1, 0, -2, -5
1503702840534,-1, 1, -1, -1, 0, -2, -3, 2
1503702840556,-1, -7, 0, -1, -2, 0, -7, -2
1503702840580,0, -2, -2, -1, -1, 1, 2, 2
1503702840594,0, 0, -2, -3, -1, 0, 1, -3
1503702840616,-1, -5, -1, 0, 1, 0, 0, 2
1503702840639,1, 2, -1, 0, -1, 0, 4, -1
1503702840654,3, 2, -1, 0, 0, 0, 2, 0
1503702840676,-6, -2, 0, -2, -3, -2, 0, -1
1503702840699,2, 4, 2, -1, -2, -2, -1, -2
1503702840714,-1, -4, 1, 0, -1, -2, -2, -2
1503702840736,0, 0, -3, -2, -2, -3, -1, -1
1503702840759,-4, -2, -2, 0, -2, -1, -4, -3
1503702840774,2, 0, -1, -2, 0, -1, -4, -5
1503702840796,-2, 2, 1, 2, -1, 0, 2, 2
1503702840819,-2, 0, -1, -1, 1, 0, 0, 0
1503702840834,0, 1, -2, -2, -2, -2, -3, -2
1503702840856,-1, -3, 1, 0, 2, 2, 1, 3
1503702840879,-5, 1, -1, -2, -1, -2, -4, -4
1503702840894,-2, -3, -4, 0, -1, -1, -1, 0
1503702840910,-1, 0, -3, -3, -2, -3, -9, -3
1503702840924,0, 2, -1, 0, -2, -1, 0, 0
1503702840947,-2, 1, 1, -1, 1, 2, 2, 1
1503702840969,-1, 1, 0, -1, 1, -1, 1, 1
1503702840984,0, -3, -1, 1, 1, -1, -5, 1
1503702841008,2, -1, -1, 1, -2, 1, 2, 1
1503702841015,3, -3, -2, -1, -2, -2, -4, -3
1503702841036,-1, -3, -1, -1, -1, 0, -2, -1
1503702841059,0, 1, -1, -1, 0, -2, 4, 3
1503702841075,-1, -3, -1, -1, 0, 1, 1, 0
1503702841096,-1, -1, 1, 0, -1, 0, 1, -1
1503702841119,3, -2, 0, -1, 0, -2, -3, 0
1503702841134,1, -2, -1, -1, -4, -2, -5, -1
1503702841157,-9, -7, -4, -2, 0, -1, -2, -6
1503702841179,2, 3, 1, 1, 0, 0, 0, 1
1503702841194,0, -1, -1, -1, -5, -7, -2, -2
1503702841218,-4, 1, -1, 3, 9, 2, 3, -2
1503702841239,-1, 0, 1, -1, -8, -2, 1, 3
1503702841254,-2, -4, -2, -2, 0, 0, -5, -2
1503702841277,-1, 4, 1, -2, -3, -1, 1, -1
1503702841299,-1, 1, -1, 0, 6, -2, 1, -6
1503702841314,-1, 1, -1, -2, -1, -1, 1, -5
1503702841336,-6, -10, 0, -3, -3, 1, -5, 1
1503702841359,2, 0, -2, -3, 0, 3, 0, 2
1503702841374,2, 2, 1, 3, 6, 1, -4, -5
1503702841396,3, 1, 2, 2, 2, 3, 3, 0
1503702841420,2, 2, -1, 0, -3, -4, 0, 2
1503702841442,0, -8, -1, 0, -5, 0, 0, 3
1503702841456,2, 3, -1, 1, 2, -1, 5, 6
1503702841479,-1, 0, 0, 0, 1, 0, 0, -2
1503702841501,2, -1, -4, -1, 2, -2, -2, -1
1503702841517,-8, -2, -1, 1, 8, 3, 0, -10
1503702841539,-2, 0, -2, -2, -6, -4, -8, -3
1503702841562,-2, 2, -1, -2, -5, -2, 1, 9
1503702841578,-3, -3, 2, -5, -4, -13, -8, -9
1503702841599,4, 4, -1, -3, -4, -5, 0, 1
1503702841622,1, -5, -7, -3, -3, 2, 0, 2
1503702841636,-6, -16, -3, 3, 11, 3, 1, -6
1503702841659,-3, 0, -3, -2, -5, 2, -2, -4
1503702841682,1, 4, -5, -5, -6, -4, -1, 1
1503702841698,4, 10, 2, 4, 2, 1, -4, 2
1503702841719,-1, 0, -3, -4, -7, 0, 4, 0
1503702841741,-3, -12, -1, 0, 5, 2, 2, 1
1503702841756,0, -2, -1, 1, 5, 2, 0, 1
1503702841772,1, -4, -5, -1, -1, -2, 1, 2
1503702841787,1, 3, -6, -1, -2, -2, -2, -2
1503702841809,-2, -8, -3, -5, -5, -3, -2, -5
1503702841832,0, -11, 5, 1, 0, 0, -10, -2
1503702841848,-3, -11, -11, -4, -2, -2, 3, 1
1503702841869,-6, 1, -3, -2, 0, -2, -2, -1
1503702841892,-3, -4, -2, -1, -1, -3, 0, -8
1503702841907,5, 7, -1, 0, -1, 0, 1, 3
1503702841929,-5, 0, 3, 0, 0, -1, 1, 1
1503702841952,7, 10, 0, 1, -2, -3, -3, -12
1503702841967,-6, -5, -2, 0, 0, -2, -1, 8
1503702841990,-8, -5, 0, -1, 4, -2, -1, -4
1503702842012,-8, 2, 4, 0, 0, 2, 1, -1
1503702842027,6, -2, -3, -3, -4, 0, 2, 4
1503702842050,2, -5, -8, -1, 2, -1, 0, 0
1503702842072,2, -1, -2, -3, -5, -4, -3, -4
1503702842089,-8, -7, -6, -3, -2, -3, -5, -1
1503702842109,2, 4, 6, 2, 2, 2, 1, 2
1503702842118,-14, -3, 11, 3, -3, -1, 3, -3
1503702842139,-4, -9, -3, -4, -2, -2, -5, 2
1503702842162,1, -4, -4, -5, 0, 0, 2, -3
1503702842176,2, -1, -6, -3, -4, -3, -1, -5
1503702842199,5, 3, -3, -1, -2, -1, -2, 1
1503702842222,-9, -3, -3, -3, -2, -4, -1, 2
1503702842236,1, -1, -2, -2, -1, 2, 4, -5
1503702842266,-2, 0, -4, -1, -2, -3, -1, 4
1503702842284,0, -10, 2, 3, -2, -1, -1, 1
1503702842296,9, 8, -5, 0, 1, 0, -2, 4
1503702842322,-2, 9, -1, -5, -2, 0, -2, -5
1503702842341,0, -1, -1, -1, 0, 0, 1, 2
1503702842364,1, -3, -4, -5, -3, -1, -2, -7
1503702842379,3, 7, 15, 6, 4, 0, -1, 2
1503702842401,-7, -4, -7, -5, -1, -2, -1, 8
1503702842425,5, -6, -3, -1, -3, -2, -3, -5
1503702842439,-1, -2, -4, -2, 1, 3, 6, -1
1503702842461,0, 7, 6, 0, 0, -2, -5, 2
1503702842486,-14, -7, -8, -2, -2, -2, -2, -19
1503702842499,-4, 5, 5, 0, -3, -2, -4, -27
1503702842522,2, -3, 0, 4, 5, 5, 9, 21
1503702842544,7, 2, -4, -1, 0, 0, 0, 7
1503702842559,10, -2, -4, 0, -2, 1, 0, 12
1503702842581,-7, 1, 0, -2, -3, 0, 1, -4
1503702842604,1, -4, 0, 1, 1, 1, -8, -6
1503702842619,-6, -6, 4, -2, -3, -2, 1, 7
1503702842641,-1, 5, 1, -2, 1, -4, -2, 2
1503702842664,-24, -3, -6, -4, -2, -2, -1, 32
1503702842679,26, -4, 2, 5, 4, 3, 1, 3
1503702842701,6, -1, -5, -1, 0, -1, -1, -18
1503702842724,-5, 3, 7, 1, 0, -2, -4, -13
1503702842739,5, -12, -2, 1, 1, 0, 0, 3
1503702842762,-33, -1, 1, -1, 0, 0, 0, -9
1503702842784,0, -2, -8, -5, -4, -3, -2, -1
1503702842799,14, 6, 6, 1, 0, 3, 8, 7
1503702842822,-5, -5, -5, -2, -2, -4, -5, -20
1503702842844,13, 15, 1, -1, 0, 1, 0, 2
1503702842859,10, 2, -5, -3, -4, -3, -1, -6
1503702842881,-1, -1, -1, 1, -4, -2, -3, -2
1503702842907,10, 5, 3, -1, 0, 1, 3, 4
1503702842922,-18, -4, -4, -4, -2, -2, 0, -6
1503702842941,5, -5, -2, 1, 1, -2, -4, -6
1503702842964,-4, -13, -3, -3, -2, -4, -6, 2
1503702842980,-4, -4, -8, -7, -6, -4, -5, -10
1503702843001,-5, -1, 1, -1, -2, -3, -6, -1
1503702843024,2, 7, 11, 2, 2, 0, 3, 4
1503702843039,-3, -6, -5, 1, 2, 2, 3, 7
1503702843061,0, 2, 2, 1, 1, -1, 0, -2
1503702843084,-2, -7, -1, 1, 0, -1, 3, 8
1503702843099,0, 6, 3, 3, 2, -1, -3, -2
1503702843124,3, -5, -5, -2, -3, 0, -1, 0
1503702843144,-5, -7, -2, -2, -2, 0, -1, -2
1503702843159,6, 5, -2, 3, 2, 1, 2, 5
1503702843181,-8, -3, -2, -2, -1, -1, 0, -11
1503702843204,9, 17, 11, 3, 1, 1, 1, 1
1503702843219,-5, -17, -3, -2, -3, -2, -1, 1
1503702843241,-2, -2, -3, 0, 0, -2, 0, 0
1503702843264,-4, -9, -9, -5, -4, -2, 0, 5
1503702843286,6, 1, 1, 2, 2, 1, 0, 0
1503702843295,0, 7, 2, -1, 1, -1, -5, 2
1503702843317,-1, 7, 3, 3, 1, 1, 4, 4
1503702843332,-13, -6, -6, -1, -1, -2, -1, -8
1503702843354,6, -4, 2, 1, 2, -1, 0, 5
1503702843362,-9, -9, -8, -4, -4, -5, -4, -6
1503702843384,3, 0, -1, 1, -1, 1, -1, -2
1503702843406,-1, -4, 3, -3, -3, -2, -1, 1
1503702843422,3, 0, 2, 1, 1, 0, -1, -2
1503702843444,-5, 6, 7, 4, 1, 1, 2, -5
1503702843467,-5, -5, -3, -4, -2, -3, -7, -4
1503702843482,1, 1, -2, 0, 2, -1, 0, 1
1503702843504,-11, -11, -8, -2, -1, 3, 2, -3
1503702843527,8, -2, -3, -2, 0, -2, 2, 4
1503702843541,0, 4, 0, -2, -1, -2, -4, 0
1503702843564,6, 0, -3, -5, -3, -1, -2, 6
1503702843586,-6, -3, 1, -3, -1, -1, 0, -5
1503702843601,-2, 7, -5, -2, -3, -3, -1, -1
1503702843624,0, 0, -1, 0, -1, 0, -1, -1
1503702843646,-1, -8, -7, -5, -3, -2, 0, -2
1503702843662,-1, 6, 7, 3, 3, -1, 1, -11
1503702843684,0, 2, 0, 0, 0, 1, 1, 1
1503702843706,-3, -10, -7, -3, -2, -1, -4, -3
1503702843721,-2, 0, 3, 5, 0, -1, -3, 0
1503702843744,3, -2, 1, 0, 0, -1, -1, 2
1503702843766,5, 1, -2, -4, -4, 0, 1, 6
1503702843781,1, 0, 0, 2, 1, -1, -5, -6
1503702843804,-2, 0, -3, -3, -2, -1, -2, -1
1503702843828,-1, 5, 5, 0, 0, 0, -1, 0
1503702843841,-9, -4, 1, 1, 1, -1, 2, -2
1503702843865,-6, -4, -6, -2, -2, -2, -1, -1
1503702843886,3, -1, 1, 0, -3, 0, -3, -1
1503702843901,0, -2, -1, -2, -3, -2, 0, 1
1503702843924,3, 9, 5, 1, -1, 0, 0, 2
1503702843946,-4, 9, 2, -1, 0, -1, 0, -4
1503702843963,6, 4, -6, 0, -1, -2, -1, 1
1503702843984,1, -4, -9, -5, -4, -2, -5, -14
1503702844006,3, 0, -1, -1, 1, -1, 2, 14
1503702844021,-3, -9, 0, -3, -1, -2, 1, -1
1503702844044,-2, -7, 1, 4, 5, 1, -3, -2
1503702844066,-2, -7, -1, 0, 0, 0, -1, -3
1503702844081,0, 11, 4, 1, -1, 1, 2, 0
1503702844105,-5, -5, 5, 7, 3, 1, -10, -10
1503702844126,4, 4, -1, 6, 3, 3, 3, 0
1503702844141,5, 10, 0, -3, -4, -1, 4, 12
1503702844164,-5, -5, -6, -4, -4, -2, -1, -2
1503702844187,0, -8, -1, -4, -1, -3, 0, 1
1503702844208,7, 15, 0, -3, -4, -1, 4, 11
1503702844224,-2, -1, -6, -9, -3, 0, 2, -5
1503702844254,-7, -7, 3, 6, 4, 2, -1, -4
1503702844269,-2, -6, -1, -3, -3, -1, -2, -6
1503702844284,-3, -6, -4, -2, -2, -1, 0, 2
1503702844307,-2, -5, -7, -5, -6, -4, -4, -3
1503702844328,-7, -13, -5, -3, -2, 0, 1, 2
1503702844344,-4, -1, -1, 0, 0, -1, -2, 4
1503702844367,3, 2, 1, 2, 1, 1, 0, -2
1503702844388,1, 4, 1, -1, 2, -2, -5, -2
1503702844404,-4, -2, -2, -2, -4, -3, -8, -16
1503702844426,-3, 3, 2, 2, 3, 1, 6, -19
1503702844448,-4, 0, 4, 2, -1, -2, 1, 1
1503702844467,4, 0, -3, 0, 0, 2, -1, 1
1503702844486,3, -3, -1, 2, 0, -2, 0, 5
1503702844508,3, 1, 5, 4, 3, 0, -10, 5
1503702844524,-5, -1, -2, -4, -5, -1, 0, 8
1503702844546,3, -3, 0, -2, -2, -3, 0, 1
1503702844568,1, 1, 2, -2, 0, 0, 4, -2
1503702844584,0, 0, 0, 1, 1, 1, 2, 5
1503702844607,-3, 3, 4, 3, 4, 0, -3, -9
1503702844628,2, -2, -5, -4, -3, -3, 2, 4
1503702844644,0, 0, -1, -2, -2, -2, 0, -2
1503702844669,0, 2, 3, 3, 0, -1, -3, 1
1503702844688,1, 1, -3, -5, -2, -1, -2, -8
1503702844704,-2, 0, 0, 2, 1, 1, 2, -3
1503702844726,-1, -2, 0, 0, 0, 1, -1, 2
1503702844748,-3, -11, -7, -4, -2, -1, -1, 0
1503702844764,0, 1, 0, 4, 1, -4, -3, -3
1503702844786,0, -4, 2, -2, -2, 1, 0, 4
1503702844808,-1, -3, 1, -1, -1, 1, -2, -2
1503702844823,0, 5, 3, 4, 1, 2, -2, -7
1503702844846,0, 12, 1, -1, 0, -2, 1, 1
1503702844868,-5, -9, -10, -5, -3, -4, -2, -3
1503702844877,-4, 1, 1, 2, 0, 1, 0, -4
1503702844884,-4, -9, -5, -4, -5, -2, -3, -3
1503702844906,2, 10, 1, -3, -2, -1, 0, 2
1503702844928,0, -7, 0, 0, 0, -2, -4, -1
1503702844944,-2, -7, -2, 0, -1, -2, -2, 0
1503702844966,3, 3, -2, -1, -1, 0, 2, 3
1503702844988,-4, 1, -1, -3, -1, -3, 0, -5
1503702845004,3, 0, -1, 0, -1, 1, 0, 5
1503702845026,3, 4, 5, 5, 2, 3, 0, 0
1503702845048,-1, -9, -2, -1, -1, -1, -1, -1
1503702845064,-3, -2, 0, -2, -1, -1, -5, -7
1503702845086,-4, 1, -3, -1, 1, -2, -1, -1
1503702845108,-6, 0, -5, -4, -4, -1, 4, -2
1503702845130,1, 1, -1, -1, -1, -1, 1, -1
1503702845140,-1, 0, -6, -3, -3, -2, -2, 5
1503702845161,3, 2, -1, -1, 1, 1, -1, -1
1503702845176,-2, -3, -2, -2, -2, -1, 0, -3
1503702845199,-1, -3, -3, -2, -1, 0, -2, -1
1503702845221,-5, -6, -3, -1, -1, -1, 0, -4
1503702845238,-3, 5, 0, 0, 1, 0, -1, -4
1503702845259,2, -1, -4, -2, -4, 0, -1, 4
1503702845281,1, 2, 0, -1, -1, -2, -2, -1
1503702845297,1, -4, -4, -1, 0, -1, 1, 3
1503702845319,-6, -4, -3, 0, 0, -1, 0, -4
1503702845341,3, 4, 2, -1, -1, 0, 0, 0
1503702845356,0, -2, -2, -1, -2, 0, -1, 0
1503702845386,-4, -4, -3, 1, 0, 0, -1, -2
1503702845408,2, 4, -1, 0, -1, 0, 0, 1
1503702845430,-1, -2, -4, -1, -1, -2, 1, -2
1503702845447,2, -1, -1, 0, 0, -5, 0, 0
1503702845468,-2, -6, 2, -2, -4, -2, -1, 1
1503702845490,-2, 6, -2, -5, -3, 2, -2, -1
1503702845506,-1, -2, -2, 1, 2, -1, -1, 0
1503702845544,2, -10, -4, -1, 0, 1, 0, 0
1503702845559,0, -2, -2, -2, -1, -2, -4, -1
1503702845582,-4, -1, -1, -1, 0, -3, -3, -4
1503702845596,0, 8, 4, 1, -2, 0, -3, 1
1503702845619,-7, -11, -3, -2, -2, -4, -7, -8
1503702845641,1, -3, -2, -1, -2, 0, 2, 4
1503702845656,3, -1, -2, -1, 1, 0, 3, 3
1503702845679,-2, 1, 3, 2, -2, -1, 0, -1
1503702845701,-4, -5, -5, -3, -1, -4, 0, -1
1503702845716,-4, 2, 4, 2, 1, 0, 2, 0
1503702845740,1, -2, -1, 0, 1, -3, 1, 1
1503702845761,2, -7, -1, 1, 1, 0, -4, -3
1503702845776,-1, 5, 2, -1, -2, -2, -2, -1
1503702845799,-2, -2, -5, -1, -2, 1, -2, -1
1503702845821,3, 0, -1, -4, -3, -1, 1, 2
1503702845836,4, 1, -1, 1, 0, 0, 1, 6
1503702845859,-4, -4, -2, -2, 0, -1, -1, -5
1503702845881,-1, 5, -1, -2, -2, 0, -1, -2
1503702845896,1, -1, -1, 0, -1, -3, -5, -1
1503702845919,-7, 3, 1, 0, -3, -1, 2, -5
1503702845943,3, 6, -2, -4, 0, -1, 1, -1
1503702845958,0, -2, -1, 0, -1, 0, 1, 0
1503702845979,-1, -9, 1, 3, 1, 1, 1, 1
1503702846001,-3, 0, -6, -3, -1, -3, -3, -3
1503702846016,0, -3, -2, -1, -2, -1, -1, 0
1503702846038,0, -3, -3, 0, -1, -1, -2, -2
1503702846061,-1, -2, 2, 2, -1, -2, -2, -1
1503702846084,-1, -2, -3, -4, -4, 1, 1, -2
1503702846099,0, 8, 12, 3, 2, 0, -1, -3
1503702846121,-6, -3, -6, -5, -2, 0, 1, 0
1503702846145,1, -3, -2, 0, 1, 0, 1, 4
1503702846161,1, 1, 0, 0, -1, 0, -1, 0
1503702846184,-3, -4, -2, -2, -3, -1, -2, -2
1503702846204,-6, -7, -3, -2, -1, 1, -1, -2
1503702846219,7, -3, 0, 1, -1, -2, -1, -1
1503702846245,0, 4, 0, -2, -2, -2, -2, -3
1503702846264,8, 4, -2, 2, 0, -1, 0, 1
1503702846279,-9, 0, 2, 0, 1, 2, -1, -4
1503702846301,-4, -3, -1, -2, 0, 0, 2, 2
1503702846323,1, 1, 4, 1, 1, 1, -1, 0
1503702846339,8, 4, -1, -1, -1, -2, -3, -2
1503702846361,-2, 3, -5, -6, -5, -4, -4, -6
1503702846383,3, -10, -2, 1, 2, 0, 0, 1
1503702846391,-15, -1, 10, 3, 1, -2, -2, -5
1503702846398,8, -19, -7, 0, 2, -2, 1, 3
1503702846421,-9, -5, -3, -5, -4, -3, -3, -1
1503702846447,-6, -4, 0, -1, -2, -2, -1, 0
1503702846459,-12, -6, 2, 1, 1, 1, 0, -2
1503702846481,10, 5, 1, 2, 1, 0, -1, -2
1503702846503,4, 7, 4, 3, 1, -1, -1, -1
1503702846520,5, 13, 5, 0, -1, -1, 0, 1
1503702846541,-4, -6, 0, 3, 1, 0, -1, 5
1503702846563,-2, -5, -2, -2, -2, 1, 1, 0
1503702846582,-7, 2, 6, 3, 3, 1, -1, -1
1503702846601,-2, -6, -9, -9, -3, -2, -2, -9
1503702846624,-7, -9, -8, -5, -2, -2, -1, 0
1503702846638,1, -3, -1, 0, 0, 0, 1, 8
1503702846661,6, 5, -2, 0, 0, 0, 1, 6
1503702846684,-1, 2, 6, 0, -1, 0, 0, -6
1503702846698,0, 2, -5, -4, -4, 0, -1, -3
1503702846715,-4, -4, -2, -1, 2, 2, -2, 2
1503702846736,7, 9, 4, 2, 0, 0, -1, 1
1503702846752,-13, 1, -2, 0, 0, 0, -7, -10
1503702846774,4, 13, 5, 1, -2, 0, 0, 8
1503702846796,-5, -9, -2, -1, -3, -1, 3, 2
1503702846812,-1, -5, -2, -1, -2, -2, 0, -3
1503702846834,-4, -2, -1, -2, 0, 1, -4, -5
1503702846863,3, -7, -3, 1, -1, -2, 1, 15
1503702846872,9, 0, -7, -3, -1, 0, 1, 4
1503702846894,-5, 1, 1, 0, 1, -1, -1, -17
1503702846917,-1, -2, 3, 1, 1, -1, 0, -3
1503702846932,-2, -2, -6, -4, -4, -2, 2, -1
1503702846954,-4, 0, -3, 0, -2, -2, -1, -8
1503702846976,-3, 12, 8, 2, 1, -1, -3, -9
1503702846992,1, -6, -2, -4, 1, 2, -1, 4
1503702847017,-3, 8, 3, -1, -2, -2, -1, 1
1503702847036,-4, -1, -1, -2, -1, 0, 3, 1
1503702847052,-4, -13, -5, 1, 1, -1, -2, 3
1503702847074,7, -6, -2, -2, 0, -1, -1, 1
1503702847096,1, 2, -5, -2, -3, 0, 0, 1
1503702847112,-1, 3, 6, 1, -1, 0, 2, 4
1503702847134,4, 5, -6, -3, -2, -1, 2, 0
1503702847156,1, -3, 2, -3, 0, -2, -1, 1
1503702847171,-6, -13, -4, -1, -3, 1, -1, 1
1503702847194,-10, 5, -2, 1, -1, -2, -5, -2
1503702847219,2, 0, 3, 1, -1, -1, 0, -1
1503702847231,-2, -5, -1, -2, 0, 0, -1, -7
1503702847254,9, 14, 3, 1, 0, 0, -3, 3
1503702847276,-13, -12, -5, -2, -3, -1, -1, -5
1503702847291,-5, 2, 4, 1, -1, 1, -1, 1
1503702847314,1, 5, -1, 0, 3, 2, 1, -1
1503702847336,0, -1, -6, -3, -3, -4, -3, 0
1503702847354,8, 2, -1, -3, -3, -2, -2, -10
1503702847374,3, -6, 0, 1, 3, 2, 4, 3
1503702847396,2, -6, 2, 0, -6, 2, 3, 3
1503702847412,5, 0, 2, 1, 1, -3, -2, 7
1503702847434,-12, -5, 3, 0, -2, -2, -1, -13
1503702847456,4, 2, -3, -4, 1, -1, -1, 3
1503702847471,-2, -4, -4, -2, 0, -1, -1, 9
1503702847495,-2, -2, -1, 1, 2, 0, -2, -2
1503702847516,3, 1, 3, 2, -1, 0, 1, 5
1503702847531,8, 1, 0, 1, 0, -2, -9, -7
1503702847556,9, 9, -2, 1, -2, 1, 2, 6
1503702847577,-14, -3, 4, 2, 1, -1, 1, -7
1503702847599,-5, 3, 6, 1, 1, -3, -2, 1
1503702847614,-12, -20, 0, 0, -1, -2, -4, -1
1503702847636,11, 1, -6, -4, -1, -1, 0, -7
1503702847651,-2, -4, 2, 0, -2, -1, 0, 7
1503702847666,-13, -8, -3, -2, 1, -1, -4, 2
1503702847681,0, -5, -7, -2, -2, -3, -3, 8
1503702847705,-11, -15, -1, -1, -1, 0, 0, -3
1503702847727,4, -3, -3, -1, 2, 1, 0, 0
1503702847741,-10, -2, -2, -4, -4, -3, -4, -3
1503702847763,1, 1, 3, 1, 2, 1, 1, 4
1503702847788,6, 9, 4, 1, 0, -2, -2, 2
1503702847801,-3, -1, -4, -3, -1, -1, -1, 4
1503702847824,2, -2, -3, -1, -1, 1, 2, 1
1503702847846,9, -1, 6, 3, 3, 1, 4, 5
1503702847859,-1, -2, -5, -2, -3, -1, -1, -6
1503702847876,1, -1, -4, -3, -2, 0, -4, 4
1503702847892,2, 1, -1, 0, 0, -3, 3, 3
1503702847915,1, -3, -2, 2, 1, -1, 1, -2
1503702847936,-3, 4, 1, -1, -2, -1, -2, -4
1503702847959,0, -3, 1, 2, -1, 0, -2, 3
1503702847974,-2, -1, -1, -1, 1, 0, -4, -5
1503702847996,0, -7, -6, -5, -5, -2, -1, -2
1503702848018,2, -1, 4, 0, 2, 1, 1, 2
1503702848034,0, 0, -3, -2, -2, -3, 0, 0
1503702848058,3, -1, -2, -2, -1, 0, -3, 1
1503702848078,-5, -5, -3, -4, -1, -1, -1, -3
1503702848086,-2, -1, -3, 0, -3, 0, -3, -4
1503702848109,-1, -3, 1, 2, 0, -1, 3, -3
1503702848133,0, 3, -3, -2, -3, -3, -2, 1
1503702848146,7, -2, -7, -2, 0, -1, 0, 3
1503702848169,0, 0, 6, 4, -2, 1, 2, 0
1503702848184,-10, -19, -3, -3, -1, -2, -1, -2
1503702848214,-2, -3, 5, 1, 1, 0, 1, 1
1503702848236,-10, -16, -8, -5, -5, -5, -1, 4
1503702848243,2, -4, -8, -5, -4, -2, -3, -3
1503702848261,12, 1, -4, -4, -2, 1, -1, 3
1503702848274,14, 0, -1, -2, -1, 0, 1, -8
1503702848297,-8, -3, -3, -2, -3, -3, -5, -3
1503702848326,-3, -3, -3, 1, 2, 1, 5, 4
1503702848334,-10, -1, -2, 0, 0, -1, 0, 1
1503702848357,-7, -3, -1, -4, -2, -1, -5, -10
1503702848379,-11, 1, 4, 2, 1, -2, 0, -1
1503702848394,1, 8, 5, 1, 0, 0, 1, 4
1503702848416,9, -3, -4, -2, -2, -1, 0, 2
1503702848439,-3, 3, 4, 0, -1, -1, -1, 4
1503702848454,5, 3, -7, 1, 0, 0, -2, -7
1503702848477,6, -2, -7, -4, -3, -2, -3, -2
1503702848499,4, 1, 2, 1, 0, 0, 0, -1
1503702848514,2, 0, -1, -1, -1, -1, -2, -3
1503702848537,0, -9, -2, -1, -2, -1, -1, 0
1503702848561,-14, 0, -3, 0, -1, -3, -3, -5
1503702848574,-1, -2, 1, 1, 1, 0, -2, 1
1503702848599,3, 5, 0, -1, -1, 1, -2, -1
1503702848619,3, -7, 0, -1, 0, -3, -8, 2
1503702848634,11, 0, 0, -1, 0, -1, 2, 2
1503702848657,-3, -4, -4, -1, -2, 0, 2, 1
1503702848679,3, 5, -3, -1, 1, 0, 0, 1
1503702848695,5, 0, 0, 4, 1, -2, -7, -2
1503702848717,3, 5, 8, 0, 1, -1, 4, 5
1503702848724,3, -8, -2, 0, -1, -2, -1, 3
1503702848746,11, -1, -8, -2, -3, -5, -1, -1
1503702848769,-9, -2, -1, 1, 1, 1, -2, -10
1503702848784,-2, 5, -3, -5, -3, 0, 3, 0
1503702848806,8, -7, 0, 0, 1, 0, 3, 4
1503702848830,1, -2, 4, 2, 0, 1, -2, -1
1503702848844,-22, -11, -4, -1, 1, -1, -3, -10
1503702848866,4, -3, -3, 0, -2, -2, -1, 2
1503702848889,-7, 3, 9, 4, 1, 1, -3, -3
1503702848911,-2, -1, -6, -4, -3, -1, -4, -3
1503702848926,1, 10, 3, -1, 0, 0, 1, 0
1503702848948,6, 2, 3, 2, 1, 2, 2, -3
1503702848956,-2, 2, -2, -2, 0, -1, -2, -4
1503702848978,1, 3, -1, -3, -2, -3, -1, 3
1503702848986,-3, -2, 1, -3, -3, -2, -4, -6
1503702849009,6, 7, 4, 2, -1, 1, 2, 8
1503702849033,-4, -5, -4, -2, -2, -1, -3, 1
1503702849046,-1, 4, -1, -1, 0, -1, -1, 3
1503702849069,9, 5, -3, -2, -1, -1, -1, -2
1503702849090,0, 4, 3, 2, 0, 1, 1, 0
1503702849106,-3, -15, -1, -3, -1, 0, 2, -1
1503702849129,-5, 14, 1, -1, -3, -2, -2, -3
1503702849150,3, -4, -5, -2, -2, -1, 1, 1
1503702849159,-11, 2, 0, 2, 1, 1, 0, -5
1503702849181,7, 2, -5, -3, -3, -3, -4, 0
1503702849199,5, 2, -3, -2, -2, 0, 0, 1
1503702849219,8, 4, 4, 2, 1, 0, 0, 0
1503702849241,-20, -3, 3, 0, 2, 0, -1, -1
1503702849257,8, 6, 1, 0, 0, 0, 1, 8
1503702849271,-12, -6, -4, -2, -1, -1, -1, -1
1503702849286,7, 2, 1, -3, -1, -1, 2, 3
1503702849309,-12, -6, -9, -4, -3, -3, -2, -6
1503702849335,0, 4, 0, 0, 0, -2, -3, -1
1503702849346,-2, -9, -5, -2, -3, -2, -2, -5
1503702849369,-1, -6, -1, -2, 1, 1, -1, 2
1503702849390,-15, -6, 2, -1, 0, -1, -1, -2
1503702849406,-2, 4, 3, 0, -1, 0, -1, 2
1503702849429,4, 1, -3, -1, -1, -1, 1, -4
1503702849450,1, 0, 2, 1, 0, -2, -2, -5
1503702849468,2, -10, -1, -1, -1, 0, 0, -2
1503702849488,6, 2, 2, 0, -2, -1, -2, 1
1503702849512,-3, 1, 1, -2, -1, 0, 5, 6
1503702849526,-4, 2, -3, 0, 2, 0, -4, -4
1503702849549,3, 1, -3, 1, 1, -1, 1, 1
1503702849571,-2, 1, -2, -3, -3, -1, -3, -5
1503702849586,2, 2, 4, 1, 1, 1, 1, 3
1503702849610,1, 5, 2, -1, -1, -1, 0, 1
1503702849630,-2, -4, -2, -1, 1, 1, -1, -1
1503702849653,9, 5, 3, 2, -1, -2, -2, 4
1503702849669,-2, 3, 2, -1, -1, -2, -1, -2
1503702849690,-9, -13, -4, -4, -1, -2, -4, -6
1503702849706,5, 1, -3, -3, -3, -1, 1, -5
1503702849729,-1, 7, 4, 3, -1, 2, 2, 4
1503702849750,-3, -4, -2, -2, 0, -1, -3, -1
1503702849766,-8, -7, -1, 0, -1, 0, -1, -7
1503702849788,1, 8, 5, 1, 1, 1, 1, 0
1503702849811,0, -4, -8, -2, -2, -4, -2, 1
1503702849833,-1, -4, -3, -4, -3, -2, 1, 0
1503702849848,-7, -6, -1, -1, 0, -1, -1, 0
1503702849870,0, -4, 0, 2, 2, 3, 2, -1
1503702849893,2, 10, 4, 3, 1, -1, -3, -4
1503702849911,-11, -5, -7, -5, -1, -2, -2, -8
1503702849930,-4, -11, -3, -1, -3, -3, -5, 3
1503702849953,-4, 5, 0, -2, -1, 1, 0, 1
1503702849970,5, -3, -5, 0, 0, -1, -3, -3
1503702849990,3, -2, 0, 0, -2, -1, -2, 1
1503702850013,6, -3, -4, -2, -4, -4, -3, -1
1503702850028,2, -3, -3, -6, -3, -2, 1, 1
1503702850050,1, -1, -2, 2, 2, -1, -2, 2
1503702850073,-6, 4, 3, -2, -1, 1, -2, -3
1503702850088,-3, -4, 2, 0, 2, 2, 0, 5
1503702850110,-2, -10, -5, 2, -1, 0, -1, -1
1503702850133,-2, 1, 0, 1, -1, 1, 0, -2
1503702850149,0, 1, 6, 3, 3, 1, 3, 9
1503702850173,-2, 4, 8, 1, -1, -1, 0, -2
1503702850193,-3, -4, -6, -3, -2, 1, -3, -5
1503702850209,-3, 1, -1, 1, 0, 0, -2, -3
1503702850230,-1, 6, 2, -3, -3, -1, 0, -3
1503702850253,2, -4, 3, 2, 2, 0, 1, 0
1503702850269,1, 2, -1, -1, -1, -1, 0, 0
1503702850290,-5, -8, -7, -2, -2, -2, -2, -8
1503702850313,7, 8, -1, -4, -2, -1, -6, 4
1503702850329,-1, 1, 0, -1, 1, -2, -1, 0
1503702850350,0, -1, -3, -2, -1, -4, -2, -4
1503702850374,-3, -1, -3, -4, -4, 0, 1, 0
1503702850389,1, -3, -4, -3, -1, -1, -1, -1
1503702850412,3, 8, 5, 5, 4, 1, 4, 2
1503702850433,-1, -3, -11, -10, -8, -4, 3, 1
1503702850449,1, -2, 0, 1, -2, 0, -1, -1
1503702850471,1, 2, 2, 0, 3, -1, -2, 4
1503702850493,-2, -1, -2, 0, -3, -4, -2, -2
1503702850509,-6, -9, -7, -3, -2, 0, 3, 1
1503702850531,-3, 3, 0, -1, -2, -1, 0, 1
1503702850553,-3, -3, 1, -2, 0, 2, -1, -3
1503702850569,-7, 1, -2, -4, -4, -5, -8, -5
1503702850590,7, -4, -3, 2, 1, 1, 2, 3
1503702850613,1, 6, 7, 3, 2, 0, -1, 0
1503702850629,-4, 2, 4, 3, 2, -3, -10, -7
1503702850651,-1, 1, 0, -4, -2, -1, 0, -2
1503702850675,0, -3, -6, -2, -2, -2, 1, 5
1503702850689,0, -5, -6, -3, -4, -3, -2, -2
1503702850711,0, -2, 0, 0, 2, 1, 2, -5
1503702850733,4, 1, 4, 7, 6, 2, -4, -3
1503702850755,3, -1, -2, -1, 0, 1, 0, 0
1503702850763,0, -2, -4, -2, 0, -1, -1, -3
1503702850786,4, -2, -5, -3, -3, 0, 3, 5
1503702850801,-5, -4, 3, 7, 3, -1, -2, -3
1503702850831,2, 10, 4, 3, 4, 0, -2, -6
1503702850847,-1, -5, -7, -6, -4, -2, 1, 6
1503702850861,1, 2, -2, -5, -3, -1, -2, -3
1503702850884,-1, -11, -6, -2, 0, 0, -2, 3
1503702850906,-1, -1, 0, -1, -1, -3, -5, -6
1503702850921,-5, -3, -6, -3, -3, -2, -2, -2
1503702850944,-9, 0, 1, 0, 0, 1, -1, -12
1503702850966,-4, -5, 0, -4, -1, -2, 2, 5
1503702850981,1, 3, 4, 3, 2, 1, 1, 0
1503702851003,5, -1, -2, -3, -1, 1, 1, 9
1503702851026,2, 0, 4, 1, -2, 0, -1, 1
1503702851041,-7, -5, -2, -4, -4, -3, -2, -7
1503702851063,-2, 4, 3, -1, 0, -2, -1, 2
1503702851087,8, 2, 2, 4, 5, 2, 1, 4
1503702851101,-1, -1, -3, 0, 0, 0, -6, 1
1503702851123,-2, -5, -3, -4, -3, -2, 1, 2
1503702851147,2, 3, -4, -3, -1, -1, 0, -3
1503702851161,-5, -9, -5, -1, -2, 1, 2, 2
1503702851184,-2, -6, -2, -2, 0, -1, 0, -3
1503702851206,0, 1, -1, 2, 0, -2, -1, 0
1503702851221,1, 0, -2, -1, 0, -2, 1, -2
1503702851247,1, 5, -2, 1, -2, -2, 0, 2
1503702851266,3, 3, 2, 1, -2, -1, -2, 1
1503702851284,3, 4, -1, -1, -1, -1, -2, 1
1503702851304,-4, -6, -2, -1, -1, 1, -3, -5
1503702851326,-3, 2, 2, -1, 0, -1, -1, -1
1503702851335,0, -2, -1, 2, 0, 2, 0, -3
1503702851357,2, -1, -3, -1, 0, -1, -3, 0
1503702851382,0, 6, 4, 0, 1, -1, 0, 1
1503702851394,-1, 1, -1, -2, -1, -1, -1, -1
1503702851417,-3, -4, -1, 0, 1, 0, 0, -1
1503702851439,1, 5, 2, 1, 1, -2, -2, -4
1503702851455,0, 2, 0, -1, -2, 0, 2, 0
1503702851476,-1, -7, -3, -1, -1, 0, 0, -1
1503702851499,5, 5, 2, -1, -1, 0, -1, 3
1503702851517,0, -3, 0, 0, -1, -1, -2, -1
1503702851537,-2, -4, -1, 0, -2, -1, 0, -1
1503702851559,-3, -7, -2, -1, -1, 1, -1, -3
1503702851574,-2, -2, -1, -3, 0, -1, -2, -1
1503702851596,-5, -10, -3, -1, -2, -2, -1, -2
1503702851620,1, -4, -3, 1, -2, 0, -1, -3
1503702851634,-3, 1, 0, -2, 0, -2, 0, -2
1503702851657,-2, 1, -1, -2, -2, -2, -1, -1
1503702851679,-1, 1, 0, -1, -1, 0, 0, 0
1503702851694,-3, -1, 0, 0, 0, -2, -2, 1
1503702851718,6, 1, -3, -1, -2, -1, -1, -2
1503702851739,2, -1, 0, 1, 1, 0, 0, 0
1503702851755,0, 0, 5, 7, 5, 2, -1, 1
1503702851776,6, 0, -4, -5, -4, -1, -1, -1
1503702851799,1, 8, 0, -1, -1, -2, 1, 2
1503702851814,-5, -6, -3, -1, 1, -1, 0, -1
1503702851836,9, 7, -3, -4, -4, -3, -1, 0
1503702851860,-5, -3, -3, -1, -1, 0, -1, -3
1503702851874,-16, -9, 1, 0, -1, -2, -2, -3
1503702851896,1, -1, 4, 3, 0, 1, 2, 0
1503702851920,6, 3, -2, -3, -1, 0, -1, -1
1503702851941,-9, -3, -4, -3, -4, -2, -4, -1
1503702851963,-2, -3, 3, 1, 2, 0, 1, -3
1503702851987,-5, -4, -2, -2, -1, -1, 2, 2
1503702851994,1, -1, -3, -3, -1, -1, -2, 1
1503702852009,4, 3, 2, 1, -1, 2, -3, 2
1503702852024,-1, 2, 6, 2, 1, 1, 1, 2
1503702852046,-1, 0, -2, -2, -1, -3, -3, -2
1503702852069,-7, -3, -4, -3, -1, 1, 2, 0
1503702852086,3, 3, -2, -1, -1, 0, 0, 2
1503702852106,-18, -3, -6, -5, -5, -3, 1, -2
1503702852129,3, 0, 2, -1, -1, -2, 1, 2
1503702852137,-3, -1, -1, 0, -2, -2, 1, -1
1503702852161,-6, -1, -2, -5, -2, -3, -3, -8
1503702852174,5, -2, 1, -1, -1, -1, 2, 1
1503702852197,2, 0, -5, -2, -3, 0, 6, 5
1503702852220,6, -3, -1, -3, 1, -2, -1, -2
1503702852234,-16, -8, 0, 1, 0, 0, -2, 2
1503702852257,-2, -8, -5, -5, -1, 0, -2, 0
1503702852280,-1, 2, 1, 1, -3, -2, -2, 2
1503702852295,-3, -5, -5, -3, -2, -2, -3, -2
1503702852317,-3, -2, 0, 0, -1, 0, -1, 1
1503702852339,5, 2, -1, -1, -1, -1, 0, -2
1503702852360,3, -2, 1, 1, 1, 0, -2, -2
1503702852377,1, 3, 0, 1, 1, -2, -9, -3
1503702852400,-2, 1, 1, -3, -1, -1, 3, 2
1503702852414,3, 1, -4, 0, 2, 2, -1, -1
1503702852436,-2, -7, -3, -3, -1, 0, 2, 0
1503702852459,-3, -2, 2, 3, 1, -2, 2, -1
1503702852474,-9, -2, -4, -4, -3, 0, 1, -1
1503702852496,3, -1, -2, -2, -4, -3, -1, -1
1503702852522,0, -8, 0, 2, -1, 0, 2, 4
1503702852534,4, 2, -1, -1, 0, -2, -1, -2
1503702852557,-2, 0, -1, -3, -2, 0, 1, 0
1503702852579,0, -2, 2, -1, -1, 0, -3, -8
1503702852594,0, 4, 0, -4, -2, -2, -2, -1
1503702852616,-4, 0, 1, 3, -1, -1, 0, 0
1503702852639,0, -2, -3, -1, -1, 0, -2, -3
1503702852661,-1, 6, 6, 1, 2, -2, -2, 1
1503702852676,6, -2, -3, -1, 0, -1, -1, -3
1503702852699,-3, 0, 0, 1, -1, 2, -1, -5
1503702852725,-4, -5, -7, -3, -2, -2, 0, -2
1503702852736,-3, 5, 6, 3, 1, 1, -1, -2
1503702852751,-4, -5, 0, -3, -1, -2, -2, -3
1503702852767,-2, -6, -1, 1, -1, 0, 0, -1
1503702852792,1, -5, -3, -2, -1, -1, -4, -1
1503702852797,0, 0, 0, 1, -1, -1, -2, 1
1503702852819,-11, -9, 0, -3, -2, -2, -3, -8
1503702852841,1, 3, 2, 1, 0, 0, -1, 2
1503702852859,2, 0, 1, 0, 0, -2, 2, 0
1503702852879,4, 7, 0, -2, -2, -1, 0, 0
1503702852901,0, -1, -3, -1, 1, -1, -1, 0
1503702852917,8, 4, -4, -1, 0, -1, 0, 1
1503702852939,-4, -4, -4, -1, -1, -1, 0, -1
1503702852961,-1, -1, 1, -1, -3, -2, -1, -2
1503702852976,-4, -5, 1, 0, 0, -1, -5, -3
1503702853000,0, -3, -4, -5, -2, -1, 0, 2
1503702853021,-4, 0, 1, 0, 1, -1, 0, 0
1503702853029,2, 1, 2, 0, -1, -1, 1, 2
1503702853051,6, 12, 1, 0, 0, -1, -1, 1
1503702853066,0, 0, 0, 1, 0, -1, -1, -2
1503702853088,-5, -4, -2, -1, 0, -1, -1, 1
1503702853111,-5, -3, 1, 2, 1, 0, -2, -1
1503702853127,-6, -10, 0, -1, 0, 0, 0, -1
1503702853149,-3, -4, -2, -2, -4, -1, -1, -2
1503702853171,-4, -3, -2, -3, 0, -1, -3, -4
1503702853186,2, 5, 0, 0, 1, -1, -3, 1
1503702853209,6, 7, 0, 1, -1, -1, 1, 2
1503702853231,3, -1, -1, -1, -1, 0, 1, -1
1503702853246,-13, -9, -2, -1, 0, -1, 0, 0
1503702853269,9, 7, 4, 1, -1, 0, -3, 6
1503702853292,-4, -5, 2, 1, -1, 0, 1, 2
1503702853299,3, -1, 0, 1, 0, -1, 1, 2
1503702853321,0, 1, 0, -2, -1, 0, 1, 0
1503702853344,1, -6, -2, -3, -1, -3, -2, -1
1503702853363,-3, 1, 1, 1, 0, 0, -3, -4
1503702853381,0, 0, -3, -2, -2, -3, -5, -2
1503702853397,-4, -13, -5, -3, -2, -1, 0, 0
1503702853419,-4, 5, 0, 1, 0, 0, 1, -1
1503702853441,1, 1, 0, -1, -1, 2, -1, 2
1503702853456,-6, -1, -2, -1, -2, 0, -1, 0
1503702853479,0, -3, -5, -3, -1, -2, -1, 1
1503702853502,3, 6, 2, 1, 0, -2, 0, 0
1503702853516,-7, -6, -2, -1, -3, 0, -3, -6
1503702853546,-1, -2, -1, -2, 0, -1, -1, 1
1503702853553,3, 3, 0, -2, -1, 0, -1, 0
1503702853568,1, -6, -2, 0, 0, 0, 1, 1
1503702853591,-6, 6, 1, -1, -1, 0, -1, -3
1503702853613,-2, -3, -1, -2, -3, -2, 1, -1
1503702853629,5, -2, 3, 2, 2, -1, -10, -7
1503702853651,0, -2, -4, -4, -1, -2, 1, -1
1503702853673,-2, -8, -4, -3, -1, -1, -1, 1
1503702853688,-1, 1, 4, 0, -1, 0, -1, -1
1503702853711,-2, -8, -3, -3, -2, 0, -1, -5
1503702853733,-8, -2, -5, -3, -1, -1, 1, 1
1503702853748,-8, -2, -2, -2, -3, -2, -1, -14
1503702853772,1, -6, 3, 0, -2, -1, 0, 7
1503702853793,-5, 0, 1, -1, -1, 0, 0, -3
1503702853808,0, 0, -4, -2, -1, -1, 1, 5
1503702853837,2, 3, -1, 2, -2, -1, 1, 0
1503702853840,2, -1, -2, -1, 0, -1, -4, -5
1503702853861,-1, 1, -3, 0, -1, -1, 1, 11
1503702853883,1, 7, 6, 2, -1, 2, 3, -2
1503702853892,-7, -4, 0, 1, -1, 0, 2, -2
1503702853913,7, 3, 2, 0, 1, 0, -3, -2
1503702853928,2, -1, -4, -2, -3, 0, -3, -3
1503702853951,-1, 3, 0, -1, 0, 0, -4, 0
1503702853974,-9, -1, 2, 4, 2, -1, -1, -3
1503702853988,-2, -10, -2, 0, 0, -1, -1, 1
1503702854011,4, -2, -3, -3, -1, -1, 1, 2
1503702854033,-29, -2, -3, -1, -2, -1, 1, -2
1503702854048,6, 0, 10, 4, 2, 0, 0, 0
1503702854071,0, 4, -2, -4, -1, -1, -3, -7
1503702854093,2, -1, -2, 1, -1, -2, -1, 8
1503702854101,5, -2, -4, -4, -2, 0, 0, -8
1503702854123,-6, -4, 1, 0, -2, -1, 1, 5
1503702854139,-4, 1, -3, -3, -3, -3, -3, 3
1503702854161,-5, 2, 0, -1, -2, -3, -3, -8
1503702854183,4, -3, 0, 0, 0, 0, 0, 10
1503702854200,3, -2, -3, -2, 2, 1, 0, -2
1503702854221,-3, 2, 3, 0, -2, -3, -7, -15
1503702854244,4, -3, -1, 2, 1, -1, -1, 1
1503702854259,-2, 5, 0, -3, -2, 2, 1, 1
1503702854281,-3, 2, -2, 1, -1, 0, 1, -1
1503702854304,-1, -9, -2, -2, -2, -2, 0, 2
1503702854319,-3, -1, 6, 0, -1, 1, -3, -7
1503702854341,-9, -7, -5, 0, -1, -1, 0, -1
1503702854348,-2, -1, -2, 0, -1, 0, 1, -2
1503702854371,-18, -3, -1, 0, -1, -1, -3, -5
1503702854393,2, -1, -1, 0, -1, -1, 1, -2
1503702854409,3, 0, 1, 0, -1, 0, -3, 0
1503702854431,-3, -4, -2, 0, -1, -2, -1, 0
1503702854454,-2, -2, -4, -2, 0, -2, -4, -6
1503702854469,6, 0, -1, -1, 1, 1, 1, 6
1503702854491,4, -1, 1, 1, -2, -2, -1, 0
1503702854521,6, 5, -4, -5, 1, 0, 1, -1
1503702854544,-4, -7, -5, -4, -2, -3, -2, -13
1503702854566,-2, -6, -2, -4, 0, -1, -1, 4
1503702854581,9, 11, 12, 5, -1, 2, 0, -3
1503702854604,-6, -3, -8, -1, 1, 0, 3, 11
1503702854626,8, 3, -4, -4, -4, -3, 2, -1
1503702854641,2, -1, -1, -1, -1, -1, -2, -1
1503702854663,9, 0, 8, 6, 1, 2, -1, -5
1503702854686,-8, 0, -1, 2, 2, -1, -2, 5
1503702854703,7, -2, -3, -2, -1, 2, 0, 0
1503702854723,-10, -6, -5, -4, -3, -3, -2, -2
1503702854747,-4, -2, 3, 1, -1, -2, -3, -4
1503702854761,-2, -4, -4, -8, -4, -3, -2, 1
1503702854784,2, -1, -4, -3, -4, -3, -1, 2
1503702854807,0, -10, 2, 1, 0, -1, 2, 3
1503702854821,-3, -6, -4, -1, 0, 1, 0, 2
1503702854844,-9, 8, 2, 1, 1, -1, -4, -8
1503702854866,4, 2, 1, 1, -1, 1, 0, -1
1503702854881,-5, -5, 7, 5, 2, 2, -1, 1
1503702854895,-6, -3, 5, 1, 1, -3, -14, -14
1503702854913,0, 4, 0, 1, 2, 0, 1, 8
1503702854933,-2, -5, -2, 0, -2, -5, -1, 5
1503702854955,1, -1, 0, -1, 0, 2, 2, 5
1503702854972,-6, 3, 4, 0, -1, -3, -2, 6
1503702854993,-17, -9, -7, -5, -5, 1, 3, -14
1503702855015,-1, 0, 1, 1, 0, 2, 0, -6
1503702855031,6, 3, 0, -1, -1, -3, -2, 5
1503702855053,4, 3, 1, -1, -4, 1, 3, 5
1503702855075,5, -3, 0, 0, -1, 0, 1, 1
1503702855091,4, 9, 3, 2, 0, -2, -1, -5
1503702855114,3, -4, -2, -1, 0, -3, -13, -16
1503702855135,8, -1, -5, -3, -3, 1, 2, -14
1503702855151,0, 1, 0, 0, 1, -1, 2, 5
1503702855173,-14, -12, -5, -3, -4, -4, -5, -10
1503702855195,-3, -1, 3, 2, 2, 0, 0, 1
1503702855211,-6, -4, -5, -5, 0, -2, 2, 1
1503702855233,-3, -4, -3, -2, -2, 0, -3, -1
1503702855255,-7, 0, 2, 2, 0, 0, 2, 6
1503702855271,-2, 1, 1, 0, 0, -2, -3, -3
1503702855293,-10, -5, -4, 0, 1, 2, -1, -5
1503702855316,15, 4, 2, 1, -1, 0, 3, 3
1503702855331,8, -1, -1, -3, 0, -1, -3, -3
1503702855353,-24, -4, -3, -2, -2, -1, 3, 9
1503702855376,10, 4, 0, 0, 1, 4, 3, 6
1503702855391,-1, -11, -5, -3, -4, -6, -4, 6
1503702855413,-19, -6, -3, -1, -1, -3, 0, -6
1503702855435,9, 7, 1, -2, 0, 1, -6, -9
1503702855458,24, 1, -2, 0, 0, -4, 2, 17
1503702855477,3, -1, -1, 0, -3, -2, -1, -3
1503702855495,0, -1, -1, -4, -5, -1, 0, -6
1503702855518,11, -3, -4, 1, 0, 3, 6, 4
1503702855533,-17, -7, 0, 0, -2, -3, -4, -8
1503702855550,-15, -10, -10, -4, -1, 1, 1, -7
1503702855563,-18, -3, 4, -1, -1, -4, -4, 2
1503702855587,-19, 14, 0, -1, -2, -2, -6, -30
1503702855611,11, -4, -14, -7, -3, -2, -4, 4
1503702855623,-29, -10, -4, -3, -2, -1, 0, -23
1503702855638,-12, -1, -2, -4, -1, -1, -2, -11
1503702855653,-30, -4, -2, -1, -2, -4, -5, -13
1503702855677,-17, -2, -2, -4, -2, -1, 2, -20
1503702855684,0, -6, 6, 1, 0, -3, -1, 13
1503702855706,3, 2, -6, -3, 0, 1, 5, 1
1503702855728,46, 16, -4, 0, -2, -2, 0, 3
1503702855744,2, 3, 2, -1, -2, -5, -2, -11
1503702855766,8, 2, 3, 2, 0, 2, 3, -15
1503702855788,1, -2, 7, 3, 3, 1, 0, 6
1503702855804,-27, -13, -5, -3, 0, -1, -5, -3
1503702855826,1, 1, 1, 1, -1, 2, 2, 6
1503702855849,7, 0, -4, -1, -2, 0, -2, -2
1503702855863,-4, -8, -7, -4, -3, -5, -5, -8
1503702855886,5, 5, 6, 2, 2, 0, -1, -1
1503702855908,-2, 2, -1, -4, -2, -2, -1, 4
1503702855923,3, -1, -2, -2, -2, -2, -1, -3
1503702855946,2, 4, 1, 1, 1, 4, 2, 6
1503702855968,-13, -6, 0, 0, -1, -3, -5, -3
1503702855983,10, 4, 0, -3, -2, 0, 0, 4
1503702856006,7, 1, 3, 4, 2, 0, 1, -6
1503702856028,-5, -7, -6, -2, -1, -1, 2, -4
1503702856043,1, -5, -1, 0, 0, -3, 2, 8
1503702856058,9, 0, 0, -2, 0, -3, 0, 7
1503702856073,-6, -5, -4, 1, 1, -1, -2, -1
1503702856095,3, -5, 1, 1, 0, 2, 3, 5
1503702856118,-9, 2, -5, -3, -2, -4, -1, -8
1503702856133,5, 1, 2, 2, 0, 2, 2, -3
1503702856155,10, -2, 4, 1, 0, 0, -2, 3
1503702856177,-16, -9, -3, -2, -2, -2, 0, -2
1503702856186,-3, -4, -1, -2, -2, -2, -3, -10
1503702856208,-20, -6, 1, -5, -3, -2, -5, -2
1503702856223,2, -8, -5, 0, -2, 1, 3, 4
1503702856247,-4, -2, -1, 1, 2, -2, -4, -9
1503702856269,-18, -1, -6, -3, -1, 0, -1, -7
1503702856283,0, -6, 2, 4, 0, -1, 1, 2
1503702856306,3, -17, -14, -6, -3, 0, -5, -6
1503702856329,-8, -1, 0, -1, 0, -1, 5, 9
1503702856351,6, 0, -1, -4, -1, -2, 1, 0
1503702856366,5, 4, -6, -4, -3, -1, -2, -3
1503702856390,1, -4, 2, 1, 0, 2, 0, -8
1503702856411,4, 6, 5, 1, -1, 0, -2, 15
1503702856426,1, 3, -5, -4, -3, -6, -7, -35
1503702856450,9, 8, 3, 2, 1, 2, 0, 5
1503702856471,-7, 6, -1, -4, -2, -3, -5, -16
1503702856482,-1, -9, -3, 0, -3, 1, 2, -2
1503702856487,-4, -9, 4, 2, -1, -2, -9, -41
1503702856508,5, 5, 7, 8, 5, 7, 7, 26
1503702856531,6, 0, -9, -5, -4, -2, -3, 20
1503702856546,-3, -2, -3, -2, -3, 1, 3, 9
1503702856576,6, 8, 8, 7, 3, -1, 4, 5
1503702856592,1, -5, -2, -3, -2, -3, -2, 3
1503702856606,6, -5, -3, 2, 3, -1, 2, 4
1503702856628,-17, -13, -18, -6, -7, -5, -5, -11
1503702856651,1, -4, 4, 1, -1, 1, 2, 9
1503702856666,16, 4, 4, -1, 0, 3, 2, 11
1503702856688,0, -3, 3, 1, 0, 0, 0, -7
1503702856711,-7, -1, 6, -1, 0, -1, -2, -1
1503702856726,10, 5, 0, 0, -1, 2, -1, 45
1503702856748,-12, -12, -5, -4, -4, -3, -6, -29
1503702856771,0, 13, -2, 0, -2, -3, 0, 4
1503702856786,-11, -2, -4, -3, 2, -1, -4, -13
1503702856809,-1, -1, -4, -5, -1, -1, 1, -3
1503702856831,-6, -3, -4, -4, -2, -1, 0, -11
1503702856846,-6, 4, 8, 7, 5, 3, 4, -2
1503702856868,-3, -8, -6, -4, -4, -3, -5, -5
1503702856891,4, 6, 3, 1, 0, 0, -1, -10
1503702856906,-1, -1, 5, 2, 0, 0, 2, 2
1503702856928,2, 0, 0, -4, -1, -2, -2, 10
1503702856952,0, -12, -9, -6, -2, -2, -3, 0
1503702856966,3, -4, -7, -1, -2, -1, 0, -1
1503702856988,-6, -2, 4, 4, 2, 1, -4, -6
1503702857011,3, 7, -3, -2, -3, 0, 3, 9
1503702857026,5, -4, -3, -2, -2, -1, 2, 15
1503702857048,-1, 9, 9, 2, 0, 1, 2, -2
1503702857070,3, 1, 4, 1, 1, 0, -3, -11
1503702857101,1, 0, 0, 1, -1, 1, 2, -1
1503702857123,9, 8, 9, 7, 8, 5, 2, 7
1503702857139,6, 2, -3, -3, -2, -2, -3, 3
1503702857162,-1, -1, 2, -1, 0, 0, 1, 1
1503702857183,-3, 1, -7, -4, -4, -4, -2, -4
1503702857199,-4, -6, -5, -2, -4, -2, 0, 1
1503702857221,-3, 0, -7, -3, -2, -2, 1, -2
1503702857244,3, 1, 1, -1, -2, -1, -4, 2
1503702857252,2, 4, -1, -1, -2, -2, -6, -11
1503702857266,-2, -3, -3, -3, -3, 0, 0, 10
1503702857289,-4, -6, 6, 2, 1, 1, 2, 5
1503702857311,5, -5, -2, -1, 0, -1, 0, 2
1503702857333,1, -2, -6, 1, 1, 0, 0, -3
1503702857348,-18, -2, 2, -3, -2, -2, -4, -10
1503702857370,0, 11, 7, 2, -2, -1, 2, 0
1503702857393,2, -8, -3, 1, 0, 0, 0, 3
1503702857408,-5, -10, -3, -2, -1, 0, 0, -1
1503702857431,-11, -16, 1, -2, -2, -2, -3, -11
1503702857455,6, 1, -2, 0, -1, -3, -2, -12
1503702857468,13, 11, 3, 4, 2, -1, -4, 9
1503702857491,-3, -4, -9, -6, -4, -2, 0, -6
1503702857513,-5, -1, 1, -2, -1, 0, -1, 3
1503702857528,5, -2, -3, -3, -1, -2, -1, 5
1503702857551,1, 7, -3, -2, 1, 1, 3, 2
1503702857573,4, -4, -5, 0, -1, 1, -1, 10
1503702857590,-9, -11, 2, 1, 0, -1, 0, -2
1503702857610,-1, 4, 3, -1, -2, -1, -1, -1
1503702857633,-12, -11, -7, -3, -2, -2, 0, 1
1503702857648,2, 9, 4, 0, -2, 2, 2, 1
1503702857671,7, -4, -3, -2, 2, 2, 3, 18
1503702857693,9, 22, 7, 5, 4, -3, -3, -4
1503702857708,-3, -2, -6, -4, -3, -1, -1, -8
1503702857732,-10, -9, 11, 5, 1, -1, -5, -9
1503702857753,-3, 1, -3, -3, -1, -3, -10, -17
1503702857768,-6, -3, -7, -6, -6, -1, 2, -7
1503702857793,-3, -18, -2, 0, 0, 2, 3, 19
1503702857813,8, 6, 6, 3, 3, 1, 0, 5
1503702857828,3, 3, -1, 2, 4, 7, 3, -5
1503702857851,6, -1, -4, -6, -6, -4, 2, 8
1503702857873,4, 8, 0, 1, -1, -1, 0, 2
1503702857888,-3, -4, -7, -5, -3, -3, 5, 11
1503702857912,1, -9, -9, -8, -5, -3, -1, 5
1503702857919,5, 4, -2, -5, -2, -5, 1, -1
1503702857942,2, 3, -4, -2, -3, 0, 3, 6
1503702857964,0, 3, 7, 6, 4, 1, -2, -7
1503702857979,-4, -5, -5, -4, 0, 4, 4, 7
1503702858002,5, 5, 4, 6, 2, 2, 1, 5
1503702858024,-2, -4, -5, -5, -4, -3, 0, 5
1503702858039,-7, -8, -4, -2, -2, 0, 1, -2
1503702858061,-2, 3, 5, 4, 7, 5, 6, 4
1503702858084,-4, -6, 7, 4, 0, -2, -2, -10
1503702858099,-3, 10, 5, -2, 0, -2, -8, -9
1503702858121,-4, -5, -8, -5, -3, 0, 0, -3
1503702858144,-1, -1, -4, 0, -2, -3, -8, -6
1503702858160,3, 4, -2, -2, -3, -2, 1, 14
1503702858181,3, -5, -8, -13, -8, -6, 2, 11
1503702858204,-2, 5, 7, 9, 6, 2, -4, -12
1503702858226,0, -1, -3, -3, -2, 1, 3, 1
1503702858241,10, 0, 4, 5, 1, -3, -5, 0
1503702858264,-1, -4, -2, -2, -3, -2, 1, -2
1503702858286,-3, 4, 5, 2, 4, -1, -1, 2
1503702858301,-1, -11, -10, -8, -7, -5, -5, -3
1503702858316,-1, -6, -3, -5, -2, 0, -5, -3
1503702858332,-3, -6, -4, -5, -3, -3, 1, -3
1503702858353,4, 4, -1, 1, 0, -1, 0, 2
1503702858376,-1, -7, -3, -2, -4, -2, -1, -2
1503702858391,1, -1, -3, -2, -1, -1, 1, 3
1503702858413,-3, -2, -3, -1, -1, -2, -1, 1
1503702858436,0, -1, -3, -4, -3, -1, -3, 4
1503702858450,-3, 0, 0, -4, -2, -2, 6, -3
1503702858473,1, 2, -4, -3, -2, -1, -1, -4
1503702858497,-1, -4, 9, 6, 6, 3, -1, 1
1503702858511,-7, -2, -3, 0, 1, -3, 0, 3
1503702858533,0, 4, 1, 1, -1, 1, 3, -4
1503702858543,-2, 2, -1, -3, -3, -2, 0, -1
1503702858565,0, 2, 1, 0, -3, 0, -1, 0
1503702858572,9, -3, 0, -1, -2, -2, -1, 3
1503702858593,-3, -3, 7, 2, 0, 1, -1, 1
1503702858616,3, 2, -5, -2, -2, -3, -2, 0
1503702858632,0, 5, 2, 1, 1, 0, 0, -1
1503702858653,2, 1, -3, -2, -2, -1, 2, 1
1503702858676,-5, -4, -3, -3, -2, 0, -1, -7
1503702858691,2, -4, -4, 1, -1, 0, 0, 15
1503702858713,-1, -1, 5, 3, 3, 1, -2, -5
1503702858736,0, 1, -2, 1, -1, 0, -2, -3
1503702858750,5, 2, 0, 2, 0, -1, -1, 2
1503702858766,-1, -5, -7, -5, -5, -1, -1, -2
1503702858781,-4, 2, 6, 2, 0, 2, -1, -2
1503702858806,3, 2, 2, -1, 0, -1, 3, 6
1503702858811,2, 1, 2, -3, -1, 0, -1, -2
1503702858833,3, 0, 2, 3, 1, 1, -2, -5
1503702858856,-4, -5, -2, -5, -3, -4, -1, -4
1503702858871,-1, 2, 3, -1, -2, 0, 0, 1
1503702858893,1, 2, 2, 2, 1, 0, -4, -6
1503702858901,1, -3, -4, 0, -2, 0, -1, -2
1503702858924,-3, -10, -1, 0, 2, 0, 1, 2
1503702858946,-9, -9, -1, 2, 1, 0, -5, -5
1503702858961,3, 4, 3, 0, 1, 1, -1, -2
1503702858984,-2, -4, 0, -1, -3, -3, 0, 1
1503702859006,-1, 4, 1, -2, -2, -1, -1, -3
1503702859021,0, -2, 0, 1, 0, 0, 1, 2
1503702859044,-4, -2, -4, -5, -3, -2, -2, -3
1503702859067,3, 1, -1, 1, -1, 0, -3, -1
1503702859089,1, 4, -1, -2, 0, 0, -1, 1
1503702859096,1, -7, 1, 1, 1, -1, -1, 0
1503702859111,-1, 6, 1, 1, 0, -1, -2, -2
1503702859134,-1, 3, 2, -1, 0, -2, -2, 0
1503702859156,3, 3, 0, 1, -2, -1, 0, 5
1503702859177,-2, -4, -3, -2, 0, -2, -3, -5
1503702859193,-1, 2, 2, 2, -1, 1, -2, 0
1503702859216,-1, -4, -5, -1, -3, -1, 0, -1
1503702859238,-3, -7, -2, -2, -2, 1, 0, 0
1503702859253,-2, 2, 7, 2, 2, 1, 0, 1
1503702859276,-1, -2, -4, -3, -2, -2, 0, -2
1503702859297,0, -2, -3, -3, -3, -2, -1, 1
1503702859313,-1, -2, 0, 1, 0, -1, -3, 0
1503702859336,3, -2, 2, -1, 0, -2, -1, -2
1503702859357,0, 0, -5, -2, -2, 0, -2, -1
1503702859366,-1, 1, 8, 6, 3, -3, -6, -5
1503702859388,0, 1, -3, -5, -3, -2, -2, -1
1503702859405,0, 0, -2, -1, -2, 0, -1, -1
1503702859426,-1, -1, -2, -1, -1, 0, -2, 0
1503702859448,0, -1, -1, 0, 1, -1, -1, 2
1503702859464,1, 3, 0, -4, -1, -2, -2, -3
1503702859486,-1, 0, -4, -3, -1, -1, 0, -1
1503702859508,-2, -2, -1, -2, -2, -2, -2, -5
1503702859524,-2, -1, 0, -1, 0, -1, -2, -3
1503702859546,-1, -1, -1, 1, 0, 0, 0, 1
1503702859568,0, -3, -5, -5, -3, -1, 2, 0
1503702859584,-3, -3, 0, 1, -2, 1, -1, -3
1503702859606,-1, 1, 3, 3, -1, -1, 2, 3
1503702859635,0, -2, 0, 2, 1, 1, -1, 0
1503702859644,2, 1, -1, -3, 0, 0, 2, 2
1503702859666,-4, -3, -1, -2, -1, 1, -1, 0
1503702859688,0, 8, 3, 1, 0, 0, 0, -1
1503702859711,-6, -4, -3, -3, -2, -3, -1, 0
1503702859725,0, 5, 0, 0, 0, -2, -3, 0
1503702859748,2, -3, -2, 0, -1, -1, 0, -1
1503702859764,1, 1, 2, 2, 0, 0, -1, -1
1503702859778,-2, -1, -5, -5, -2, 0, 3, 2
1503702859793,-4, -1, -2, 0, 1, 0, -3, -4
1503702859816,0, -4, -1, -1, -1, 0, -2, -1
1503702859840,-2, 1, -1, 0, 0, -2, -2, -2
1503702859853,1, -7, -2, 0, 0, 0, -1, -1
1503702859877,1, 5, 6, 4, 0, 2, 0, -1
1503702859897,2, -2, -3, -2, -3, -1, -2, 1
1503702859920,-3, 0, 3, 1, 0, -1, -5, -1
1503702859936,-2, 4, 0, 0, 2, 2, 1, -2
1503702859957,0, 2, -1, 2, 0, -2, 0, 0
1503702859973,-2, 5, 2, -2, -2, -4, -1, -3
1503702859996,2, 2, -2, -3, -1, -3, 1, 1
1503702860017,3, -1, -1, -1, 0, 1, 0, -1
1503702860026,2, 3, -3, -2, 1, -2, -1, 2
1503702860049,-1, -6, -1, -1, -1, 0, -3, -2
1503702860064,1, 1, -2, -1, 0, -1, 1, 0
1503702860086,-3, -3, 1, 2, 2, -1, 2, 1
1503702860110,-1, -7, -3, -1, -1, -1, -2, -2
1503702860131,0, 0, -2, -1, -1, 0, 1, -1
1503702860146,0, 0, 2, 2, 1, -1, -2, 2
1503702860169,-1, 7, 0, -1, -2, 0, 1, -2
1503702860191,-3, -3, 1, -1, -2, -1, 0, -3
1503702860206,2, -2, 2, -1, -1, 1, 0, -2
1503702860220,3, -9, -8, -2, -2, 0, 0, -1
1503702860236,-2, -1, -1, -2, -1, -1, -1, 0
1503702860257,0, 1, 1, 1, -1, 0, 0, -1
1503702860280,-1, -2, -1, -1, 0, 1, 0, 2
1503702860296,-5, -2, -2, 0, -1, 0, -2, -1
1503702860318,-3, -2, -1, -1, 0, 1, 1, -1
1503702860340,-1, -1, 1, 1, -1, -1, -1, -1
1503702860357,-4, -1, 1, -1, -2, -1, 3, -2
1503702860378,-1, -2, -5, -4, -3, -3, -3, -4
1503702860401,1, -3, 1, 0, 1, 1, -4, -1
1503702860416,-5, 14, -2, -5, -2, -4, -3, -3
1503702860438,-5, -5, -16, -2, -2, -2, -4, -5
1503702860460,-12, -22, -3, -2, 0, 0, -1, 0
1503702860468,0, -6, -2, -2, -1, 0, 0, -2
1503702860491,3, 3, 0, -3, -2, 0, -2, -1
1503702860506,-1, -4, -4, 1, 1, 0, 1, 0
1503702860528,-3, -4, 0, 0, 0, -2, 0, -1
1503702860551,-9, -1, -2, -3, -2, -1, -2, -3
1503702860568,2, -1, -1, 0, -2, -1, 9, 7
1503702860588,2, -1, 2, 2, 2, 2, 9, 14
1503702860611,0, -1, -4, -3, -4, 0, -3, 0
1503702860626,-3, -2, 1, 0, 0, 0, 2, -5
1503702860648,-6, -1, 0, -2, -3, -3, -3, -4
1503702860671,-13, -15, -18, -6, -3, -4, -7, -7
1503702860687,19, 11, 0, -1, 0, -1, -3, 3
1503702860708,-2, 0, 0, -2, 0, -2, -4, -6
1503702860731,-7, -1, 8, 5, 1, 1, -1, -2
1503702860747,0, 0, 5, 1, -1, 0, -3, -2
1503702860768,-4, -4, -1, -1, 1, 1, -2, 0
1503702860790,-11, 1, 0, -1, 0, -2, -1, -16
1503702860806,7, 0, -2, 1, -4, 2, 11, 14
1503702860828,-1, 2, -2, -7, 0, -8, -20, -12
1503702860857,1, -1, -1, -3, -1, -7, -1, 3
1503702860866,1, 0, 2, 0, 7, 3, 3, 8
1503702860888,1, 2, -5, -1, -8, 2, -2, 0
1503702860913,-3, 0, 22, 5, 0, 7, 3, 5
1503702860919,-4, -23, 2, 0, 4, 1, -1, 1
1503702860940,-3, 2, -4, -7, -7, -2, -4, -4
1503702860956,-6, -3, -3, -4, -2, -4, -4, -7
1503702860979,0, 6, 2, -1, -2, -2, -1, -2
1503702861000,-3, 3, 3, 1, 0, -3, 2, -9
1503702861022,2, 1, 0, -2, -14, -2, -2, -4
1503702861038,2, 3, 4, 4, 1, -1, -2, 8
1503702861060,-2, -4, -4, -4, 0, -5, -7, -4
1503702861082,-3, 8, -3, -3, 1, -3, -3, -8
1503702861098,-2, -7, -14, -5, -1, 1, 1, -3
1503702861120,-3, -4, 8, 4, 4, 1, -1, 1
1503702861142,-1, 0, -3, -3, -1, 0, -2, -1
1503702861158,2, 1, 7, 1, 0, -1, 1, 3
1503702861182,2, 3, 1, 0, -3, 3, -1, -4
1503702861202,3, -3, -2, -2, 4, 17, 8, 1
1503702861211,0, 4, 6, 2, -10, -16, -2, -11
1503702861234,4, 2, 4, 0, 9, 12, 2, 4
1503702861249,-1, 2, 1, 2, -2, -4, -4, 1
1503702861270,-1, -4, -6, -5, -1, 2, -2, 1
1503702861293,10, -1, 8, 7, 6, 3, 4, 11
1503702861308,-16, -13, -4, -3, -1, 0, 1, -3
1503702861330,0, 3, -5, -1, 1, 2, 0, 1
1503702861353,0, -1, 3, 0, -1, 0, -2, -1
1503702861368,4, 2, -3, -2, -2, -2, -2, 6
1503702861392,0, 3, 1, 0, -2, 0, -1, -3
1503702861413,3, 1, 0, -2, -2, 2, -2, 0
1503702861428,-6, 1, 9, 2, 2, 0, -1, 0
1503702861451,-2, -12, -12, -5, -4, -1, -3, -2
1503702861473,0, -1, 2, 2, 0, 0, -2, 0
1503702861489,-5, 2, 0, 0, -1, -2, -1, -5
1503702861511,-1, 7, 6, -1, 0, -2, -2, -2
1503702861539,2, 7, 2, 1, -2, -1, 2, 1
1503702861548,9, 4, -4, -2, 0, -2, 0, 2
1503702861563,-4, -5, -2, -1, -2, 0, -2, -1
1503702861578,1, 0, -1, 1, 1, 0, -2, -1
1503702861600,-1, 3, -1, -4, 0, 1, -1, -1
1503702861622,-2, -2, -3, -2, -2, -3, -3, -3
1503702861638,6, 10, 0, 2, 0, -1, 0, 2
1503702861661,-2, -2, 0, -1, -2, 0, 1, -1
1503702861682,-2, -5, -1, 0, -4, -1, -3, -1
1503702861698,-3, -2, 0, 0, -1, -1, 0, -2
1503702861720,-4, -4, -2, -3, 2, 1, 0, -1
1503702861742,-1, 3, 0, -2, -4, -2, -1, -1
1503702861766,2, -1, -1, 0, 2, 1, 0, -2
1503702861781,-1, 1, 1, 0, 0, -1, 0, 1
1503702861803,-4, 1, -1, 2, 0, -2, -3, -3
1503702861828,2, -1, -2, -2, -3, -3, -1, 2
1503702861841,0, 2, -3, 0, 0, 0, -1, -5
1503702861864,-3, -4, -1, -1, -2, -2, 2, 1
1503702861889,-5, -10, -5, -2, -3, 0, -3, -6
1503702861901,5, 6, -1, -1, 2, 2, 3, 4
1503702861924,-3, -1, -2, 0, 1, 1, 0, 0
1503702861946,2, 0, 2, 0, 1, 2, 1, 3
1503702861961,2, -2, -3, 0, -2, -1, 0, 0
1503702861984,-4, -4, -2, -3, -3, -1, 0, -1
1503702862006,1, -2, 2, 0, -2, -1, -1, 1
1503702862021,-1, -7, -1, 0, -1, -2, -3, -2
1503702862043,1, 2, 0, -1, -2, 0, -1, 0
1503702862066,-18, -7, -1, -1, 0, 0, -1, -6
1503702862081,1, 5, 0, -2, -1, -1, -2, -8
1503702862103,-6, 0, 3, 0, 0, 0, -4, 6
1503702862128,2, -6, -5, -4, -2, 0, -2, 2
1503702862141,4, 5, 6, 1, -1, 0, -2, -2
1503702862170,1, -3, -5, -4, -10, -3, -3, -1
1503702862188,1, -1, 2, 1, 3, 1, 0, -2
1503702862201,-2, 0, -1, 1, 2, -1, 0, -4
1503702862223,0, 10, 9, 2, -1, 0, -2, 0
1503702862231,1, 2, -1, 3, 4, 0, -2, 5
1503702862246,-8, 2, 0, 0, -2, -2, 0, -5
1503702862261,0, -2, -3, -1, 2, 1, -6, -6
1503702862283,7, 0, 3, 1, 3, -1, -2, 5
1503702862306,-3, -7, -6, -3, -8, -1, 2, -2
1503702862322,6, 1, -2, 1, -1, -2, 2, 2
1503702862343,6, 2, 1, 0, -1, -1, -5, -3
1503702862366,-4, 3, -2, 0, 3, 0, 4, 7
1503702862381,-6, -9, 8, 3, 3, -1, 1, -2
1503702862403,8, 14, -2, -2, 0, -1, 4, 11
1503702862426,-5, 9, 4, -2, -5, -4, -5, -7
1503702862441,11, 4, -6, -3, 1, 1, -1, -7
1503702862463,-7, -18, -6, -1, -1, -2, -7, -11
1503702862486,2, -5, -5, 0, 1, 2, 3, 8
1503702862501,12, 21, 8, 1, 0, 0, 1, 5
1503702862525,-6, -7, -2, 1, 1, 0, -2, -3
1503702862546,-8, -15, -6, -2, 3, 0, 1, 1
1503702862568,-3, -2, -1, 0, 3, 0, -4, -1
1503702862583,-5, 1, -6, -5, -5, -5, 0, -2
1503702862606,-1, 0, 4, -2, -4, 0, 5, -1
1503702862621,-4, -5, -1, 1, -1, -2, -3, 0
1503702862643,-4, 1, 2, 0, -4, 1, -1, -2
1503702862666,6, 2, -2, 0, -1, -1, 0, 3
1503702862688,1, 1, 0, 3, 1, -2, 2, 1
1503702862697,-3, -3, -1, 0, -4, -1, 2, 1
1503702862718,-4, 0, -3, -4, -5, 0, -5, -9
1503702862735,-6, -4, 3, 3, -6, 0, -6, -1
1503702862756,2, 1, 1, 1, -4, -2, 0, 1
1503702862768,-1, -8, -3, 1, 3, 1, -1, 4
1503702862786,2, -10, -10, -5, 0, -3, -3, 4
1503702862802,-3, -11, -5, 0, 0, -1, -9, -6
1503702862824,-24, -21, 6, 1, -2, -2, -5, -9
1503702862846,11, 8, 1, 0, -1, -1, 3, 7
1503702862869,-6, 17, 6, 0, 3, 3, 1, -3
1503702862884,11, -5, -7, 0, 6, -4, -9, -3
1503702862906,-4, 0, -2, -1, -3, 0, 3, -5
1503702862929,-2, -2, 0, -2, -3, -1, 3, -3
1503702862943,-5, -2, 0, -1, -3, -1, 2, 3
1503702862967,11, 8, 2, -1, -2, -3, 4, 7
1503702862988,-3, 6, 2, -2, -2, -2, 0, -1
1503702863003,2, 0, -2, 4, -2, 1, 1, 0
1503702863028,2, 8, 1, 0, 0, 2, -1, -2
1503702863048,1, 0, -1, 2, 0, 0, -1, 3
1503702863064,0, 4, -5, -6, -2, -3, -3, -7
1503702863086,-2, -10, -5, -2, 2, -1, 1, 1
1503702863108,-4, 1, -1, -4, -5, -3, -3, -6
1503702863123,0, -6, 2, -1, -4, 1, 4, -3
1503702863146,7, 7, 11, 3, 3, 0, -1, 3
1503702863168,3, -6, -7, -3, 0, 0, -1, 5
1503702863184,-2, 4, -6, -2, 0, 0, 0, 0
1503702863206,-6, -2, -1, 0, -4, -3, 0, -2
1503702863232,-1, -1, 8, 1, -1, -2, -2, 4
1503702863244,1, 6, -6, -3, 0, 0, -5, -4
1503702863266,-8, -4, -1, 1, 0, -1, -1, -4
1503702863274,-1, -3, -2, 1, 3, 3, 2, 3
1503702863297,1, 2, 1, 0, -1, -2, 2, 2
1503702863305,-6, -11, -3, 1, -2, -1, 3, 0
1503702863326,-7, -5, -2, 0, 0, -2, -4, -3
1503702863348,-1, 13, 5, -1, -2, -3, -4, -3
1503702863372,-1, 5, 1, 0, 0, 1, 1, 0
1503702863386,0, -2, -1, -4, -2, -2, -5, -5
1503702863408,-2, -8, 0, 0, -1, -1, 2, 3
1503702863423,7, 7, -1, 2, -1, 1, 3, 3
1503702863453,2, -1, -1, -1, 0, 1, -1, 1
1503702863469,-7, -9, -5, -2, -1, -3, -5, -5
1503702863483,-3, -3, -3, -2, 0, -1, 0, -3
1503702863506,-1, -4, -2, -1, 0, 0, 2, 5
1503702863528,-1, 4, 5, -3, -1, -2, -3, 1
1503702863543,0, 2, 13, 4, -1, -2, -2, -1
1503702863569,0, -8, -7, -5, -3, -1, 0, -2
1503702863588,2, 6, -2, -1, -1, -2, -2, -6
1503702863603,-16, -19, -2, 1, -1, 0, -7, -9
1503702863626,5, 2, -2, 0, 1, 1, 0, 7
1503702863648,-3, 5, -5, -1, -1, -1, 2, 0
1503702863664,1, -5, -3, -3, -3, -2, -2, -1
1503702863686,11, 4, -1, 0, 1, 2, 2, 7
1503702863708,-1, 4, -2, -1, -1, -3, -8, -4
1503702863724,-6, -8, -5, -2, 9, -3, -4, -5
1503702863746,-6, 5, 3, 0, -5, -3, 0, -8
1503702863769,-5, 3, 1, -2, -1, 0, -1, -6
1503702863784,-5, -2, -2, 0, -4, -1, 2, 2
1503702863806,4, -1, 0, -2, 1, 0, 5, 1
1503702863829,7, 1, -3, -3, -5, -1, -1, 2
1503702863850,-3, 3, 1, 2, 0, 0, -1, -3
1503702863869,-3, -2, -4, -3, 8, 0, 3, 2
1503702863880,12, 11, -1, -2, 0, -1, -3, 1
1503702863895,-1, 0, -1, -1, 0, 0, -6, -5
1503702863918,-3, 4, -1, 0, 1, -3, 2, 0
1503702863940,2, 0, 2, 0, 0, 1, 0, -1
1503702863955,-1, -3, -4, 0, -2, -1, 2, 5
1503702863978,-4, -6, -2, 1, 0, -1, 3, 0
1503702864002,-2, -3, -3, 0, 1, -1, -3, -3
1503702864015,-2, 0, 0, -2, -1, -4, -1, -4
1503702864038,4, -1, 1, -1, -2, -3, -5, -3
1503702864060,-2, -4, -2, -1, -1, 1, 6, -4
1503702864075,-8, 8, 5, -1, -4, -2, -3, -8
1503702864090,4, -1, 0, 1, 1, -1, 1, 1
1503702864106,0, 3, 1, -1, 0, -3, 1, 2
1503702864128,-1, 1, -4, -4, -3, -2, 1, 3
1503702864150,-4, -4, -2, -2, -2, -3, -3, -2
1503702864166,-6, -13, 0, 0, 1, 2, 1, -3
1503702864188,3, 12, 6, 0, 0, 1, 2, 2
1503702864211,-4, 0, -6, -3, -4, -3, -6, -1
1503702864226,-7, -6, -2, -2, 2, 2, 3, 9
1503702864248,3, 6, 2, -1, 0, -2, -4, -12
1503702864271,-1, -1, 1, -1, 0, -1, 0, 2
1503702864286,-1, -5, -4, -1, -1, 1, -1, -4
1503702864309,3, 3, 0, 1, -2, -1, -1, 2
1503702864330,-1, -1, -3, -2, -2, -2, 2, -4
1503702864346,3, 1, -1, -2, -1, -1, -3, -3
1503702864370,3, 2, 1, 1, -2, -1, -2, 6
1503702864390,-6, -3, 3, 2, 2, 1, -3, -2
1503702864406,8, -1, -4, -2, -1, -2, -2, 0
1503702864428,-8, 0, 2, 1, 0, -1, -2, -9
1503702864450,-2, -3, 0, -1, -4, 1, -1, -5
1503702864466,-1, -9, -8, -1, 1, -2, -4, 0
1503702864488,-4, -3, -3, -2, -2, -2, -1, -3
1503702864511,5, 1, -2, -2, 0, 2, 5, 2
1503702864526,3, 8, 5, 1, -1, 0, 1, 3
1503702864548,-1, -1, -3, 0, 0, -2, -4, 2
1503702864573,-7, -10, -3, -3, -2, -1, -1, -5
1503702864586,1, 4, 2, -2, -2, -1, 1, 7
1503702864609,5, -6, -4, -1, -1, -1, -3, 0
1503702864631,-1, 7, -1, -1, -1, 1, 2, 0
1503702864646,-7, -1, 0, -1, -2, -1, -7, -3
1503702864668,-3, 2, -3, -2, 0, 0, -4, -6
1503702864690,-3, 2, 0, 2, -1, 0, -2, -2
1503702864708,-1, 0, 1, 0, -1, -1, -1, -3
1503702864736,2, 1, 1, 0, 2, 0, 0, -3
1503702864750,-3, -5, -2, -2, 1, 0, 5, -2
1503702864774,1, -2, -2, -1, -1, -1, 2, 10
1503702864788,-1, -3, -3, 0, -2, -1, 0, -1
1503702864811,1, -8, -4, 0, -1, -1, 1, 3
1503702864833,-5, 5, 4, 0, 1, -1, -1, -10
1503702864842,3, 7, -1, 1, 1, 0, -1, -2
1503702864862,-4, -6, -3, -1, -2, -2, -2, -1
1503702864878,0, 3, 6, 2, 1, 1, 1, -3
1503702864900,4, -3, -1, -2, 1, 0, 2, 6
1503702864922,1, 0, -1, 0, 0, -3, 1, 3
1503702864931,1, 0, -3, -2, -1, -2, -2, 6
1503702864953,-4, -5, -2, 0, -2, -2, 1, 2
1503702864968,0, 4, 2, 0, 1, 2, -3, -4
1503702864991,-1, -3, -1, 2, 0, 0, -1, 0
1503702865013,-6, -4, -4, -1, -3, -3, -1, -2
1503702865035,3, -5, -1, -2, -1, -4, -3, -1
1503702865043,3, 2, -4, -2, -3, -2, -6, 1
1503702865058,-1, 5, 1, -1, 0, 0, 0, -5
1503702865082,-4, -2, 0, -1, 0, 0, 4, 1
1503702865102,-1, -1, -2, 0, 0, 0, -6, -10
1503702865118,0, 1, 1, 0, -1, -1, 2, 3
1503702865144,-5, -7, -1, 1, -1, -1, -1, -1
1503702865162,2, 1, 0, -1, -1, 2, 4, 6
1503702865178,-1, 2, -1, -1, -1, -1, 1, 2
1503702865200,0, -2, -2, -3, 0, -1, 3, 1
1503702865222,-6, 3, 1, 1, 0, -2, -2, -2
1503702865238,5, -1, 0, -2, -2, 0, 1, -4
1503702865260,2, 5, 2, 0, -1, -2, 1, 2
1503702865282,3, -1, 1, 1, -2, 0, -1, 4
1503702865298,-10, -6, -5, -3, -3, -3, -3, -5
1503702865320,6, -5, -5, -2, -1, -1, -3, 2
1503702865344,1, -1, 1, -1, 3, -2, -2, -6
1503702865358,-5, -8, -1, 1, -1, 0, -1, 4
1503702865382,-3, -7, 2, 1, 2, -1, -7, -12
1503702865402,2, 12, 5, 0, 0, 2, 3, 5
1503702865418,-2, 0, -1, -1, -2, -2, -2, -5
1503702865440,-3, -3, -5, -2, -1, -2, 5, 2
1503702865462,0, 0, -2, -2, -2, -1, 5, 7
1503702865480,3, -1, 3, 2, 2, 2, -3, 0
1503702865500,-8, -2, -3, -3, -2, -2, -3, -8
1503702865522,-2, -6, -2, 0, 1, 0, -1, 2
1503702865538,-1, 2, -1, -1, -2, -3, -1, 2
1503702865560,0, -1, 2, 0, 1, 0, 0, 8
1503702865584,2, -1, 0, -1, -2, 0, -1, -6
1503702865598,1, 0, -3, -2, -2, 0, 2, 0
1503702865621,-2, 2, 0, -1, 0, -2, -3, -5
1503702865642,1, -2, -1, 0, -1, -2, -8, -4
1503702865658,3, 4, 1, 1, -1, -2, -1, 5
1503702865681,-7, -2, -3, -1, -1, 0, 3, -2
1503702865702,-2, -1, -1, -3, -2, -2, 2, -1
1503702865725,6, -2, -1, -1, 0, 0, 3, 0
1503702865740,3, 3, 0, 0, 1, 1, 3, 10
1503702865766,-6, -2, -1, -1, -1, -2, -5, -5
1503702865771,-3, -2, -1, 0, 1, -1, 3, 2
1503702865786,-5, -2, -3, -3, -3, -1, -8, -9
1503702865800,0, 2, -1, 0, 1, 0, 3, 1
1503702865822,0, -3, 1, -1, -1, -1, -6, -5
1503702865844,-4, 0, -2, -1, -2, 1, 1, -1
1503702865860,-3, -2, -2, -3, -1, -1, -3, 6
1503702865883,-1, -6, 1, 0, 0, -1, -1, -8
1503702865905,4, -6, -5, -2, -2, 0, 0, 4
1503702865921,-1, 2, -2, 1, -1, -3, -5, -6
1503702865942,-3, 3, 1, 0, -1, 0, 5, 0
1503702865965,8, 1, -1, -1, -2, -1, 2, -2
1503702865984,0, -11, -4, -2, -2, -2, 1, -4
1503702866009,-8, -2, -1, -1, -1, -3, -5, -3
1503702866025,-1, -1, -1, -2, -2, -2, -5, -4
1503702866040,1, 2, 0, 2, 2, 2, 2, 2
1503702866062,-9, -5, -1, -2, -1, -1, -1, -2
1503702866085,2, 0, -4, -2, -1, 1, 4, 13
1503702866100,1, 5, 5, 4, 2, 4, 8, 7
1503702866118,0, 7, 3, 1, -1, -2, -6, -3
1503702866130,4, 2, 2, 1, 3, 1, 1, 2
1503702866153,4, 5, -1, -3, -1, -1, 1, 1
1503702866175,-4, -1, -1, 1, -2, -2, 1, -13
1503702866191,-1, -4, -4, -3, -1, -3, -1, 2
1503702866213,2, 1, 6, 2, 0, -1, 1, 5
1503702866235,1, -4, -5, -2, -3, -3, 1, 6
1503702866251,4, -1, 0, 0, 2, 0, -4, 17
1503702866273,2, -2, -1, 0, 0, 1, 0, 5
1503702866295,-7, -6, -4, -3, -4, -6, -3, -11
1503702866310,-1, -2, 2, -2, -1, -1, 0, 0
1503702866333,-2, -3, -5, -3, -4, -2, -9, 1
1503702866355,-1, 0, 1, -1, -1, 2, 4, 2
1503702866370,-2, 1, 1, 1, 0, 1, 1, -4
1503702866393,1, 1, -3, 0, 1, 0, 2, -3
1503702866415,-5, 2, 3, -1, 1, 0, 0, -5
1503702866430,3, 0, -6, -2, -2, -2, -4, -3
1503702866453,-8, -5, -2, 0, -1, 0, -1, -11
1503702866475,1, 3, 0, 1, 0, 0, 4, 6
1503702866490,-7, -6, -3, -1, -1, -3, -9, -9
1503702866513,2, 4, 0, 1, 0, -1, 4, -3
1503702866535,2, -3, -1, 0, -1, -3, -1, -1
1503702866552,4, 3, 0, 2, -1, 0, 3, 5
1503702866573,1, 1, -5, -5, -1, -3, 1, -1
1503702866595,-3, -8, -1, -1, -1, 0, -1, 0
1503702866621,4, -3, -2, -2, -4, -3, -2, 2
1503702866633,-1, 4, 3, -1, 1, 3, -1, -1
1503702866656,-1, 5, 4, 3, 0, 0, -7, 1
1503702866678,-4, -4, -2, -2, 0, 0, 1, 1
1503702866693,6, 10, -2, 0, 1, 2, 2, 4
1503702866715,-3, 15, 11, 1, -1, -1, -1, 0
1503702866738,-1, 3, 1, 1, 0, -3, -6, -6
1503702866755,-1, -10, -7, -3, -1, 0, 2, 1
1503702866775,-1, -7, -1, 0, -2, 0, 0, -1
1503702866798,-5, -7, -7, -4, -4, -1, -3, -7
1503702866813,6, -2, -1, 0, 0, -1, 0, -1
1503702866835,3, -11, -3, 0, 0, 0, 2, 4
1503702866859,2, 3, 0, -1, -1, -2, -2, -4
1503702866873,-6, -3, 0, 0, 0, -1, 1, -6
1503702866896,-1, -3, -4, -1, -1, -2, -3, -3
1503702866918,-2, -2, 8, 2, 4, 1, 2, 6
1503702866933,4, 0, -4, -2, 0, 0, -1, -1
1503702866956,-3, 1, -4, -3, -3, -1, -2, 10
1503702866978,-4, 0, 1, -2, -1, 0, 0, 4
1503702866993,8, 2, -6, -4, -3, -1, 0, 6
1503702867015,-3, 1, 2, 1, -1, -2, 1, -4
1503702867038,2, 1, 3, 3, 0, -1, 0, -2
1503702867053,-1, 2, -1, 3, 0, -3, -7, -8
1503702867075,-26, -10, -8, -5, -1, 0, -3, -7
1503702867098,6, 3, 3, 3, -1, -2, 1, 1
1503702867113,3, -5, 6, 1, 0, 0, 0, 2
1503702867135,-3, -11, -9, -5, -2, -2, -1, -7
1503702867158,-1, -6, -3, 0, -1, -3, -3, 0
1503702867166,-3, 4, -4, -3, -1, -2, -1, -7
