1503943620097,13, 2, -1, 0, 0, 3, -1, 2
1503943620112,-7, -1, 1, 0, -1, -1, 1, -1
1503943620134,-4, 1, 2, 1, -1, -1, 2, -3
1503943620157,-3, 0, -2, -2, -2, -2, 0, 0
1503943620172,-3, -2, -2, -1, -3, -1, -1, -4
1503943620194,-12, -3, 0, 0, 2, 1, -2, -2
1503943620216,0, 2, 1, 0, 0, -1, 0, 1
1503943620232,1, 7, 1, 0, 0, -4, 0, 1
1503943620254,9, 0, 0, -1, 1, 1, -1, 0
1503943620277,-6, -8, -1, -1, 0, -2, -1, -1
1503943620294,-1, -5, -1, 0, -3, 1, -2, -2
1503943620314,1, -5, -6, -2, -3, -2, -1, -2
1503943620336,-4, -2, -2, 1, 0, -2, -5, -2
1503943620345,-12, -9, -2, -3, -1, -2, -2, -1
1503943620368,-5, 0, -1, 0, -2, -1, 0, 0
1503943620389,2, -5, 0, -3, -3, 2, -1, 0
1503943620405,10, 0, -3, -2, -1, -3, -3, -2
1503943620428,-3, -4, 0, -1, 1, 1, -1, 1
1503943620450,3, 2, -1, 0, -2, -3, -1, -2
1503943620465,-1, -1, -1, 2, 1, 0, -2, 2
1503943620487,-5, -3, -2, -1, 1, 1, 0, -1
1503943620509,1, -1, 1, -3, -2, -2, -2, -1
1503943620524,1, 1, -1, -1, -2, -2, 0, 0
1503943620548,-6, 0, -1, 1, 0, -2, -1, 1
1503943620569,6, 0, 1, 1, -1, -1, -1, 0
1503943620584,-15, -3, 0, -2, 0, -2, -1, -1
1503943620607,-3, -7, -2, -2, -1, 1, 0, -1
1503943620629,-13, -4, -2, -1, -2, -1, 0, -3
1503943620644,-8, -2, -1, 0, -1, -2, -1, -2
1503943620669,7, 3, -1, -2, 2, 0, -1, 0
1503943620689,-9, -4, -4, -2, 0, -2, -1, 0
1503943620705,3, 7, 0, 0, -1, 1, -2, -1
1503943620730,2, -2, -1, -1, 0, -1, 0, -2
1503943620749,-1, -2, 1, 1, -2, 0, -1, 0
1503943620765,1, -3, -3, 1, -1, -2, -1, -2
1503943620795,1, 7, 5, -1, 1, -1, 1, 1
1503943620809,1, -2, -1, 0, -2, -1, -2, 2
1503943620824,3, -1, -1, 1, -1, -1, -1, -1
1503943620847,-13, -2, -1, -2, 0, 0, -1, 0
1503943620869,-3, -1, -2, 0, -2, 0, -1, -1
1503943620884,0, 0, 0, -1, -1, 0, -1, 1
1503943620901,5, 0, -1, -2, -2, 1, 0, 0
1503943620914,-5, 1, 2, -2, 0, 0, -1, 0
1503943620936,-7, -5, -1, -2, 0, 0, 0, -2
1503943620944,1, 1, 1, -1, 0, -1, -4, -1
1503943620967,-9, -3, -1, 1, -1, 1, 1, -4
1503943620989,-3, 1, 2, 0, -2, 0, -1, 1
1503943621004,4, -2, -1, -2, 0, -2, 1, -1
1503943621027,10, -1, -2, -3, 0, -2, 0, -3
1503943621049,-6, -3, -2, 0, 0, -1, -2, 0
1503943621068,4, 5, 0, 1, -1, 0, 0, 0
1503943621087,-2, -5, -1, -1, -1, -1, -1, 1
1503943621109,-3, 1, 0, 2, 1, 2, -2, -3
1503943621125,23, 6, -1, -2, -1, -1, -2, 0
1503943621147,-6, -3, -2, 0, -2, 0, 0, 0
1503943621170,-9, -5, -3, -2, -3, -1, 0, -3
1503943621185,-2, -1, -1, -1, -1, -3, -1, 1
1503943621207,3, -2, 0, -1, -1, -3, 0, 1
1503943621229,4, 0, -2, -1, -1, 0, -1, -2
1503943621237,9, 1, -3, -1, -3, -3, 0, -4
1503943621259,-5, 2, 0, -2, -1, -2, 1, 0
1503943621275,13, 9, 0, 0, -1, -3, -2, 0
1503943621289,-8, -4, -1, 0, 0, 0, -2, -5
1503943621305,-15, -3, -1, -1, 1, 0, 2, 1
1503943621327,-3, -1, 0, -3, -1, -1, -1, 1
1503943621349,5, 3, 0, -1, -2, -1, -1, -1
1503943621372,2, -4, 0, -2, 1, 0, -1, 0
1503943621387,-15, 0, 1, 0, 0, -1, -1, -1
1503943621410,2, -2, 0, 1, 0, -2, -3, 0
1503943621433,0, 0, 0, 0, -1, -1, 0, 0
1503943621440,-1, -3, -1, -1, 0, 0, 0, 0
1503943621461,-15, -1, -1, -1, -1, -1, -1, 0
1503943621476,9, -10, -4, -1, -1, -3, 1, 1
1503943621501,6, 1, -2, 0, 0, -1, -2, 0
1503943621521,6, 1, -1, -2, -2, -2, -4, -1
1503943621537,-2, 5, 3, 1, 1, 1, 2, -1
1503943621559,-5, 0, 0, 0, -1, -3, -2, -1
1503943621588,-4, -4, -3, -3, -1, 1, 1, -1
1503943621596,1, 6, 4, 2, 1, 0, 0, 1
1503943621619,-13, -8, -4, 0, 0, -1, 1, -1
1503943621641,0, 1, -2, -3, -1, 0, 0, -1
1503943621656,1, -3, -2, -5, -4, -2, -2, 1
1503943621679,15, 12, 1, 2, 1, 0, -2, -3
1503943621703,-8, -4, 0, -1, -3, 0, -1, -1
1503943621716,-4, 1, -1, -1, 1, -2, 0, 1
1503943621739,0, -9, -3, -1, -2, 0, 1, -3
1503943621761,5, 0, 0, 0, -1, 1, 0, 1
1503943621776,7, 3, -3, -1, -1, -3, -2, -4
1503943621799,-9, 0, 1, -1, -1, 0, -1, 0
1503943621821,0, 2, 1, -1, -1, -2, -2, -2
1503943621837,-4, -1, 0, 1, -1, -1, 2, -1
1503943621859,-6, -4, -3, -1, -1, 0, -1, 2
1503943621881,3, -1, -1, 0, -1, 2, -2, 0
1503943621896,0, 3, -1, -1, 0, -1, 0, 1
1503943621912,1, 0, 0, -1, -1, 0, -3, -4
1503943621927,-5, -3, -2, -1, 1, -1, -2, -1
1503943621949,-6, -2, 1, -1, -2, 0, -2, -2
1503943621975,9, 1, 0, 0, 0, -2, 0, 3
1503943621987,1, 2, 0, -2, -2, 1, 0, 0
1503943622009,4, 1, 1, -2, -1, -2, 0, -1
1503943622031,-2, -2, 1, 0, -1, 0, 0, 0
1503943622047,-5, -1, -3, 0, 1, -3, 0, 0
1503943622076,-1, 2, 2, 1, -3, -1, -1, -3
1503943622092,-11, -4, -3, -1, -2, -3, 1, 0
1503943622111,-2, -2, -1, -2, -1, -2, -1, 0
1503943622130,-2, -1, 0, -2, 0, -1, -2, -3
1503943622152,-1, -5, -2, -2, -1, 1, -2, -1
1503943622169,6, -1, 1, 1, 0, 1, -1, 2
1503943622189,4, 2, -2, -2, -1, 0, -1, -1
1503943622211,-5, -4, -1, -3, -1, 0, 1, -1
1503943622219,-5, 1, -2, -1, 0, -2, 0, -1
1503943622245,-12, -7, -1, -3, 1, 0, -1, -1
1503943622250,23, 11, 1, 0, 0, -1, -1, -2
1503943622276,-1, -3, -2, -2, -1, -1, 0, 1
1503943622295,-4, 2, 1, 2, 1, -2, 0, 1
1503943622313,12, 5, 0, -1, -1, 0, -2, 1
1503943622331,-15, -4, -1, 0, 1, 0, -2, -3
1503943622354,2, 0, -1, 0, -2, -2, 0, -2
1503943622369,-4, -2, -2, -2, -2, -1, -1, -2
1503943622391,4, 1, -1, 0, 0, -1, -1, -1
1503943622414,-2, -4, -2, -1, -2, 0, 0, 1
1503943622429,3, 0, 1, 0, 0, 0, -1, 1
1503943622452,-2, -6, -1, 0, 0, -1, -1, -3
1503943622478,0, 3, 1, 0, -3, -2, -1, -1
1503943622489,-1, -1, -4, -1, 0, 1, 0, -2
1503943622514,8, 3, 1, -1, 0, -2, -2, -2
1503943622534,-2, 1, 1, 0, 0, 2, 0, 1
1503943622551,8, 3, -3, -1, -1, -1, 0, 1
1503943622572,-7, -4, 1, 1, 3, 1, 0, -3
1503943622595,1, -2, 1, -3, -1, 0, -2, -1
1503943622611,1, -4, -3, -2, -3, -1, -2, -1
1503943622632,-6, -1, 2, 0, -2, -2, 0, 1
1503943622654,-1, -2, -1, -3, -1, -2, -2, 2
1503943622669,8, 5, -3, -1, 0, -2, -2, -2
1503943622692,-15, -5, 0, 0, 0, 0, 1, -3
1503943622715,-28, -8, -1, 2, -1, -1, -2, -2
1503943622722,-2, -6, -3, -3, -2, 0, -2, -2
1503943622745,-1, 2, 0, -2, -1, -1, -1, 1
1503943622759,-3, -4, 0, -2, -2, 1, 0, 1
1503943622782,0, -1, 0, -2, -2, 0, -2, -3
1503943622804,11, 4, -2, -1, 0, -1, -1, -4
1503943622819,6, 4, 1, 1, 0, 0, -2, -2
1503943622845,-11, -5, -2, -1, -2, -2, -2, 0
1503943622864,-6, -6, 0, -1, -2, 0, 1, -2
1503943622880,-1, 3, 0, 0, -2, -2, -1, 2
1503943622901,1, 0, -3, -1, 0, -2, -1, -4
1503943622911,-8, -4, 0, -2, 0, -1, 0, 4
1503943622932,-1, 2, 0, 0, -2, 0, 0, -2
1503943622954,4, -1, -3, 0, 0, -1, -1, -1
1503943622969,3, -2, 0, -2, -1, 0, -2, 0
1503943622992,15, 2, -1, -2, -2, 0, 0, 1
1503943623014,6, 7, 2, 2, -2, 0, 0, -4
1503943623029,2, 0, -1, -2, 1, -1, 0, 1
1503943623052,3, 3, 0, -1, 0, 0, 2, -1
1503943623074,-8, -5, -1, 0, -1, 0, -1, 0
1503943623089,8, -1, -2, -3, -1, -3, -1, -2
1503943623113,-2, 4, 1, -1, 0, -2, -2, -3
1503943623134,-7, -4, -3, -1, -1, 0, -2, -1
1503943623150,-9, -6, 1, 0, 0, -2, -1, -1
1503943623172,2, -2, 0, 1, 0, 0, 0, 0
1503943623194,-2, 5, -3, -3, -2, 2, 0, -2
1503943623203,0, -4, 0, 2, 0, -1, 1, 2
1503943623224,-2, 1, 0, -1, 0, 0, 0, -1
1503943623247,6, -1, -2, -1, -2, -1, 1, 1
1503943623261,-1, 0, 0, -1, -1, -1, 0, -3
1503943623284,-6, -3, 0, -2, 0, -1, -1, -1
1503943623306,-4, -2, -1, 0, -1, -1, 0, 2
1503943623322,8, 2, -4, -1, -4, -1, -1, -3
1503943623344,15, 9, 3, 1, -1, -1, 0, -1
1503943623366,-3, -10, -2, 0, 1, 0, -1, 1
1503943623388,-8, -4, -1, 0, -1, -3, -2, 0
1503943623404,-7, -6, -1, -2, -1, 0, -1, 0
1503943623415,1, 1, -1, -1, -1, -2, 2, -1
1503943623434,4, 2, 0, -1, -1, 1, -2, 1
1503943623457,1, 0, -1, -1, 0, 0, 0, -1
1503943623472,-4, -2, 2, -1, 0, -2, -1, -1
1503943623494,-1, -3, -2, -1, -1, -1, -2, -2
1503943623516,-5, -2, 1, 1, 0, -2, -1, 0
1503943623532,1, -1, -1, -2, -2, -1, -3, -2
1503943623554,-7, -2, 0, -1, 0, -1, -1, -1
1503943623576,2, -1, -1, -1, -1, -2, -2, 0
1503943623592,-6, -2, -1, 0, 2, 0, 1, -2
1503943623617,-11, 2, -1, 0, -1, -1, -2, 0
1503943623636,7, 2, 1, -2, 0, -1, 1, 1
1503943623652,-4, -2, 1, 0, -3, -1, -3, -2
1503943623674,5, 0, -1, 0, 0, -2, -1, 0
1503943623696,-5, -3, -1, -3, -2, 0, 1, 0
1503943623712,-3, -3, -3, 0, 0, 1, -1, 1
1503943623734,-5, -3, -2, 0, -1, -2, 1, -2
1503943623756,5, 2, 1, -4, 0, -1, -1, 1
1503943623772,-2, 6, 1, 0, 0, 1, 0, -3
1503943623794,2, 0, 0, -1, -2, -1, -4, -1
1503943623818,3, -1, -4, 0, -1, -1, 0, -1
1503943623832,-5, -8, -1, -2, -2, -1, -1, -1
1503943623854,-2, 0, 0, 0, -2, -1, -1, -1
1503943623876,-1, -2, -1, -1, 0, -1, -1, 0
1503943623892,-4, -8, -3, -1, -1, 0, 0, 0
1503943623914,-3, -1, 1, 1, -1, -1, -3, -1
1503943623936,-8, -3, 0, 0, -2, -1, -1, -3
1503943623953,0, -1, 0, 1, 1, 1, 1, 2
1503943623974,-7, -3, -3, -2, -2, -3, -3, -6
1503943623996,2, -2, -2, -1, 0, 0, 0, 3
1503943624012,0, -1, -2, -1, -1, 1, 1, 1
1503943624034,7, 3, 2, 0, 0, -1, -2, 0
1503943624057,2, 0, -1, -1, -1, 0, -1, -2
1503943624072,-4, -3, -1, -3, -2, -1, 0, 2
1503943624095,-1, 2, -2, -1, -1, -2, -1, 0
1503943624116,-5, -3, 0, 1, -2, -3, -3, -3
1503943624139,-1, -3, -3, 0, 0, 0, 0, -1
1503943624156,8, 3, -1, -1, -2, -1, 0, -1
1503943624176,-2, -2, 1, 2, -1, -3, -2, -4
1503943624199,4, 2, 0, -2, -1, -1, -1, -1
1503943624214,1, 1, 0, 1, 0, -1, 0, 2
1503943624236,-16, -11, -1, -2, -1, -1, 0, -2
1503943624259,0, 6, 1, -1, 1, 0, -2, 1
1503943624274,4, 1, -4, -1, -1, -1, 2, 0
1503943624289,-10, -3, 0, 3, -1, -1, -1, -1
1503943624304,2, 0, 2, -1, -2, 0, -1, -1
1503943624326,-5, -2, 2, -1, -1, -1, -3, 2
1503943624348,7, 3, -2, -2, -2, 0, -1, 0
1503943624364,-11, -1, -2, 1, 0, -2, 0, 1
1503943624388,-3, -5, -1, -1, -2, 0, 1, 2
1503943624408,1, 1, 0, -2, -2, -1, 1, -1
1503943624424,-1, 1, -1, 0, 1, -2, -1, -1
1503943624445,-13, -5, -3, -1, -1, -2, 0, -1
1503943624468,1, 3, 2, -3, -1, 0, 0, -3
1503943624484,2, 2, -2, -1, -2, -3, -3, -2
1503943624505,1, -1, 0, -1, 1, -1, -1, 0
1503943624529,0, 0, 0, 0, 0, -1, -3, -1
1503943624544,-6, -5, -2, 1, -2, 0, -2, -1
1503943624565,0, -5, -4, -1, 0, 0, 1, 0
1503943624589,5, -5, -4, -2, -1, -1, -1, 0
1503943624604,2, 1, 0, 0, 0, -1, -1, -1
1503943624633,1, 3, 0, -1, 0, 0, 1, -1
1503943624648,2, 3, -2, -2, -3, 0, -1, 0
1503943624664,6, -4, 0, 0, -1, 0, 0, -2
1503943624685,0, -2, 1, -2, -2, -1, -2, -1
1503943624694,10, 5, 1, -1, 0, 0, -2, 0
1503943624716,-10, -7, -2, -2, -2, -1, -1, -4
1503943624739,-4, -3, 0, -1, 1, 1, -1, 0
1503943624754,-2, 1, 1, 0, -2, -3, -3, -1
1503943624776,-3, -5, -1, 0, -1, 0, 0, 0
1503943624799,1, 0, -1, 1, 0, -1, 0, 2
1503943624806,-1, -1, -2, -2, -1, -1, 0, -2
1503943624829,2, -2, -1, -2, -1, 0, 0, 1
1503943624844,16, 8, 0, -3, -1, -1, -2, -2
1503943624866,-13, -2, -1, 1, -2, -2, 0, 1
1503943624888,4, 2, 0, -1, 1, -1, -1, 2
1503943624904,-5, -5, 0, 0, -2, 0, -1, -3
1503943624926,-1, -2, -1, -1, 0, 1, 0, 1
1503943624948,-3, 0, -4, 1, -1, 0, 1, 0
1503943624964,1, -5, -3, -1, -3, -1, 0, 0
1503943624986,-8, -3, 0, 1, 0, 0, -3, -7
1503943625008,3, -3, -2, -1, 0, -3, 0, 1
1503943625026,5, 2, -2, 0, -1, 0, -2, 1
1503943625045,-3, 0, 0, -2, 1, 0, 0, 2
1503943625054,9, 4, 0, -2, -2, 0, -4, -1
1503943625076,-6, -4, 1, 0, 0, -1, 0, -3
1503943625099,-7, -6, -5, -3, -1, -4, 0, 1
1503943625121,2, 5, 1, 0, -2, 1, -1, 0
1503943625136,-7, 3, 2, 0, 0, -2, 0, -1
1503943625151,-4, -4, -2, -2, -2, -1, -3, -5
1503943625166,11, -2, -1, -1, -3, 1, 1, 0
1503943625188,-5, 2, 3, 1, 1, -1, 0, 0
1503943625211,1, 1, -1, 0, 0, -1, -2, 1
1503943625228,7, 7, 1, -2, -1, 0, 0, -1
1503943625256,-1, -4, -2, -1, -1, -1, 2, 2
1503943625279,5, 3, -1, 1, 1, -1, -2, 0
1503943625301,-1, -3, -2, -2, -3, -1, 0, 0
1503943625316,2, -2, 0, 0, -1, 0, -1, 0
1503943625339,-10, -2, -2, -1, -2, 1, -1, -2
1503943625363,-1, 3, 0, -2, -2, 0, 1, 0
1503943625376,6, -1, -2, -2, -1, -3, 1, -1
1503943625391,-1, 2, 0, -2, 0, 1, 1, 1
1503943625406,3, -2, 0, -2, 0, 0, 0, 1
1503943625429,-6, -4, -2, 1, 0, -1, 1, -1
1503943625450,3, -3, -3, 0, -2, -1, 1, -2
1503943625467,-1, 3, -1, -1, -3, 0, -2, -1
1503943625488,6, 3, 2, -1, 1, -2, 0, 0
1503943625512,-9, -8, -1, 0, -2, 1, -1, -1
1503943625534,3, 1, 0, 2, 0, -3, -3, -1
1503943625556,-1, 1, -1, -3, -1, 0, 0, 0
1503943625572,1, 0, -3, -1, -2, 0, -4, -3
1503943625597,1, -2, -3, -3, 1, -1, 2, -2
1503943625609,-5, -8, 0, 0, -3, -2, 0, 2
1503943625632,2, 1, -2, 0, 1, -3, -1, 0
1503943625654,-1, -3, 1, 0, 0, 3, 0, 3
1503943625669,7, 5, 1, -1, -1, 1, -2, -2
1503943625692,-1, 3, 2, -2, -1, -3, -2, -4
1503943625714,11, -1, -3, -1, -1, -2, -2, -2
1503943625734,-6, 0, -1, 0, 1, 0, -2, -1
1503943625752,-3, 1, 0, 1, 2, -1, 0, -1
1503943625774,-4, -6, -2, -3, -1, 1, 0, -2
1503943625789,0, -1, 0, 1, 0, -1, 0, 2
1503943625812,-10, -5, -2, -1, -1, 0, -1, -1
1503943625835,0, -1, -2, 1, -1, -2, 1, -1
1503943625849,-5, -1, -1, 0, -1, 0, 0, 1
1503943625872,9, 0, 1, 0, 0, 0, 0, -2
1503943625894,6, 1, -1, -2, -3, 0, -1, 1
1503943625917,0, 1, -1, -1, -2, -1, 0, 1
1503943625939,-1, -1, -2, 0, -1, -1, -4, -3
1503943625961,-1, 0, 0, 1, -1, -1, 0, -1
1503943625976,9, -1, -2, 0, -1, -2, 1, -1
1503943625999,-23, -9, -1, 0, -3, -2, 0, -3
1503943626021,4, 0, 1, -1, 1, 1, -3, 0
1503943626044,4, 1, -1, 0, 0, 1, 0, -1
1503943626059,5, 0, -1, 2, 0, -1, -1, -1
1503943626081,6, 3, -1, 0, -1, -4, 0, 2
1503943626104,4, 1, -1, -4, -1, -2, -2, -8
1503943626119,2, 1, 1, -1, -2, -1, 0, 2
1503943626143,-3, 2, -1, -1, -1, -1, -1, 1
1503943626164,-1, 0, 0, -3, 0, 2, 2, 3
1503943626179,-5, 0, 2, -1, 1, 1, 0, -2
1503943626207,6, -2, -1, 0, -2, 0, -1, -2
1503943626224,-2, -4, -1, -1, 0, -3, -1, -2
1503943626239,-6, 0, 1, -3, -1, 1, 0, 2
1503943626261,-6, -1, -3, 1, 0, -1, -1, 0
1503943626284,-5, -2, -2, -2, -2, -3, -3, -3
1503943626299,2, 2, -2, -2, 0, -2, 0, -2
1503943626321,8, 6, 1, 1, -4, -1, -2, -3
1503943626344,-5, -6, -2, 0, 0, -1, 0, 1
1503943626359,8, -3, -3, -2, -1, -1, 0, 0
1503943626381,4, -2, -1, 0, -2, 0, 1, -2
1503943626404,1, 6, 1, -1, 0, 0, 0, -2
1503943626419,-1, -6, 1, 1, 0, -2, -3, -3
1503943626442,-4, -5, -1, -1, -2, 0, -2, -1
1503943626464,-3, 0, 0, 0, -1, 0, 0, -1
1503943626479,-9, -5, -3, 0, 0, 1, 0, -2
1503943626503,0, 3, -1, -1, 0, -1, -2, 2
1503943626524,23, 9, 0, -3, 1, -2, 1, 3
1503943626539,0, 0, 0, -2, -1, -1, 0, -3
1503943626561,-11, -4, -1, 2, -1, 0, -2, 0
1503943626584,-1, 0, -2, -1, -2, 0, -3, -2
1503943626599,-12, -2, 1, -1, -1, 0, -1, 0
1503943626621,3, -3, -1, 0, -2, -2, 0, 1
1503943626644,2, -6, -2, -2, -2, -3, -1, 1
1503943626659,-12, -3, 1, 0, -1, -1, 1, -4
1503943626675,-6, -5, 0, -3, 0, 0, -1, -4
1503943626689,-6, -3, 1, 2, -1, 1, 2, 1
1503943626712,4, 1, 1, -3, -1, -2, -3, 1
1503943626735,-6, 2, 1, 0, 0, 0, -1, 0
1503943626749,-1, 0, -2, -2, -1, -3, 0, 2
1503943626772,6, 2, 1, 1, -2, -2, -4, -1
1503943626794,10, 2, -2, -1, 0, 1, 2, 0
1503943626809,9, 3, -1, 1, 1, 6, -8, 0
1503943626832,-7, 1, 1, -1, 0, -4, -6, -1
1503943626854,-11, -5, -1, -4, -3, 0, 2, 1
1503943626873,-1, -1, 0, 1, 0, -1, 0, -2
1503943626892,-15, 0, -1, -1, 0, 2, 2, -1
1503943626914,-8, -7, -1, -1, 0, -3, -1, 0
1503943626936,3, 3, 1, 1, -1, -10, -6, -2
1503943626952,-3, 1, -1, 1, -2, 0, -2, -3
1503943626975,-8, -5, -1, -2, -2, 2, -2, -1
1503943626996,-6, -5, -1, -1, 0, -4, 1, -2
1503943627012,5, 1, 0, 0, -3, 1, 3, -2
1503943627034,9, 3, 0, -1, 0, 2, 6, 1
1503943627057,6, -1, 0, -1, 0, 2, 5, -1
1503943627079,0, -6, -4, -2, -3, 4, 3, -2
1503943627095,2, -1, -3, 0, 0, -4, -2, 1
1503943627117,8, 4, 1, -1, -2, -4, -3, -1
1503943627132,-11, -6, -2, -4, -1, 0, -11, -3
1503943627154,-5, -1, 3, 2, 2, -9, -6, -3
1503943627176,-14, -6, -2, 1, 1, 0, 5, -1
1503943627199,1, 2, 0, -1, -1, -1, -2, -2
1503943627221,-4, -2, -1, 0, 0, 4, -2, 2
1503943627236,6, 1, 1, -1, -1, -1, 4, 2
1503943627252,2, -1, 0, -2, 1, 0, 0, 0
1503943627276,10, 8, 2, -2, -3, 1, -1, 0
1503943627296,6, 3, -2, 0, 1, -2, -2, -1
1503943627313,-3, -3, -1, -1, 0, -1, -4, -3
1503943627336,1, 1, -3, -3, -3, 0, 0, -1
1503943627356,-1, -2, 0, -1, 1, 2, 2, 1
1503943627372,-6, -9, -4, -1, -3, -2, -1, -1
1503943627395,-7, -6, -2, 0, 3, 0, 0, 0
1503943627418,-6, -1, 1, 1, -1, -1, -1, 0
1503943627432,0, -3, -2, -4, 1, -1, -1, 0
1503943627455,5, -2, -2, -1, -1, 0, 1, -1
1503943627479,-1, 2, 0, -1, -1, 0, 0, 0
1503943627492,0, -3, 0, 2, -2, 0, -1, 0
1503943627514,-7, -7, -3, 0, 1, -1, 0, -1
1503943627521,-1, -2, -2, -1, -3, -2, -1, -2
1503943627544,2, 0, -2, -1, -2, -1, -3, -1
1503943627567,-3, -3, -2, 0, 0, 1, 1, -4
1503943627581,6, -1, -3, -2, -3, -1, 0, -1
1503943627604,-1, -2, 0, 1, 3, -3, -1, -4
1503943627626,-4, -5, -2, -6, -9, 0, -1, 0
1503943627641,-2, 2, -1, -3, 0, -2, 0, 0
1503943627664,3, 2, 7, 18, 8, 3, -1, 2
1503943627688,-2, -1, 0, -7, -1, -2, -5, -1
1503943627701,-1, 1, -1, 12, -16, -2, 0, 1
1503943627717,0, -3, -4, -1, 8, 0, -1, -4
1503943627732,0, -1, 2, -9, -6, -2, -1, -7
1503943627755,-1, -2, -4, -2, -20, -2, -2, -10
1503943627779,2, 0, 5, 16, 33, 3, 3, 2
1503943627792,-3, -1, -3, -1, -3, 0, -3, -1
1503943627815,3, 3, 1, -12, -14, -6, -5, 2
1503943627836,-3, 3, -2, 7, 2, -3, 4, 6
1503943627851,-2, 0, 1, 0, 5, -2, -8, -1
1503943627875,-2, -2, 2, -7, -18, 4, 2, -4
1503943627896,1, -3, -9, -10, -3, -1, -2, -2
1503943627919,-4, -1, 7, 26, 9, 2, 5, 3
1503943627934,6, -2, 1, 12, 12, 10, 5, 2
1503943627956,1, 3, 1, -16, -18, -6, -4, 7
1503943627980,-3, 1, 5, 3, 19, 4, -4, 6
1503943627994,1, -4, -10, -13, -9, -6, -6, -2
1503943628016,-4, -5, -6, -12, -7, -1, 2, -1
1503943628039,-2, -1, 1, 0, 2, -2, -3, -8
1503943628055,3, 0, -3, -1, 1, -1, 7, 5
1503943628076,-1, -5, -3, -15, -2, 4, -1, -5
1503943628099,1, 4, 0, 4, -15, -14, -6, -4
1503943628117,-6, -5, 1, 0, -6, -4, -5, -7
1503943628137,4, -28, 9, -1, 10, 12, 9, 11
1503943628159,11, 33, 3, 3, 7, 6, 5, 5
1503943628174,0, 28, -3, 2, -13, -8, -2, -8
1503943628196,-8, -26, -17, -1, -2, -9, -6, -4
1503943628225,-13, -75, -30, 7, 17, 0, -3, -5
1503943628238,-13, 13, 25, 1, 19, 6, -1, -5
1503943628261,-10, -46, -46, -33, -36, -19, -12, -7
1503943628279,4, 22, -30, -18, 11, -11, -9, -5
1503943628294,-60, 38, -22, 6, 15, 16, 11, -92
1503943628316,69, -83, 86, 2, 19, 85, 48, 95
1503943628339,71, 5, 84, -21, -84, 72, 23, 77
1503943628355,12, 30, -27, 25, -35, -112, -37, 26
1503943628377,6, -82, -63, -15, 40, -65, -13, 62
1503943628398,-6, -95, -71, -28, -47, 20, -16, -22
1503943628416,27, 74, 45, -4, 70, 79, 7, -68
1503943628437,-63, -20, -21, -44, -122, -91, -28, -55
1503943628459,-14, 19, -25, 7, -1, -7, 0, 7
1503943628475,-1, 68, 4, -6, 2, 0, -6, -27
1503943628497,-10, -27, -17, -14, 16, 3, -4, -11
1503943628519,-6, 12, 3, 28, 19, -7, 5, -12
1503943628534,-5, 24, 2, 20, 2, -12, 1, 6
1503943628557,-10, -19, -14, 8, 25, 3, 2, -1
1503943628579,1, -4, 2, 6, 9, -6, -3, 0
1503943628601,-4, 0, 5, 1, -2, -7, -6, -2
1503943628617,-6, 20, 1, -10, -23, 6, 7, -2
1503943628639,-3, -14, -9, 4, 8, -12, -3, -5
1503943628655,4, 22, 0, 3, 4, -3, -2, 1
1503943628677,1, 7, 25, 12, 8, 2, 1, 2
1503943628699,-3, -27, -28, -7, 5, -1, -5, -1
1503943628714,0, 3, 2, 5, 6, 2, 2, 1
1503943628737,-3, 2, 4, 2, 4, -3, -1, -4
1503943628759,-1, -13, -1, 0, -1, 0, 0, 0
1503943628775,2, 8, -2, -2, -10, 3, 5, 3
1503943628797,-2, -5, 4, 2, 5, 1, -1, -1
1503943628820,-2, -4, -1, 0, 1, -4, 2, 0
1503943628841,-4, -4, 1, -1, -3, -4, -5, -1
1503943628857,-2, -2, -1, 0, 1, 2, 0, -2
1503943628879,-1, 2, 0, -1, 3, -3, -2, -4
1503943628901,1, 0, -3, -2, -1, -3, 0, 1
1503943628919,1, -2, 3, 0, -1, 1, -1, -1
1503943628939,-2, -2, -3, -3, 1, -3, -3, -3
1503943628962,-1, -2, -1, 2, 2, -1, 1, 0
1503943628969,2, 1, 0, -4, -4, -2, -1, 1
1503943628991,0, 1, -2, 1, -2, 0, 2, 0
1503943629006,0, 1, -2, 1, -3, 0, -1, 0
1503943629029,-3, -2, -1, -3, 0, 1, -1, 0
1503943629050,-2, 0, 0, 1, 1, -1, -2, -4
1503943629066,1, -1, -1, -1, 2, 1, 0, 2
1503943629089,2, 1, 0, -1, 0, 0, 0, 0
1503943629111,-2, -1, -1, -1, -1, 1, 0, 0
1503943629126,-1, 0, -2, 1, -1, -1, -1, -2
1503943629148,-1, -2, -1, -2, -1, -2, -2, -3
1503943629170,2, 0, 0, 1, -1, -1, -1, -2
1503943629190,-2, -3, 0, -1, 1, -1, -1, 0
1503943629209,-3, -1, 0, -2, -2, -1, -1, -4
1503943629231,1, -1, 0, -1, 0, 1, -1, 1
1503943629246,-2, 1, 0, -3, 0, -1, 1, 0
1503943629268,-5, -4, -1, 0, -1, -2, -3, -1
1503943629290,-3, 0, -2, 0, -1, 1, -3, 1
1503943629299,-1, -3, 1, -2, 0, -3, -2, -5
1503943629324,-3, 0, 0, -1, 0, 0, 1, -1
1503943629337,-1, -1, -4, 0, 0, -1, 1, -2
1503943629359,-3, -1, 0, -2, 0, 1, -2, -1
1503943629381,0, 0, -2, 1, -2, -1, 1, 2
1503943629397,-2, 0, -1, -1, 1, -1, -2, -2
1503943629418,-2, 2, -2, -1, -1, 0, -1, 0
1503943629426,-1, -2, -2, -1, -1, -2, -2, 1
1503943629448,2, -2, -3, -2, -1, 0, 0, -2
1503943629471,4, 2, -2, -1, -1, -1, 1, 3
1503943629486,-2, -1, -1, -3, 1, -2, -1, -3
1503943629508,0, 0, 1, -1, 1, -1, -1, -5
1503943629517,0, 1, 2, 0, 1, -1, 0, 0
1503943629531,-7, 0, 0, -2, -1, -2, -2, -2
1503943629546,2, 4, 8, 2, -1, 0, -1, 0
1503943629569,1, -5, -3, -2, 0, -2, -3, -2
1503943629593,-1, -1, -1, 1, -1, 0, -1, 0
1503943629606,1, -2, -3, 0, -3, -1, 1, -2
1503943629629,9, -1, 0, 1, -1, -1, -2, -2
1503943629650,4, 4, -1, -1, 0, -1, 0, -8
1503943629667,-4, -3, 0, 0, 0, 1, -2, 2
1503943629689,1, -7, 0, 5, 7, 4, -5, 7
1503943629711,-5, -2, 0, -4, -1, -6, 0, -15
1503943629733,-15, -9, -2, -1, -2, 1, 6, 10
1503943629755,-4, 6, -4, -13, -13, -27, 0, -5
1503943629778,23, 9, 1, 2, 6, 9, -16, -13
1503943629793,19, -4, -3, -5, -13, -3, -1, 1
1503943629808,26, 12, -2, 0, 4, 13, 2, -7
1503943629830,3, 3, 4, 4, 5, 8, 40, -44
1503943629853,-9, -9, -3, 0, 0, -9, 3, 16
1503943629869,-25, -9, 0, -2, -6, -18, -7, 9
1503943629892,28, -8, -6, -9, -11, -1, -23, 24
1503943629913,-54, 0, 3, 5, 4, -6, -5, 25
1503943629929,-20, 2, -7, -2, 0, 13, -7, -16
1503943629950,15, 18, 16, 5, 3, 3, 2, 17
1503943629973,17, -4, 4, 1, 2, 5, 0, -5
1503943629989,-5, 0, -5, 0, -1, 1, -1, -9
1503943630010,-7, 0, -7, -3, -1, -4, -2, -19
1503943630033,19, 7, -17, -3, 1, 5, 1, -2
1503943630049,31, -23, -16, -7, 0, -2, -1, 21
1503943630070,-40, -6, 5, 1, 1, 3, 0, -7
1503943630099,-4, 5, 7, 2, -1, -1, 0, 4
1503943630109,-13, 39, 2, 2, -1, 2, 9, 5
1503943630130,-5, 14, 32, 8, 1, 2, 1, 2
1503943630153,6, -25, -14, -6, -1, -3, -2, -3
1503943630170,1, -9, -1, -1, -2, -2, -3, -6
1503943630190,4, 1, 6, 1, 0, -1, -3, -1
1503943630213,-7, -13, -2, -2, 0, -1, -2, -1
1503943630229,-3, -7, -6, -2, -2, 0, -1, -2
1503943630250,5, 20, 16, 3, -1, 0, -1, 6
1503943630273,-6, -20, -15, -2, -1, 0, -1, 0
1503943630288,-6, 1, 12, 4, -2, 2, 0, 4
1503943630311,4, 0, -2, -3, 1, 0, -3, 0
1503943630333,-11, -1, 1, -1, -1, -6, -2, -4
1503943630348,5, -11, -7, -6, -1, -3, -2, -1
1503943630371,-2, -7, -3, 0, -8, -2, -1, -3
1503943630393,-9, -1, -5, -1, 1, 0, 1, -1
1503943630409,-6, -4, -1, 0, -2, -2, -2, -4
1503943630431,0, 1, -6, -22, -26, -4, -2, 2
1503943630453,3, 0, 0, 18, 21, 3, 0, -2
1503943630469,0, -7, -3, -1, 4, -1, 0, -1
1503943630484,-1, 0, -3, -5, -2, 0, -1, -1
1503943630499,-5, -2, -1, -6, -9, -3, -3, -3
1503943630521,-1, 6, 10, 25, 29, 7, 1, 0
1503943630543,2, 1, -2, -14, -19, -6, -3, -3
1503943630559,-41, -5, 3, -4, 2, -2, -2, -2
1503943630581,13, -11, -12, -5, -6, -1, 0, 4
1503943630604,-4, -3, -7, -8, 3, -2, 0, 1
1503943630618,-9, 7, -6, -7, -8, -1, 2, 0
1503943630641,26, 13, -3, 13, 8, 4, 3, 5
1503943630649,3, 21, -6, -2, 3, -2, 0, -1
1503943630672,-14, -11, 3, 0, 1, 0, -2, -3
1503943630695,-1, -6, 27, 4, -1, 1, 1, 2
1503943630717,-5, 6, 5, 4, 10, 2, 0, 1
1503943630733,-25, -91, -25, -9, -5, -3, -3, -4
1503943630754,4, 9, -14, -3, 0, 2, 0, 1
1503943630777,-12, -20, -3, 0, 4, -1, -1, -5
1503943630791,-7, -3, -19, -6, -4, -3, -6, -6
1503943630814,0, 40, 0, 2, -1, -2, -2, 1
1503943630837,9, 12, 37, 9, 1, 2, 1, 3
1503943630859,6, -2, -5, -4, -2, 0, -1, 0
1503943630874,-4, -13, -1, -3, -1, 1, 3, -2
1503943630881,-7, -15, 0, 1, 0, -2, -2, -2
1503943630904,8, 7, -3, -3, 0, 0, -3, 1
1503943630926,8, 29, -5, 1, 1, 0, 0, 2
1503943630941,7, 4, -2, -2, 0, 0, -1, -1
1503943630963,-3, -18, 0, 1, 0, 0, -4, -1
1503943630993,4, 7, 12, 3, -2, 0, 1, 1
1503943631001,9, 22, 16, 2, -1, 1, -4, 0
1503943631023,-5, -24, 3, 0, -3, -1, 1, 1
1503943631046,-7, -5, -8, -3, -5, -3, 0, 1
1503943631077,2, -13, 17, 9, 4, 1, 1, -1
1503943631099,6, 3, -6, -1, 0, -1, 0, 1
1503943631114,0, 0, -1, -4, -4, -3, 0, -3
1503943631137,-2, 5, 0, -2, 0, 1, 2, -4
1503943631160,5, -8, 18, 6, 0, -1, -1, 4
1503943631175,5, -15, -9, -6, -3, 0, -1, 0
1503943631197,-3, 2, -8, -4, -3, -4, -1, 0
1503943631219,-5, -3, -4, -1, -2, -2, -1, -5
1503943631237,7, 22, 1, 0, -1, 2, 0, 7
1503943631257,0, -1, -1, -1, -3, -2, -2, -5
1503943631272,12, 38, 3, -1, 1, 0, -1, 1
1503943631304,11, 10, 4, 1, -3, 0, -2, 1
1503943631323,-20, -26, 1, -1, -3, 0, 0, -4
1503943631346,-3, 7, 0, -6, -3, -1, 2, -2
1503943631361,-1, 0, 11, -3, -3, -1, 13, -2
1503943631384,2, 10, -2, 2, 5, -1, -11, -1
1503943631406,7, 32, -10, 3, 1, 1, -3, -2
1503943631421,7, -31, -5, -3, 2, 1, -1, 2
1503943631444,3, -2, 3, 3, -2, -1, -1, -2
1503943631466,0, 3, 0, 0, 0, 0, -5, -2
1503943631481,-3, 8, -2, 3, 1, -2, -2, -2
1503943631509,-4, -15, -9, -7, 0, -3, 1, -2
1503943631526,-1, 3, 5, 4, -2, -1, -1, 2
1503943631541,-4, -3, -5, -4, -2, 1, 1, 2
1503943631564,-2, -1, 1, -3, -3, 0, 1, -3
1503943631586,-1, 7, 0, 0, 0, 1, 1, 2
1503943631609,7, 5, 9, 3, 4, -2, -3, 0
1503943631624,-3, -6, -9, -2, -2, -2, -2, -2
1503943631647,-3, -8, 0, -2, -1, 0, 1, -2
1503943631669,4, 7, 3, -1, -2, -5, 0, 0
1503943631684,3, -2, -1, 1, -1, -1, 2, 7
1503943631706,5, 2, -1, -6, -1, -1, -2, -4
1503943631728,-6, -2, -10, -2, -1, -2, -3, -2
1503943631744,9, 5, 3, 0, 2, -1, -3, 4
1503943631766,-2, 2, 5, 0, -3, -2, -2, -6
1503943631788,24, 15, 2, 0, 1, -1, -2, -9
1503943631803,-18, -7, -4, -5, -1, -1, -1, 2
1503943631826,3, -9, -6, 3, -1, 1, -3, -1
1503943631848,14, 11, 4, -2, 0, -3, 2, 6
1503943631863,-18, -12, -3, -1, -3, -2, -3, -5
1503943631886,-8, -3, 1, 0, 1, 2, 1, -1
1503943631909,-20, -14, -3, 2, 1, 4, 5, -2
1503943631923,-4, -3, -3, -3, -4, -3, -5, 0
1503943631946,1, 4, 1, -5, -1, -1, -1, -2
1503943631968,-2, 1, -3, -1, 0, -1, -1, -3
1503943631983,-5, -3, -1, -1, -3, 3, 0, 3
1503943632008,0, 2, 1, 2, 3, 0, 3, 1
1503943632028,-1, -5, 0, 0, 2, -1, 0, 0
1503943632044,-2, -9, -3, -3, 0, -3, -1, 3
1503943632066,-6, -2, 4, -1, -3, 0, 4, 3
1503943632089,29, 7, 0, 2, -1, 1, -5, -5
1503943632097,4, -2, 0, 0, -1, -3, -4, 0
1503943632119,4, -9, -1, -1, -1, 0, 1, 4
1503943632134,0, -9, 1, 1, -2, 0, -2, 0
1503943632156,9, 6, 2, 0, 1, -1, -6, 0
1503943632179,-16, -5, -6, 0, -3, -5, -1, -4
1503943632194,4, 2, -1, -4, -3, 1, 2, 4
1503943632222,20, 8, 3, -1, -4, 1, 3, 2
1503943632239,5, 2, 1, 2, 3, 0, 0, 1
1503943632256,-13, -3, -2, -4, -2, -1, -3, -1
1503943632280,3, 1, -8, -2, 1, 0, 0, -5
1503943632283,-8, -2, -5, 2, 2, 3, 3, -3
1503943632313,-18, -8, 1, 2, 2, -2, 1, 2
1503943632315,-2, 2, -4, 2, 1, -1, -2, 0
1503943632336,6, -3, -5, -2, -1, -2, -2, -6
1503943632359,11, 7, 6, 2, 1, -1, -2, 0
1503943632374,-5, -3, 1, 0, -3, -2, 1, 3
1503943632396,-9, -5, -5, -2, 2, 0, 1, -1
1503943632419,6, -5, -5, -1, -3, -1, -1, -2
1503943632434,-3, 0, 1, -2, -1, 2, 3, 6
1503943632456,-18, -8, 1, 0, -2, 2, -4, 1
1503943632479,9, 0, -6, -4, 0, 1, -1, -4
1503943632494,-6, -4, 1, 1, 1, -1, 0, 1
1503943632516,7, -1, 3, 0, -1, 0, -2, 8
1503943632539,2, -2, -2, -2, -3, 0, 1, 1
1503943632547,13, 1, -2, 0, 0, -1, -3, -2
1503943632568,-4, 3, 0, -3, 1, 1, 0, -3
1503943632591,-20, -3, 2, -1, -3, 0, 0, -3
1503943632606,22, -1, -4, -1, 1, -1, -3, -2
1503943632628,-6, -4, 0, -2, -5, -2, -2, 1
1503943632651,-9, 3, -1, 1, 0, 0, 0, -1
1503943632666,-3, -3, -1, -1, -3, -3, -1, 0
1503943632688,-12, 0, -2, -3, 1, -1, 2, 4
1503943632713,8, -9, -4, -3, -5, -1, -1, 0
1503943632726,11, 5, -2, -1, 1, -1, -1, 3
1503943632749,-21, -6, -1, -1, -2, 1, -2, -1
1503943632771,-1, 1, -3, 0, 0, -2, 0, -4
1503943632786,3, 2, -1, 0, -3, -1, 1, 0
1503943632808,-7, 0, 2, -3, -3, -2, 0, 1
1503943632831,14, 5, 5, -2, 2, 0, -3, -2
1503943632848,-17, -7, 5, 1, 2, -1, 1, 2
1503943632868,-2, -5, -1, 0, 1, 1, -1, -3
1503943632891,2, 2, 1, 2, -4, -1, 4, -1
1503943632906,1, 6, 3, 1, 1, -1, -2, -4
1503943632928,-28, -7, -9, -5, -5, -1, -2, -2
1503943632953,16, 1, -6, 0, 1, -3, 0, -2
1503943632966,-18, -5, 1, 2, 1, 2, -1, 0
1503943632990,11, 2, 8, 11, 7, 6, 3, 2
1503943633016,6, 9, 4, -1, -3, -6, -7, -5
1503943633026,-3, -4, -7, -4, -3, -1, -1, 9
1503943633049,3, -1, -4, -6, -2, -2, -1, -1
1503943633071,3, 0, -2, -1, 0, -3, -3, -9
1503943633080,7, 5, 6, 1, 2, 2, 2, 9
1503943633101,-2, 2, 4, 7, 5, 1, -4, -8
1503943633121,-9, 1, -5, -1, 0, 1, -2, -5
1503943633139,-1, -8, -6, -6, -4, -1, 2, 5
1503943633161,6, -7, 17, 4, 3, 1, 0, 2
1503943633176,-6, -10, -2, 0, -2, 0, -2, 2
1503943633192,1, 2, 0, -1, 1, -1, -1, 0
1503943633206,-3, -30, -6, -5, -4, -2, 0, 5
1503943633228,0, -12, -9, -2, -2, 0, 1, -2
1503943633251,-10, -6, -3, -2, -1, -2, -2, -2
1503943633266,6, 10, 1, 3, 0, -2, -2, -1
1503943633289,-10, 1, -1, -3, -2, -4, -4, -7
1503943633312,2, 3, 5, 5, 5, 6, 5, 0
1503943633326,0, 1, 0, -1, -1, 0, -1, 3
1503943633351,1, 13, 2, -2, -4, -2, -1, -1
1503943633371,4, -6, -9, -5, -4, -2, 0, -2
1503943633386,7, 7, -1, 1, -2, -1, -2, -7
1503943633408,2, -6, -3, 2, 0, 1, -3, -1
1503943633418,-9, -10, -9, -5, -2, 0, -2, -1
1503943633439,3, 1, 2, -1, 0, -1, -1, 2
1503943633461,-5, -9, -3, -4, -6, -1, 1, 0
1503943633485,1, 20, 2, -2, -1, -2, -4, -3
1503943633499,-4, -7, -4, 0, 0, -2, -1, -3
1503943633521,1, -4, 0, 0, -1, -1, 0, 1
1503943633543,1, -1, 1, 2, 2, 0, 0, 0
1503943633559,-3, 2, -1, -1, 0, -1, -1, -3
1503943633573,-1, -9, 0, 0, -3, -2, -1, 1
1503943633595,-7, -5, -5, -3, 0, 0, 1, 3
1503943633620,1, -3, 1, -1, 0, -1, -1, -1
1503943633641,-3, -1, -2, 1, 0, 0, -1, 2
1503943633663,-3, -2, -2, 0, -2, -2, -1, -2
1503943633679,-4, 0, -3, 0, 0, -2, 1, -1
1503943633701,9, 5, -4, 0, -1, -3, -3, 1
1503943633724,-7, 2, 3, 2, -2, 1, -3, -2
1503943633739,1, 4, 2, -3, -2, 1, 2, 1
1503943633761,-2, -12, -7, -3, -1, -3, -2, -1
1503943633783,-2, 3, 2, -3, -1, -1, -2, -4
1503943633799,-4, -7, -7, -4, 0, 0, -2, 2
1503943633822,2, 1, 0, 0, -1, -2, -2, 0
1503943633844,1, 3, 1, 1, -2, -1, 1, 1
1503943633861,-1, -5, -5, -2, -1, 1, 0, 2
1503943633881,1, -5, 1, -2, -3, -2, -1, -2
1503943633903,-1, 7, 3, 0, -3, 1, -2, -5
1503943633921,1, 0, -6, 0, 1, -3, -2, -2
1503943633941,6, 5, -2, -2, 0, 0, 1, 1
1503943633964,-11, -8, 0, 3, 1, -1, 0, -1
1503943633979,2, -1, 4, -2, -1, -1, -1, 1
1503943634001,-1, -1, -1, 1, 1, 0, -3, 0
1503943634024,-2, 2, 4, 0, -1, 3, 3, 3
1503943634039,1, -4, -5, -3, -1, -2, -3, 1
1503943634061,-5, -4, 0, -2, -1, 2, -1, -5
1503943634083,-2, -2, -3, -3, -1, -1, -1, -2
1503943634099,-7, -8, -1, -1, -3, -2, 1, -2
1503943634123,-3, -3, -3, 0, 1, 0, 0, -1
1503943634143,1, 3, 8, 1, 0, -1, 0, 0
1503943634159,-6, -7, -3, 0, -1, -2, 1, -3
1503943634181,-1, 4, 18, 3, 0, -2, -1, -1
1503943634203,2, -8, -10, -4, -3, -1, 0, -3
1503943634219,-4, -12, -8, -1, 2, 0, -1, 2
1503943634241,6, 21, 9, 2, 0, 0, 0, 0
1503943634264,2, 5, 14, 1, -1, 0, -2, 3
1503943634279,0, 0, -2, -3, -2, -3, -1, -1
1503943634301,1, 7, -7, -3, -2, -2, -3, 1
1503943634324,2, -6, -14, -4, -1, 0, 0, 0
1503943634339,-4, 18, -2, -1, 0, 0, 0, -2
1503943634361,0, -11, -1, 0, -1, -3, 0, -2
1503943634383,1, -3, -1, 1, 0, 1, -2, -1
1503943634392,7, 12, 10, 1, 1, 0, -1, 0
1503943634413,-7, -9, -10, -1, -2, -2, -1, -2
1503943634435,-3, -5, -2, -2, -1, 0, -1, 1
1503943634451,8, 4, -1, 0, -1, -2, 0, 0
1503943634473,-6, -7, 4, -2, -3, 1, -1, -3
1503943634496,1, -1, -3, -2, -2, -3, 1, 0
1503943634511,-3, -7, -4, -3, -3, -1, -1, 1
1503943634534,-1, -5, -11, -3, 1, -1, -1, -3
1503943634555,-2, 6, -4, -1, 1, 1, 1, 2
1503943634571,-4, -7, -5, -2, -2, -1, -2, 1
1503943634593,-3, 19, 7, 1, 0, -3, -3, -5
1503943634615,1, -9, 0, 0, -1, 0, -2, -2
1503943634631,-3, 0, 5, -1, 1, -2, -1, 0
1503943634653,-1, 4, -2, 0, -1, -1, 2, 0
1503943634675,-4, -2, 3, 1, 0, -1, -1, -2
1503943634695,10, 0, -3, -3, 0, -1, -3, -1
1503943634713,-4, -9, -1, -1, -1, 1, -2, 0
1503943634736,2, 1, 1, 1, -1, -2, -2, -2
1503943634751,2, 20, -1, -1, -3, -1, -4, -4
1503943634773,-1, -12, -5, 0, 0, -1, 1, -1
1503943634799,-7, -12, 0, -1, -1, 0, 2, 0
1503943634811,-3, -3, -8, -1, 0, -1, 1, 2
1503943634833,-4, -2, -1, -2, -1, 0, 1, -3
1503943634855,-3, -11, -3, -3, -1, -1, -1, 2
1503943634878,-2, -1, 2, 0, -1, -1, -1, -3
1503943634900,2, 12, 17, 1, 1, -1, 0, -1
1503943634915,1, -3, -3, 0, -1, 0, 0, 1
1503943634932,2, -6, -5, 1, -3, -2, 0, -3
1503943634953,4, 7, -4, -3, -1, 0, -2, -1
1503943634975,-6, 6, -1, 0, -1, 1, 0, 0
1503943634983,-3, -1, -3, -2, -1, -2, -3, -3
1503943635006,-3, -11, -3, -1, -1, -2, 0, -1
1503943635021,-1, -4, -4, 1, -1, 1, 0, 1
1503943635043,-1, 4, 0, 0, 0, 0, 1, -2
1503943635066,3, 16, -3, 0, -2, -1, 0, -2
1503943635081,1, -16, 0, 0, 1, 1, 0, 1
1503943635097,-2, -2, 1, 0, 1, -1, 0, -1
1503943635111,-6, -10, -6, -1, -3, 0, -1, 1
1503943635133,1, 5, 4, 0, 0, -1, 1, 1
1503943635155,-5, -3, 1, 1, -1, -3, -4, -2
1503943635171,1, -4, -1, -1, 1, 2, 1, 0
1503943635192,1, 5, -3, -2, -1, -2, -1, 1
1503943635215,-1, -4, 0, -2, -1, 0, -2, -3
1503943635231,4, -6, -2, 0, 0, 0, -1, -2
1503943635253,-2, -6, -8, -3, -1, -2, 0, -1
1503943635275,-3, 1, -2, -2, -1, -1, 0, -2
1503943635291,-1, 1, 11, 2, -2, 0, 0, -1
1503943635312,1, -5, -6, -1, -1, -1, 0, 0
1503943635335,1, 3, -2, 1, 1, -2, 0, 2
1503943635358,-1, 3, -3, -3, -4, 0, -2, -1
1503943635373,-1, 2, 1, 0, -1, 1, 0, 0
1503943635395,5, 5, 1, -1, 0, -1, 1, -1
1503943635418,-6, -8, -4, -2, 0, -1, 1, -3
1503943635435,0, 1, -3, 0, 0, 0, 1, -2
1503943635455,1, -4, -1, -1, -1, -4, -3, 0
1503943635478,0, 7, 2, -1, -2, -2, -1, 0
1503943635492,-3, -1, 0, -3, -3, -1, -1, -4
1503943635515,-3, -7, 1, 3, -1, 0, -3, -1
1503943635538,-2, -4, -3, -2, 0, -1, -2, -1
1503943635552,-3, -1, -3, 0, -2, 1, 1, 0
1503943635582,-1, 2, -7, -2, -1, -1, -1, -1
1503943635599,0, 3, 4, 2, 0, 0, -1, 0
1503943635612,0, 18, -8, 0, -4, -2, -3, -3
1503943635635,7, -3, -2, -1, 0, 0, -1, -1
1503943635657,-1, -4, 1, -1, -1, -3, 0, -2
1503943635673,0, -7, 2, 1, 1, 0, 2, 4
1503943635695,1, 2, -1, 0, 0, 1, 2, -1
1503943635718,2, -12, -1, -2, -2, 0, -1, 0
1503943635735,-6, -10, -1, -1, -2, 0, -2, -2
1503943635755,-2, 3, 0, 2, 0, -1, -1, 0
1503943635778,-2, -2, -6, -3, -2, -2, -3, -4
1503943635793,-2, 3, 2, -2, 0, -2, 0, 2
1503943635815,0, -1, -2, -3, 1, 0, -1, -1
1503943635838,-4, -2, 0, -2, -1, -1, -2, -3
1503943635862,-1, 3, 3, 1, -2, 0, -1, -1
1503943635879,-2, 9, 8, 1, 0, -2, -1, -2
1503943635901,-1, 5, 4, 1, -3, 0, -1, -1
1503943635921,3, -4, -3, -1, -1, -2, -1, -3
1503943635937,-3, -5, -7, 0, -1, 0, 1, 1
1503943635959,-4, -3, -2, -3, 0, 1, -1, 1
1503943635981,3, 2, 3, -1, -1, 1, 2, 1
1503943635996,-1, -7, -5, -2, -1, -1, 0, 0
1503943636019,4, 2, 0, -1, 1, 0, 0, 4
1503943636041,0, 1, -5, -2, 0, -2, -2, -4
1503943636056,2, -11, 2, 1, -1, -2, -3, -3
1503943636079,-6, -10, -8, -1, -3, 0, -1, -2
1503943636103,-4, 3, 1, 0, 0, -1, -3, 0
1503943636116,2, 3, 7, -2, -1, -1, 1, 0
1503943636139,3, 3, -2, -2, -1, 0, -2, -1
1503943636161,2, 5, 1, 1, -1, -1, -1, 0
1503943636184,-1, 2, 1, 2, -1, 1, 1, 1
1503943636199,-5, -3, -3, -2, 1, -2, -1, 0
1503943636221,-4, 0, -1, 1, 0, 0, 1, 11
1503943636238,2, 3, 4, -1, -1, -2, -2, -2
1503943636259,-8, -4, -2, 0, 1, -2, -4, -7
1503943636282,1, 19, 4, 0, -1, -1, 2, -5
1503943636296,1, -10, -5, -2, -2, 0, 0, -1
1503943636319,2, -2, 2, 0, 1, -1, -1, -1
1503943636343,-3, -5, -4, -1, -1, 0, 0, -1
1503943636357,2, -2, 0, -4, -2, -1, 0, 3
1503943636380,2, 1, -1, 0, -1, -1, -3, -4
1503943636401,-3, -4, 0, 1, -2, -2, -3, -5
1503943636416,3, 14, 3, 1, 0, 1, 1, 0
1503943636439,2, -4, -1, -1, -3, -1, -3, -1
1503943636461,-8, -9, -3, -3, -1, -2, -1, -5
1503943636476,2, -2, -1, -1, 1, 1, 2, 1
1503943636499,4, -4, -3, 0, -2, 0, 0, 1
1503943636521,-5, 0, 5, -1, 1, 0, 0, 1
1503943636536,1, -3, 2, -1, -1, 0, 0, -1
1503943636559,-1, 6, -1, -1, -3, -2, -1, -1
1503943636582,-1, 1, -5, -1, -2, -3, -2, -2
1503943636596,-4, -3, -2, -3, -4, 0, -1, -1
1503943636619,2, 1, -4, -1, 2, 0, 0, 3
1503943636642,3, 4, 3, 2, 0, -1, 0, 0
1503943636656,-3, 4, 4, -2, -1, -2, -3, -2
1503943636679,-4, -8, -3, -1, -1, 0, -2, -2
1503943636701,-3, -2, -6, -1, -2, -1, 2, 2
1503943636716,-2, -3, -2, -1, 0, 0, 0, -1
1503943636741,-2, 0, -2, 2, -1, 1, -1, -3
1503943636761,4, -1, -5, -1, -2, 0, -1, 1
1503943636776,2, -4, -1, -2, -1, -2, -1, -1
1503943636799,-1, -1, -1, -1, 0, -1, -2, -1
1503943636821,-10, 0, 14, 3, 1, 0, -1, 1
1503943636836,-1, -3, -3, -1, -3, -1, -1, -2
1503943636859,5, 1, -2, -2, -5, -1, -1, 0
1503943636881,0, -2, -4, 1, 0, 0, 0, 1
1503943636896,-1, 0, -2, 2, -7, -2, 0, -3
1503943636919,1, 1, 5, -2, 0, 0, 1, 1
1503943636943,-4, -5, -6, 0, 2, -3, -5, -4
1503943636956,6, 5, -1, -1, 0, -1, 4, 3
1503943636979,-4, -2, -3, -1, 2, 0, -2, -1
1503943637001,-1, 1, 1, 2, 4, -2, -4, -4
1503943637017,-3, -2, -2, -2, -1, 1, -2, -2
1503943637046,3, 2, -1, -2, -3, -3, -1, -3
1503943637061,-2, -4, -2, -2, 1, 0, 0, -1
1503943637077,-4, -3, 0, -1, -2, 0, 1, -1
1503943637099,-2, -8, -1, 0, -1, -2, 0, 1
1503943637121,-1, 0, -3, -3, -3, 1, -1, 3
1503943637136,3, 1, -1, -3, -3, -1, -3, -4
1503943637159,-2, -4, 0, -1, -1, -1, 4, 0
1503943637181,0, 1, -2, 1, 1, 0, -2, -3
1503943637203,1, 2, -4, -3, 0, 0, -1, 1
1503943637219,-1, -3, -2, -1, 2, 0, 2, 0
1503943637241,-1, 5, 1, 2, 1, 0, 0, 0
1503943637263,0, -9, 2, 3, 1, -1, 0, 2
1503943637279,-1, -3, -1, -2, -1, -2, -1, 0
1503943637301,0, 2, 1, 1, -2, 0, -3, 1
1503943637323,2, 5, -4, -4, 1, 0, 0, 0
1503943637339,-3, -10, -1, -2, -4, -2, -2, -1
1503943637368,2, 0, 1, 0, 2, 3, 7, 2
1503943637391,-1, -7, -1, -2, -2, -4, -2, -3
1503943637414,-2, -2, -5, 0, -1, 0, 0, -1
1503943637421,-3, -1, -7, -3, 1, -2, -1, -2
1503943637447,3, -1, 0, 0, 5, 0, 5, 2
1503943637466,-4, 2, -1, -1, -5, 0, 0, -2
1503943637482,3, 4, -1, -2, 0, -1, -2, 0
1503943637503,-3, 2, -2, -3, -4, -1, -2, -1
1503943637519,-3, -7, 0, 0, -2, 0, -5, -1
1503943637541,16, 3, 0, 0, 2, 2, 2, 2
1503943637563,-11, -3, 2, 2, -1, 0, -2, 2
1503943637582,-3, -9, 0, 1, -1, -4, -4, -2
1503943637601,-2, 0, -4, -4, -2, -1, -1, -2
1503943637623,-2, -5, -3, -1, -2, 0, 0, 4
1503943637639,-3, -1, 0, 0, -1, -1, -2, -6
1503943637661,0, 7, -2, -2, 0, -1, -2, -2
1503943637686,5, 5, -1, -1, 1, 0, 1, 1
1503943637699,-11, 2, 4, 3, 1, 0, 0, 0
1503943637723,-8, -7, -6, -4, 0, -2, -2, 5
1503943637743,-3, 1, -4, -5, -3, 1, 0, -7
1503943637759,1, 0, 8, 1, -2, -5, -3, -5
1503943637785,0, -4, -3, -1, -1, 1, 0, 5
1503943637803,8, 2, -1, 1, -1, 0, 0, -4
1503943637819,8, -5, 2, 0, -1, 0, 2, 2
1503943637841,-6, -4, -8, -4, -3, 0, -1, -4
1503943637863,-4, 3, 1, 0, 2, 0, -3, -7
1503943637879,-1, -7, -3, -2, -2, -2, 1, 13
1503943637901,-7, 1, 0, 1, -1, -2, -1, -10
1503943637924,-4, 0, 7, 1, 0, -3, -2, -1
1503943637939,19, -3, -6, -5, -3, -1, -2, 4
1503943637961,-7, -5, -3, -1, -1, -2, 3, 3
1503943637984,2, 1, -1, 2, 0, 1, -2, -3
1503943637999,-2, -5, -1, -2, 0, 0, 1, 2
1503943638021,-4, -11, -3, -3, -1, 0, -2, -1
1503943638043,-4, 0, -2, 0, 0, -1, 2, 3
1503943638059,-3, 0, 1, 0, 0, 0, -4, -7
1503943638083,11, 2, 3, 1, 0, 1, -2, -4
1503943638103,-1, -1, -1, 1, -1, -2, 0, 1
1503943638126,0, 11, -11, -3, -1, -4, -1, -2
1503943638141,-5, -4, -6, -2, -1, -1, -2, -3
1503943638163,3, 0, 3, 1, 1, 0, -4, -17
1503943638186,-7, 1, 4, 0, -1, 1, 1, 9
1503943638201,-1, -5, -1, -2, -4, -1, 2, 5
1503943638217,-5, 0, -1, 2, -1, -1, -2, 1
1503943638231,7, 11, 3, 2, -1, 0, 1, 2
1503943638246,-7, -10, -7, 0, 2, -2, 11, -4
1503943638261,-5, 0, 0, -1, -1, 1, 1, 9
1503943638285,7, 1, -1, -2, -1, 0, -9, -4
1503943638305,-25, 5, -3, 0, -1, -1, -5, 2
1503943638321,4, -3, -8, -4, -2, 0, -6, -7
1503943638343,6, -2, 1, 2, 2, -1, -7, -7
1503943638366,-15, -2, 3, -1, -1, 2, 4, -4
1503943638381,17, 3, 3, 1, 0, 2, 0, 2
1503943638404,7, 12, 0, 1, 0, -2, -1, 2
1503943638426,-3, -3, 9, 0, -3, -1, -8, -5
1503943638441,-6, -11, -6, 0, -2, -1, 3, 4
1503943638464,-10, -2, 1, 0, 1, -1, -4, 3
1503943638487,4, 8, 11, -1, 2, 2, 3, -2
1503943638501,-14, -17, -12, -6, -5, -5, -4, -9
1503943638523,2, -9, -10, -5, -3, -2, 0, -1
1503943638546,-14, -3, 4, -2, -1, -1, 0, 5
1503943638562,10, 1, 7, 5, 2, 0, -1, 3
1503943638583,-9, -20, -11, -5, -2, -1, 2, -5
1503943638606,4, 20, 18, 4, 2, -2, -2, 0
1503943638629,-9, -2, -13, -5, -5, -2, -4, -13
1503943638643,14, 5, 1, 0, 2, 2, -1, 1
1503943638666,-14, -7, 1, 0, 0, -2, 2, 3
1503943638681,13, 10, -2, -2, -2, -1, -5, -3
1503943638703,-6, -1, -13, -5, -3, -1, -1, -3
1503943638726,8, 17, 7, 7, 2, -1, 1, 7
1503943638742,-1, -10, -4, -3, 3, 3, 1, -2
1503943638763,4, -3, 1, 1, 2, -2, -2, -3
1503943638771,9, -5, -8, -1, 1, 1, 0, 14
1503943638793,0, 3, -4, -1, -3, -1, -2, -4
1503943638815,4, 7, 1, 0, -2, -2, -3, -3
1503943638831,-15, -26, -3, 1, -1, -1, -3, -7
1503943638856,-11, -4, -7, -3, 0, 0, -2, -5
1503943638875,-13, -7, 0, -2, -4, -2, 0, 0
1503943638891,9, -12, 1, -6, -5, -3, -3, -2
1503943638913,12, 4, -3, -6, -1, -1, 1, -8
1503943638935,-1, 0, -3, -3, -1, -1, -1, 3
1503943638951,-14, 4, 1, -1, -10, 0, 2, -5
1503943638973,-1, 9, -1, 0, 1, 4, 2, 5
1503943638995,-4, -38, -19, -5, -2, -1, -1, 0
1503943639011,4, -4, 1, 1, 0, 0, 1, 6
1503943639033,-10, -3, -2, -2, 0, -6, -4, -10
1503943639058,3, 9, 2, 3, 3, 0, -1, -6
1503943639077,35, 21, 1, 0, 0, 0, 5, 39
1503943639093,-7, 16, -5, 2, 1, -1, -3, -31
1503943639115,7, 1, 4, 0, 0, 2, 0, -19
1503943639137,-17, -7, -2, -3, -7, -2, -2, -1
1503943639153,10, -3, 11, 2, 1, -4, -4, -2
1503943639175,-7, -8, -1, 0, 0, 1, 0, 6
1503943639197,-7, -12, 3, 1, 1, -1, -2, 5
1503943639213,-1, -7, -3, -1, 0, -3, -2, 10
1503943639236,4, 3, 1, 0, 1, 2, -1, 5
1503943639259,-24, -3, -5, -4, 0, -2, -1, -2
1503943639273,-19, -24, -14, -2, -4, -3, 0, -4
1503943639296,-11, 4, 6, 3, 2, 1, -4, -5
1503943639317,11, 12, 3, -2, -2, -1, 1, -5
1503943639334,11, 8, 2, -1, 3, -2, 1, 4
1503943639356,16, 9, -2, -1, -1, -2, -6, 3
1503943639377,1, 21, -1, 2, 0, 0, 1, 2
1503943639393,2, -4, 3, 0, -2, -1, 0, -3
1503943639416,-8, 6, 9, 0, 2, 1, -2, -3
1503943639437,17, 0, -2, -1, -2, -2, 0, -6
1503943639453,-12, -13, -4, 0, 0, 2, -3, 1
1503943639476,8, 27, 10, 5, 2, -1, -1, -2
1503943639497,-19, -5, -4, -4, -1, 0, 2, -2
1503943639513,-15, -12, -6, -2, 1, 0, 3, -4
1503943639536,-6, -5, 0, 1, -2, 0, -2, 2
1503943639557,6, -9, 0, -1, -1, -1, 1, 1
1503943639573,0, -4, -4, 0, -3, -3, 1, 3
1503943639596,1, 3, 9, 0, -1, 0, -3, 1
1503943639617,19, 28, 9, 2, -1, 1, -1, 1
1503943639634,-17, -27, -12, -6, -5, -4, -6, -4
1503943639656,-3, -4, -2, -1, -1, 0, 1, 0
1503943639677,-28, -1, 2, -1, 1, 1, -4, 0
1503943639686,2, -4, -1, 0, 0, -2, -1, 3
1503943639708,18, 5, 13, -1, -1, 2, -1, -2
1503943639724,-11, -7, -3, 0, -2, 1, 1, 0
1503943639746,-25, -3, -6, -2, -2, -3, -3, 2
1503943639768,27, -17, -2, -2, -1, 0, 0, 0
1503943639783,-9, 1, -1, -2, -4, -2, 0, 1
1503943639797,-5, -3, -4, -5, -3, 2, 1, 0
1503943639813,8, 10, 9, 1, 2, 1, 0, 1
1503943639836,-12, -1, -2, 0, -3, -1, -4, 5
1503943639857,-2, 18, 0, -1, 0, 2, 2, -1
1503943639873,-6, 25, 0, -3, -1, 1, -2, -7
1503943639896,0, -1, -1, 0, -3, 0, 2, 2
1503943639904,22, 9, 3, 0, -3, -1, 1, 0
1503943639926,-19, -7, -5, -4, -4, -4, -5, -7
1503943639948,-16, -13, -12, -10, -7, -1, -3, -7
1503943639964,26, 11, 7, 0, 1, 0, 4, 4
1503943639986,4, -6, 8, 1, 2, 1, -1, 9
1503943640008,-2, 10, -17, -4, 3, 3, 3, -3
1503943640031,-3, -23, -11, -1, -3, -3, -4, -3
1503943640045,17, -3, 4, -1, 1, 0, 0, 14
1503943640071,-7, -1, -2, 0, 1, 0, 0, -7
1503943640090,6, 12, 1, 1, 0, -1, -5, -5
1503943640106,1, 17, 9, 2, 1, -2, -2, -2
1503943640128,1, -7, -5, -6, -4, -1, 0, 6
1503943640150,4, 10, 12, 1, -2, -1, -3, -2
1503943640157,4, -10, -2, -2, -1, 0, -1, 3
1503943640180,-7, -9, -7, 0, -3, -1, 0, -3
1503943640196,-7, -2, -4, -14, -13, -11, -13, -12
1503943640217,2, -8, 3, 7, 6, 5, 4, 5
1503943640240,1, 4, 8, 1, 1, -1, 1, -1
1503943640255,-5, -3, -4, 4, 1, 1, -1, 2
1503943640277,-10, -29, -7, -4, 0, -1, 0, -2
1503943640300,-2, -2, 2, -1, 0, -2, 0, 4
1503943640316,5, -4, -6, -3, -2, 1, -1, 3
1503943640337,1, 16, 5, 1, -5, 0, -1, -2
1503943640362,3, -5, -3, -5, 0, -1, 0, 0
1503943640376,0, 24, 1, 1, 1, 0, 1, -1
1503943640400,8, -2, -2, 1, 0, -1, -1, -1
1503943640420,9, -6, 6, 0, -1, -2, 0, 1
1503943640436,-2, 5, 6, 1, 2, 0, 0, 0
1503943640457,-5, 2, -2, 2, 0, -2, -2, 0
1503943640480,-6, -12, -6, -4, -2, -2, -1, -3
1503943640496,-1, 4, 0, 0, 0, -2, 0, -1
1503943640517,-3, -5, -2, -2, 2, 1, -1, -2
1503943640540,-4, -2, 8, -3, -3, -1, 0, -1
1503943640556,1, -16, -7, 1, 0, -1, -2, -2
1503943640578,-2, -9, -3, -2, -1, -1, 2, 0
1503943640602,1, 5, -1, 0, -5, -2, -1, -1
1503943640616,0, 10, 1, 2, 0, 0, 1, 1
1503943640638,-2, 12, -5, -1, 1, 1, -3, -3
1503943640660,0, -4, 10, 0, 0, -2, -1, -2
1503943640676,-1, 3, -3, -3, -1, -1, -2, 0
1503943640697,0, 7, 5, 3, -1, -1, -2, 0
1503943640720,0, 0, -7, -1, 0, 0, 0, -1
1503943640736,-7, 5, 1, -3, -1, -2, -2, 2
1503943640757,-9, -12, -4, -2, -1, -2, -1, -4
1503943640780,3, 5, 10, 1, 1, 0, 1, 0
1503943640796,-4, -17, -13, -5, -1, -4, -4, -1
1503943640817,0, -10, -6, 1, -1, -1, 2, -1
1503943640841,0, 2, 0, 1, -1, 0, 0, -1
1503943640855,-4, -8, -13, -6, -2, -2, -1, 2
1503943640871,-1, -12, 2, -1, 0, 2, -1, -2
1503943640885,-4, 14, -1, 0, 1, -3, -2, -3
1503943640908,-3, -16, -4, -2, 0, -2, 0, 0
1503943640931,0, 5, 1, -1, -4, -2, -2, -1
1503943640953,-3, 0, 0, -2, 1, -1, 0, 0
1503943640970,-8, -10, -4, 0, -1, 0, -2, -3
1503943640991,7, 6, 5, 0, 0, 0, -1, -4
1503943641013,0, -3, -2, -2, -1, -1, 1, -3
1503943641028,-2, -4, -1, -1, 1, -2, -1, 3
1503943641051,8, 31, 24, 4, 0, 1, 0, -1
1503943641073,-6, -23, -10, 1, 1, 1, -2, -1
1503943641089,-1, -3, -8, -2, -2, -1, 0, 2
1503943641111,-4, 2, 1, 0, -1, -1, -3, -6
1503943641133,-2, 0, -3, -1, -1, -1, -1, 0
1503943641148,9, 14, 1, 0, 0, 0, 0, 3
1503943641172,-4, -6, -3, 0, -1, 0, 2, 1
1503943641193,-1, -11, -6, -3, -2, -2, 0, -2
1503943641209,0, 11, 11, 0, 0, 0, -2, 0
1503943641231,-2, -6, 1, -3, -1, -1, 0, 0
1503943641253,-2, -11, -6, -1, 2, -1, -1, -1
1503943641268,4, -5, -3, -3, -2, 1, -1, -3
1503943641290,-5, 2, 1, -1, -2, -1, -1, 0
1503943641313,1, 4, 4, 3, 0, 1, -1, -2
1503943641328,0, 0, 9, 0, 0, 0, -1, 0
1503943641351,0, 11, -11, -4, -3, -2, -1, 0
1503943641373,-8, -12, -3, -4, -1, -2, -1, -1
1503943641388,2, -15, -7, -1, 0, -3, -1, 1
1503943641404,-1, -3, -7, -4, -3, -3, 0, -3
1503943641419,-1, -8, -3, -2, 0, 0, 1, 2
1503943641441,-2, -2, -2, 1, -2, -1, -2, -2
1503943641464,-2, 8, 2, -1, -1, 1, -2, 0
1503943641479,3, -18, -2, -3, 0, -2, 1, 0
1503943641501,-3, -9, 1, 1, 0, -2, -2, -1
1503943641524,2, 2, -4, -2, 1, -1, 1, 2
1503943641542,0, 3, 5, 2, 2, 1, -1, -1
1503943641561,0, -17, -2, -2, -3, -2, 0, -2
1503943641588,-3, 4, -4, -1, -2, -1, -1, -2
1503943641599,-2, -3, 10, 1, 1, -1, -2, -1
1503943641621,2, 3, -5, -2, -4, -1, -2, 0
1503943641644,-1, -6, -5, -2, 0, -1, 1, -3
1503943641666,-4, -1, -1, 0, -1, -2, -1, 2
1503943641677,0, 2, 12, -1, 0, -1, -1, -3
1503943641688,-1, -7, -9, -2, 0, -2, -3, 0
1503943641711,0, -6, 1, 1, 0, -1, 0, -1
1503943641726,-4, -5, -4, 0, -1, -1, -1, -3
1503943641743,2, 2, 3, 2, 0, 2, -4, 0
1503943641764,-1, -1, -6, -3, 1, 1, 0, -1
1503943641785,0, 2, 2, 0, -1, 0, 0, 0
1503943641801,-1, 2, 0, 0, -2, 2, 2, 0
1503943641823,0, 4, -1, -1, 0, -2, 1, 0
1503943641846,0, -4, 2, -3, -2, 2, -2, -2
1503943641861,6, -1, 9, 2, -1, 0, -2, -1
1503943641877,-2, 1, 5, 0, -1, -1, -1, 2
1503943641891,-5, -17, 11, 1, 0, 1, 0, -2
1503943641913,0, -7, -12, -3, -2, -1, 0, 2
1503943641935,5, 4, 4, -1, 0, 2, -2, -1
1503943641951,11, 6, -4, -5, -4, -4, 0, 3
1503943641974,2, -4, -4, 0, 0, 2, 3, 2
1503943641996,-4, 6, 5, 1, 0, 2, -1, 2
1503943642011,-8, -11, -8, -3, -2, -2, 0, 1
1503943642033,-3, 0, -2, -1, 0, -2, -2, -4
1503943642056,0, 3, -6, 1, -1, -2, -2, -3
1503943642070,-5, -15, 2, 2, -1, 0, 1, 0
1503943642086,2, 3, 1, 0, -2, 0, -1, 2
1503943642101,-5, 1, -6, -3, 1, 0, -1, 0
1503943642123,2, 15, -2, -1, -4, -2, -2, -1
1503943642146,-3, -7, -4, 0, 0, 2, 2, -2
1503943642161,-5, -5, 0, 1, 0, 1, -2, -2
1503943642185,0, 4, -1, -2, -1, -2, 1, -2
1503943642206,4, 2, 0, 2, -1, -2, -1, 0
1503943642221,-2, 18, 4, -2, 1, 0, 0, 2
1503943642236,0, 4, -2, -2, -1, -1, 0, -1
1503943642251,-4, -4, -2, 0, -2, -3, -2, -3
1503943642273,-3, -5, -10, -2, 0, -1, 1, -6
1503943642296,2, 33, -6, -3, -3, -3, -3, 12
1503943642313,-1, -16, -4, -2, -1, 1, 1, -10
1503943642333,-4, -3, 3, -1, -1, 2, -1, 2
1503943642356,2, -2, 6, 0, 0, -1, -2, 0
1503943642370,-3, -10, -6, -2, 0, 0, -1, 0
1503943642393,-4, -11, 1, 3, 0, -1, -1, -2
1503943642416,4, 14, 7, 2, -2, -3, 1, 2
1503943642430,5, -1, 0, 0, -4, 2, -1, -1
1503943642453,-2, -15, -2, -1, 1, -2, -1, 1
1503943642476,-6, -1, -2, -1, -2, -1, 1, -6
1503943642490,-2, -14, -3, -2, 1, 2, 0, 4
1503943642514,-2, 6, 0, 1, -1, 1, 0, 2
1503943642535,-2, 1, -1, -5, -2, -1, -3, -5
1503943642566,-1, -4, 6, 0, 1, 1, -1, -2
1503943642582,1, 17, 20, 3, 1, -2, -1, 0
1503943642603,-2, 2, 1, -1, -3, -2, -2, -3
1503943642626,2, -1, -9, -4, -1, 2, -2, 1
1503943642641,-3, 21, 1, 4, 0, -2, 0, 1
1503943642663,-8, -20, -9, -4, 0, 0, 0, 0
1503943642686,1, -8, -5, -1, 1, -2, -1, -4
1503943642701,1, 1, -3, -1, -3, -1, 0, -1
1503943642724,-6, -5, 0, -1, -1, 1, 0, 0
1503943642746,0, 10, 1, 1, 0, -3, 0, 1
1503943642761,0, 1, -5, -3, -1, -4, 0, -1
1503943642783,2, 2, 2, 1, -2, 3, -1, -4
1503943642806,-1, 3, -2, -1, -1, -3, 0, -1
1503943642828,0, -8, -5, -1, 1, 0, -2, 0
1503943642843,-3, -12, -1, -1, -1, -3, 2, 2
1503943642866,0, -6, 1, -3, -2, 0, 0, -2
1503943642873,3, -13, -2, -2, -2, 1, -2, -4
1503943642895,-8, -15, 3, 1, 1, 0, 0, -2
1503943642918,0, -12, -1, -2, 1, -1, -1, -2
1503943642933,-1, 11, -2, -2, -1, 0, 2, -1
1503943642955,2, 7, -1, -1, -2, -3, -2, 1
1503943642978,2, 4, -2, 0, -2, 1, -2, -1
1503943642993,-2, 3, -4, 1, 2, 0, 2, 1
1503943643017,4, 1, 1, 1, 1, 2, 0, -1
1503943643023,-4, -3, -2, -2, 0, -2, -1, -1
1503943643046,0, -18, -7, -2, 1, 0, -3, 2
1503943643068,0, -3, -1, 0, 0, 0, -1, 2
1503943643088,4, -1, 11, 1, -1, -1, 0, 0
1503943643106,7, 12, -8, -3, -3, -1, -1, 0
1503943643128,-5, 9, 5, 2, 1, -1, -1, -4
1503943643143,-1, -4, 2, 0, -1, -2, 0, -2
1503943643166,-2, 1, 4, 1, 0, -1, 1, 1
1503943643188,-2, -17, -12, -2, -1, 1, 0, 3
1503943643204,-6, -3, 0, -1, -2, 1, -4, -1
1503943643226,-1, 2, 0, -1, -2, -1, -1, -4
1503943643248,1, 8, 2, -2, -2, -1, 0, 5
1503943643256,0, -5, 3, 2, 0, -4, 2, 0
1503943643278,1, 3, -6, -4, -1, -2, -6, -2
1503943643293,-1, 4, -3, 2, 0, -1, -1, -5
1503943643315,-1, 0, 2, 1, -2, 0, -1, -3
1503943643338,1, 6, 19, 2, 0, 0, 0, -2
1503943643358,-1, -2, -3, -1, 0, -2, 0, 1
1503943643375,2, 2, -7, -3, -1, 0, -1, 0
1503943643398,-5, -12, -3, -1, -3, 0, 2, 2
1503943643413,0, -13, -4, 1, -1, -4, 0, -2
1503943643435,5, 3, 0, -4, -1, -1, 0, 3
1503943643458,-5, 2, -2, 0, 1, -2, 0, -3
1503943643473,6, 13, 11, 4, -1, 1, 0, -3
1503943643496,-1, -1, -4, -2, -3, 0, -4, -2
1503943643518,-6, 13, -4, -4, -1, -2, 0, 0
1503943643533,-3, -7, -3, -3, 1, 0, -1, 0
1503943643556,1, -10, -1, 0, 0, 2, 0, 2
1503943643578,-2, 6, 3, -3, 0, 0, -2, -1
1503943643593,-1, -6, -1, -1, -2, 1, 1, 0
1503943643616,0, -9, -2, -4, -1, -4, -4, -2
1503943643638,-2, -12, -1, 1, 0, 0, 1, -3
1503943643661,0, 2, -5, -1, -2, 0, -1, 1
1503943643675,-1, 5, 0, -1, 0, -1, 1, -3
1503943643698,0, 9, -1, -1, -1, 1, -2, -1
1503943643720,1, 13, 0, 0, 1, 0, -1, -1
1503943643736,-4, -16, 4, 0, -1, -2, 1, 2
1503943643760,3, 1, -3, -1, 0, -4, -2, -1
1503943643780,-2, -1, 12, 2, -1, 1, -1, 0
1503943643813,-2, 4, 13, 0, 1, 0, 1, 1
1503943643849,-2, 4, 3, -1, 0, 2, 0, 1
1503943643870,-5, -6, 3, -1, -2, -1, -1, -2
1503943643886,-1, 2, -8, -4, -1, -1, -2, -2
1503943643908,1, -6, -3, -1, 0, -2, -1, 0
1503943643930,1, -6, -3, 0, -3, -1, -3, 0
1503943643946,-1, 5, -7, -1, -3, 2, -1, -2
1503943643968,-1, 11, 3, 0, 1, -2, 0, -1
1503943643991,-2, -7, -3, 0, -1, 0, -1, 2
1503943644006,0, -4, 1, -1, -2, -3, 0, 1
1503943644028,0, 0, -2, -1, 0, 0, -1, -2
1503943644050,1, 31, 3, 0, 0, 1, 1, 2
1503943644067,-5, -15, -3, -3, -1, 1, 0, -1
1503943644088,-4, -7, -6, -5, 0, 1, -4, -5
1503943644111,-1, -1, 7, 2, -1, -1, 1, 1
1503943644129,0, 4, -5, -2, -2, -3, 0, 0
1503943644149,3, 10, 4, 1, 0, -1, -1, -3
1503943644170,-2, -12, 2, 2, 1, 0, 1, -4
1503943644186,1, -7, -2, 0, -3, -2, -1, 2
1503943644208,2, 15, -6, -1, 1, -2, 0, 0
1503943644216,-2, -16, -9, -2, -3, 1, -1, 0
1503943644238,-1, 5, 3, 1, 2, 0, -3, 0
1503943644261,-5, -13, -7, -1, 0, 0, 2, -4
1503943644268,-5, -2, 0, -2, 0, -4, 1, -3
1503943644290,-5, 0, 4, -2, -1, -2, -3, -2
1503943644306,-1, 22, 0, -1, 0, -3, 0, -1
1503943644320,1, 5, 4, -2, -4, 1, 0, -3
1503943644336,-3, 10, -8, -1, -3, -4, -2, -1
1503943644364,-1, -7, 1, 0, -1, -1, -2, -1
1503943644380,0, 2, 7, 5, 2, 1, 0, -4
1503943644397,-3, 5, 2, -4, -1, 1, -2, 4
1503943644418,-2, 7, -6, 0, -1, 0, -2, -1
1503943644440,0, 3, -11, -3, 1, -3, -1, 0
1503943644455,1, -12, -1, -5, -2, 0, 2, -2
1503943644478,1, 2, 0, 1, 0, -4, -1, -1
1503943644500,-5, -5, 3, 2, -1, 2, 0, 0
1503943644515,5, 3, 1, 3, 0, 0, 2, 0
1503943644538,-2, 21, -2, -5, -1, 1, -2, -2
1503943644563,-3, -11, -1, 2, 2, -3, 0, 2
1503943644575,-3, 3, -2, -4, -4, -2, -2, 1
1503943644598,-2, -12, 2, 1, -1, 0, -3, 0
1503943644620,-2, 15, 4, 1, -1, 3, -1, -2
1503943644635,-2, -5, -5, -4, -1, -1, -1, 0
1503943644658,-2, -15, -6, -1, 1, -1, 1, -3
1503943644680,-1, -9, -3, -3, 0, 1, -1, 1
1503943644702,-2, 11, -4, -3, -2, -2, -1, -2
1503943644718,2, -17, 0, -2, -5, -2, 0, 0
1503943644740,-5, 4, -1, 2, -1, 0, 0, -1
1503943644764,-1, -4, 5, 7, -2, 0, -4, -1
1503943644778,-3, 5, 8, -2, 4, -2, -1, 1
1503943644800,3, -2, 8, 2, 1, 0, 2, 0
1503943644822,-1, -8, -5, -1, -5, -3, 0, 0
1503943644839,0, -2, 6, -3, 1, -1, 0, 2
1503943644859,3, -1, -8, -2, 2, 3, -1, -1
1503943644882,-1, 2, 2, 0, -5, -4, 0, -1
1503943644898,0, 1, 0, 1, 3, 2, 0, -3
1503943644920,1, 2, -3, -2, 1, -2, -1, -6
1503943644942,-1, 7, 1, -2, -2, -1, -1, -5
1503943644958,-1, -4, -4, 0, -1, 0, -1, -2
1503943644980,3, -23, -6, -3, 0, -1, -3, 2
1503943645002,3, 15, 17, 3, -1, 0, 0, 1
1503943645018,0, -2, -8, -3, -2, -1, -1, -2
1503943645040,-4, -1, -8, -1, -2, -1, 2, -1
1503943645062,2, -7, -5, -2, -1, -1, -3, -1
1503943645078,-1, -5, -1, 0, -2, -2, 0, 1
1503943645100,-1, 6, 3, -1, 1, -2, -1, -2
1503943645122,4, 9, -3, -1, -1, -1, 0, 3
1503943645145,-8, -6, 1, 2, -2, -2, 1, 0
1503943645160,-6, -10, -2, 0, -1, -1, 0, -3
1503943645182,-1, 20, 7, -1, 2, -1, -3, -1
1503943645191,-1, -4, -8, -4, 1, -1, -2, -2
1503943645213,-17, 3, -7, -3, 0, 0, 1, 3
1503943645220,18, 0, -3, -4, 1, 2, 0, 1
1503943645243,11, 2, -6, -2, -3, -2, -3, -4
1503943645258,3, 10, 4, -1, -1, 0, 2, 2
1503943645280,8, -5, -3, 1, -1, 0, -1, -3
1503943645304,4, -4, -1, 1, -1, 0, -3, -7
1503943645318,-3, 2, 2, 4, -1, -1, -1, 2
1503943645340,-1, -6, 11, 0, -1, -1, -1, 2
1503943645362,-1, -3, -4, -4, -2, -2, 2, -1
1503943645378,-2, -8, 7, 1, 2, 0, -4, -1
1503943645404,1, -3, -8, -2, -4, -1, -1, 0
1503943645422,2, -11, -2, 1, -2, -2, -6, -3
1503943645438,-2, -6, -4, -2, 0, 3, -1, 0
1503943645460,0, 2, -2, 1, -1, -3, 0, -2
1503943645482,-7, -2, 7, -2, -2, 0, 1, 0
1503943645498,-3, -7, -5, -3, 1, 2, -1, 0
1503943645520,0, 5, -4, 0, 0, 1, 0, -1
1503943645542,2, 3, -2, -1, 0, 3, -1, 0
1503943645558,0, 1, -1, -2, 3, -4, 0, 1
1503943645580,-1, -2, -6, -1, -1, -16, -1, 0
1503943645611,-2, 8, 6, 1, 1, -4, 0, -2
1503943645625,-3, 2, -6, -2, -3, 0, -2, 0
1503943645641,-1, -3, 0, 0, 0, 2, 0, -3
1503943645662,-1, 2, -4, -2, -2, 0, 1, 0
1503943645685,-2, -10, 3, -2, 1, 2, 2, 2
1503943645700,2, -1, 0, 0, -2, 4, -3, -3
1503943645722,-2, 1, -2, -1, -1, -1, -1, -1
1503943645747,0, 2, -1, -2, -3, -2, -1, -2
1503943645761,0, 3, -3, -1, -1, 1, 1, -3
1503943645782,-3, -5, 0, 0, -1, -2, -2, 3
1503943645806,-2, 5, 1, -1, -1, 0, -3, -1
1503943645820,0, -5, 2, -1, -2, -1, 1, -2
1503943645843,2, -6, -4, -2, -3, -5, -3, 1
1503943645865,-4, -2, 1, -2, 2, 1, 0, -2
1503943645881,-4, 2, -1, 0, -1, 0, -1, -1
1503943645902,0, 0, 1, -1, 0, 1, -2, 0
1503943645912,-1, -4, 1, 0, 0, 1, 0, 0
1503943645933,-7, 6, -4, 0, -3, -3, -2, 0
1503943645956,3, 2, 3, -3, -1, -3, -1, -1
1503943645971,2, 4, 5, 1, 1, -1, 1, 0
1503943645993,-5, -6, -2, -3, -3, -1, 0, -2
1503943646015,-3, -2, -1, -1, 2, -3, -2, -2
1503943646030,0, -4, 0, 0, -2, -1, -3, 1
1503943646053,-1, -5, -3, 0, -1, 1, 0, -1
1503943646076,-4, 0, 2, 1, 0, -1, 1, 0
1503943646090,1, -2, -1, -2, -1, 2, -1, 1
1503943646113,2, 2, 2, -2, 2, -2, 1, 0
1503943646135,0, 0, -2, -1, -4, -1, -2, -2
1503943646150,-6, -4, -3, -1, 2, -3, -2, -3
1503943646173,-5, -11, -5, 0, 0, 2, -1, 0
1503943646195,3, 4, 1, 21, 9, 2, 2, 0
1503943646211,-5, 0, -4, -11, -5, -2, -3, -4
1503943646233,3, -1, 4, -2, 1, -1, 0, -2
1503943646255,-1, 3, 1, 8, 1, -3, 0, 1
1503943646270,-4, -1, -1, -1, -1, 0, -2, -4
1503943646293,2, 1, -7, -15, -5, -14, -23, 1
1503943646316,-1, 2, 2, -6, -2, 2, 4, 0
1503943646330,-4, -4, 0, 10, 10, 5, 3, 5
1503943646348,-3, -2, -3, -5, -10, -3, -5, -7
1503943646368,-1, -8, -1, -2, -3, 3, 1, 1
1503943646390,2, -1, -2, 2, -1, -1, 3, 5
1503943646408,4, 6, 4, 24, 18, 5, 1, 2
1503943646428,2, 1, 1, -5, -4, -1, -7, -3
1503943646445,0, -3, 0, -7, -4, -1, 0, 3
1503943646466,-6, -3, 1, -4, -6, -2, -1, -1
1503943646488,-1, 1, -3, -4, -5, -2, -1, -1
1503943646503,0, -2, -1, -3, -2, -1, 0, -1
1503943646526,0, 3, -2, -3, 0, -2, -5, -1
1503943646549,-9, -6, 0, -1, 0, 0, -1, -4
1503943646563,-1, -3, -2, 0, -3, -1, -2, -4
1503943646586,2, 5, -1, -1, -1, -3, -1, -2
1503943646616,-2, -7, -3, -1, 1, -1, 1, 1
1503943646638,-1, -2, -4, 0, 0, -4, -1, 0
1503943646653,-5, -9, 4, 1, -1, -1, -1, -2
1503943646677,-1, -9, 0, 0, 1, 0, -2, 1
1503943646698,4, -7, 4, 2, 0, 1, -1, 2
1503943646713,-9, -7, -11, 1, -1, -3, 0, -6
1503943646735,-2, 5, 0, 1, 2, -3, 0, -3
1503943646758,0, 28, -6, -3, -2, 4, -2, -1
1503943646773,2, -1, 3, -1, -3, -1, 0, 1
1503943646795,-2, 2, -1, -3, -2, -2, -2, -2
1503943646818,-9, 0, 0, 2, 1, 1, -1, -5
1503943646833,8, -3, -5, -3, -1, -1, -2, 3
1503943646855,-12, -23, -3, -4, -3, -4, 0, -5
1503943646878,5, 6, 0, -1, -2, -1, 0, 2
1503943646893,5, 2, 2, 0, 0, -2, -3, 0
1503943646917,1, -3, -2, -1, -1, -2, -3, 1
1503943646938,3, 13, 6, 1, 0, -2, -2, 0
1503943646954,-3, 1, -2, 1, -2, 5, 2, 2
1503943646975,0, -5, -6, -1, 1, -2, -2, -2
1503943646998,4, 4, -4, -3, 1, -2, -3, 2
1503943647013,-8, -17, 3, -3, -3, 0, 1, -1
1503943647035,1, 0, 3, 1, -3, -1, -2, 5
1503943647058,6, 6, 3, -1, 0, -2, 0, -4
1503943647073,-5, 24, 4, -1, 0, -1, 3, -5
1503943647096,0, -13, -6, -5, -3, -1, -4, 0
1503943647118,-6, -4, -1, 1, -1, 0, 2, 0
1503943647133,-10, -1, 6, 3, 0, 0, -3, 2
1503943647155,4, 0, 14, 2, -1, 1, 0, 3
1503943647164,8, 9, 21, 3, 0, 1, -1, 7
1503943647186,3, -2, -1, -1, -1, 1, 4, -3
1503943647208,-4, -11, -6, -2, -1, -6, 1, -1
1503943647230,-9, -21, -8, -2, -2, 4, 2, 2
1503943647248,6, -4, 2, 1, -2, -2, -3, 1
1503943647268,7, 42, 17, 8, 1, 2, 2, 4
1503943647284,5, -7, -7, -3, -1, -1, -5, -13
1503943647306,2, -8, -8, -4, -1, -2, -4, -1
1503943647328,-8, -2, -4, -1, -2, -1, -1, -2
1503943647343,0, -4, 4, -4, -3, 2, 3, 6
1503943647366,-3, -13, -8, -2, 1, -4, 1, 4
1503943647388,0, 6, 0, -2, -2, -2, -2, -2
1503943647403,-6, -16, -1, -1, -1, -1, -2, -2
1503943647426,11, -1, -3, 0, 1, 0, 2, 7
1503943647433,0, -6, -1, -1, -1, -3, -1, 0
1503943647455,5, 21, 3, -3, 1, -1, 2, 1
1503943647478,2, -15, -9, -5, -3, 0, -4, -6
1503943647500,3, -15, -13, -3, -3, -3, 0, 0
1503943647516,6, -7, -1, -3, 0, 0, 1, 2
1503943647538,7, 7, -5, 0, -2, 0, 0, -2
1503943647561,-11, -67, -13, -6, 0, -3, 0, -9
1503943647575,10, 41, 69, 18, 7, 0, 1, 8
1503943647598,-13, -14, -25, -6, -4, -2, -3, -1
1503943647620,3, 9, -6, 0, 0, 2, -1, -3
1503943647635,-1, 13, 0, -2, -1, -1, -1, 1
1503943647651,-6, 0, 6, 0, -4, -2, -4, -6
1503943647673,3, 34, 19, 4, -1, 0, -3, -4
1503943647696,2, 0, 3, 0, -3, -2, 0, -4
1503943647718,3, -4, -3, -3, 0, -2, -3, 7
1503943647740,-8, -8, -6, -4, -2, 0, 0, -1
1503943647755,-10, 9, -5, 0, -2, 0, 1, -11
1503943647778,-4, 2, -13, 0, 1, -3, -3, -4
1503943647800,16, -5, -3, -2, -3, -3, -2, 1
1503943647818,-5, -34, 5, 2, 1, 2, -1, -18
1503943647838,-6, -3, 3, -1, -1, 1, 0, -30
1503943647862,14, 4, -2, 1, -1, -1, 1, 8
1503943647877,-6, 5, -1, -3, -4, -1, -2, 12
1503943647898,-3, 10, 5, 2, 2, 2, 4, 5
1503943647921,1, 13, 1, 0, 0, -3, -4, 6
1503943647935,-7, -9, -7, -5, -4, -1, -3, -2
1503943647953,-12, 13, 18, 2, 1, -2, -5, -8
1503943647966,-1, -8, -4, -1, -1, -3, -2, -7
1503943647988,2, -1, -1, -1, -1, 1, 0, -14
1503943648010,-1, 2, 10, 4, 1, -1, 0, -3
1503943648026,5, -1, -5, -5, -4, 0, 1, -7
1503943648050,5, 2, 5, -1, 1, 0, -2, 1
1503943648070,1, -8, -6, 0, 1, -1, 1, 3
1503943648087,10, 1, -4, -1, -4, 1, 0, 14
1503943648108,-8, -2, -7, -3, -3, -3, -2, -1
1503943648130,4, 22, 17, 5, 4, 2, -4, -33
1503943648146,-2, 4, -16, -4, -2, 1, 5, 6
1503943648168,19, 7, 3, 2, -1, 0, -3, 10
1503943648191,-11, 2, -3, -5, -1, -2, 0, 1
1503943648206,-6, -18, -7, -1, -1, 0, 2, 14
1503943648229,-4, -4, -14, -4, -3, -4, -1, 0
1503943648251,-7, -15, -5, -4, 0, 0, -2, -3
1503943648266,-3, -2, 1, 3, 0, -2, -2, -2
1503943648288,-9, -11, 3, 2, -2, 1, 1, -3
1503943648313,4, 5, -2, 1, 2, 0, -1, 3
1503943648326,0, -3, 5, -1, 0, -2, -4, -4
1503943648364,5, 30, -8, -3, 1, -1, 0, -4
1503943648380,14, -1, -2, 2, -1, 1, -1, 11
1503943648400,5, -9, -5, -3, -3, -2, 2, 1
1503943648425,-19, -18, -4, -4, -2, 2, -2, -4
1503943648438,-9, 24, 7, 2, 1, 1, 0, 2
1503943648461,8, 18, 28, 6, 2, -1, -3, -4
1503943648483,-16, -20, -9, -2, 1, -3, -1, -2
1503943648498,10, -4, -6, -3, -3, 0, 1, -2
1503943648523,-4, 1, -2, 0, 3, 0, -2, -8
1503943648543,3, 2, -6, -4, -2, 2, 0, -2
1503943648559,8, 10, 10, 1, 0, -1, -1, -6
1503943648580,-5, -8, -3, 2, 0, -2, 0, 16
1503943648603,5, -1, 0, 0, -2, -2, -2, 0
1503943648618,-2, 12, 2, 4, 2, 0, 2, -3
1503943648640,2, -13, -7, -4, -2, -2, -3, -1
1503943648663,1, -12, -8, -3, -4, -2, -2, -3
1503943648678,9, -7, 1, -2, 0, 1, 4, 0
1503943648700,-12, 4, 3, 0, 1, 0, -3, 0
1503943648726,2, -7, -1, -1, -1, -1, 2, 0
1503943648738,-14, -4, -3, -1, -1, 1, -5, -8
1503943648761,10, 3, -9, -3, -1, -3, -4, -2
1503943648783,1, 7, -1, -2, -2, -1, 0, 2
1503943648798,-7, -13, -3, 0, -1, -4, -3, 5
1503943648820,-13, 1, 4, 1, -1, 2, -1, 3
1503943648829,3, 10, 5, 2, -2, -1, 1, 4
1503943648851,4, -5, -6, -3, 2, -2, -4, -1
1503943648873,0, -3, 0, 1, 2, -1, -3, -1
1503943648888,3, -3, 1, 3, 2, 0, 0, 5
1503943648911,6, 6, 1, 3, 3, 1, 0, -2
1503943648933,3, 2, 6, 1, -1, 0, -2, -1
1503943648948,1, -5, -7, -4, -3, -2, -1, -2
1503943648971,-5, -5, -1, -2, 0, -2, -3, -5
1503943648993,-7, 2, -4, -3, -4, -1, 2, -3
1503943649008,-2, -4, 1, -2, -2, -1, -1, 4
1503943649031,-10, -11, -6, -3, -1, -1, 1, -1
1503943649053,4, 17, 9, -1, -1, -1, 2, 4
1503943649068,4, -6, -1, -1, 1, -1, -3, 2
1503943649091,-6, -1, -3, -2, 1, -1, -1, -5
1503943649098,-7, -9, 2, 0, -1, 0, 1, -5
1503943649120,-7, -6, 1, 3, 1, 1, -3, -2
1503943649143,4, 2, 0, -2, 0, -4, -3, 2
1503943649158,-1, 5, 2, -3, -1, 1, -2, -3
1503943649188,-10, -1, -9, -2, 1, 0, -2, 1
1503943649211,8, 3, 11, 12, 7, 5, 4, 2
1503943649233,-14, -7, 5, 0, -4, -4, -6, -8
1503943649248,-4, -5, 1, -4, -2, -2, 1, -3
1503943649275,0, 4, 0, 0, -2, -3, -7, -4
1503943649293,11, -5, 15, 4, 3, -2, -2, -2
1503943649308,1, -9, -10, -7, -4, -2, 1, 9
1503943649331,12, -11, -8, -2, 0, 3, 1, -7
1503943649353,-1, 18, 9, -1, -1, -1, -1, 3
1503943649375,0, 3, -7, -4, -5, -1, -3, 1
1503943649391,-8, -1, -5, 0, 1, -1, 0, -10
1503943649412,-8, 2, 0, -4, -1, -2, -5, -12
1503943649420,2, 10, -3, -5, -3, 1, 0, 3
1503943649443,-4, -1, -3, 0, 0, -1, -1, -2
1503943649465,6, 50, 20, 3, 3, 2, -1, -1
1503943649480,1, -11, -9, -3, -2, -3, 1, 13
1503943649503,-3, -8, -3, 2, 1, -1, -4, -2
1503943649525,-3, 7, -12, -2, -3, 0, 0, 0
1503943649540,-10, -21, -9, -4, -4, 0, 0, -2
1503943649564,-2, -18, -7, -3, 0, 0, 1, 1
1503943649585,-2, 3, -2, -3, 0, -3, -1, -5
1503943649600,7, -18, 9, 2, -3, -1, 1, 1
1503943649623,-8, -14, -14, -10, -7, -4, -6, -4
1503943649645,11, 20, 19, 8, 5, 5, 4, 6
1503943649660,-2, 2, -5, 2, 1, -2, -3, -6
1503943649682,-2, -1, -5, -3, -2, -1, 0, -6
1503943649704,-8, 19, 5, -4, -2, -2, 0, -2
1503943649720,4, -8, 4, 3, 2, -3, -4, 0
1503943649742,0, 14, 16, 0, 0, 0, 3, 6
1503943649765,-8, -9, -9, 0, -1, 2, 1, -3
1503943649780,-6, -21, -5, -2, -3, -1, -2, -5
1503943649803,-1, -8, -7, -4, -2, -3, 2, -1
1503943649824,-3, -6, -4, -4, -1, 1, -4, -2
1503943649841,-2, 6, -3, 0, 0, -2, -4, -6
1503943649863,0, 3, -5, -3, -2, 0, 4, 6
1503943649884,7, 26, 15, 7, 0, 0, -2, -4
1503943649900,-1, -8, -3, -4, -1, -1, 0, 4
1503943649923,-4, -13, -7, -3, -2, -1, -1, -2
1503943649945,9, 3, -8, 0, -3, -3, -1, 1
1503943649960,-2, -2, 8, 2, 1, 2, 2, 1
1503943649983,-2, -7, -2, -1, 0, -1, -1, -4
1503943650005,2, -3, -3, -2, -2, 1, -3, 1
1503943650020,0, 0, -2, -3, 1, 1, -2, -2
1503943650043,-4, 13, 9, 2, -1, -2, 2, -3
1503943650065,-3, -6, -8, -2, -2, -3, -5, -4
1503943650080,0, -3, -5, -2, -1, -1, 1, 1
1503943650103,0, -3, 2, 1, -1, 0, 2, 0
1503943650124,-3, 5, -2, 0, 0, -1, -1, 0
1503943650140,-1, -2, 4, 0, -2, -1, -2, -3
1503943650162,-2, -8, -6, -2, -1, 1, -3, 3
1503943650184,1, 3, 0, 0, -2, -1, -1, 0
1503943650207,2, 0, -4, -3, -1, -2, -1, -1
1503943650224,-4, -8, -4, 0, 0, -1, -1, 1
1503943650245,-3, -7, -3, -1, -3, 0, 1, -3
1503943650269,1, 0, 0, 1, 0, 0, -1, -1
1503943650283,2, 3, 3, 1, 2, -2, 0, -1
1503943650305,0, -1, 1, -3, -2, -1, -3, -3
1503943650327,-2, 5, 5, -2, 0, 0, -3, -4
1503943650343,-3, -7, -4, -2, -2, -2, -1, 2
1503943650364,-1, -9, -2, -3, -2, 1, -2, -1
1503943650387,4, 2, -6, -1, 1, 0, -1, 1
1503943650403,-6, -3, 1, 2, 0, -1, -2, 1
1503943650425,1, -3, 5, 1, -2, -2, 2, 1
1503943650447,-2, 3, -3, 1, -2, -2, 3, 1
1503943650463,0, -3, -1, -3, -1, 0, -2, 1
1503943650484,0, -3, -7, -4, -2, 1, 0, 1
1503943650507,-2, 0, 0, 0, -1, -1, -2, -2
1503943650523,0, -2, 0, 1, -1, -2, 0, -1
1503943650545,-4, -2, -3, -2, -1, 0, -1, -2
1503943650567,-2, 0, 0, 1, 1, -2, 0, -1
1503943650583,5, 23, 0, 0, -2, 0, -1, -3
1503943650604,3, -5, -6, -2, -2, 0, -1, 0
1503943650627,-4, -4, 1, -1, -1, -2, -1, 0
1503943650643,1, -1, 2, 1, 3, -1, -4, -1
1503943650666,-3, -5, 7, 2, 1, -1, 0, 0
1503943650687,3, 4, 1, 0, 0, -1, 1, 1
1503943650704,-3, -12, -6, -2, -1, -1, 0, -2
1503943650724,2, 4, 3, -1, -3, 0, -1, -2
1503943650747,-2, -1, -3, -2, -1, -1, -1, -1
1503943650763,-2, -8, -2, -1, -1, 0, 0, -3
1503943650780,-2, -15, -1, -2, -1, -1, 1, -1
1503943650793,1, -2, -8, -4, -1, -1, -1, -1
1503943650815,-1, -1, -2, 0, -1, 0, 1, -1
1503943650840,-3, 6, -4, -1, 0, 1, -1, 2
1503943650853,-1, 2, -2, 2, 0, -1, 0, 1
1503943650876,-2, 15, 21, 3, 0, -1, 1, 0
1503943650898,-1, -4, -6, 1, -1, 1, -1, -1
1503943650909,-8, -3, 11, 1, 0, 0, 0, -2
1503943650927,-5, 4, 3, -1, -1, -1, -2, -4
1503943650943,-1, -12, -8, -2, -1, -1, 0, 2
1503943650964,0, -4, 1, -1, 0, 0, 1, -1
1503943650987,-1, 4, -3, 1, -1, -2, -1, -2
1503943651003,-1, 1, 9, 3, -2, -2, -2, 0
1503943651024,0, 4, -3, -3, -2, 0, -2, -2
1503943651047,7, 7, -6, -1, 0, 0, 1, 0
1503943651063,-9, 22, -4, -1, -1, -2, -4, -2
1503943651084,0, -7, -2, -3, -2, -2, -3, 2
1503943651108,2, 1, 0, -1, -1, 0, 1, -1
1503943651123,6, 2, -1, 1, -1, -2, -2, -1
1503943651152,-10, -9, -4, -3, 0, -1, 1, 0
1503943651167,-3, -12, -3, -2, 1, -1, -1, 0
1503943651176,0, -4, -5, -1, 0, 1, -1, 1
1503943651198,-6, -3, 3, 1, -2, 1, -2, -1
1503943651220,-2, -1, -5, -3, 0, 1, 3, 1
1503943651235,-2, -23, -6, -2, -1, -1, -2, -1
1503943651258,-2, -5, -7, -1, 1, -1, 0, -2
1503943651281,-5, 3, 4, 0, -3, -2, -1, -4
1503943651295,-1, 6, 10, 3, -1, -1, -4, -2
1503943651318,1, 3, -1, -4, 0, -2, -1, -2
1503943651343,2, 10, -1, 0, 1, -2, -1, 0
1503943651356,8, 19, -4, 0, 0, -1, 1, 3
1503943651380,0, -8, -1, -2, 0, 0, 0, -1
1503943651400,-6, 7, -2, -3, -1, 0, -1, -2
1503943651415,3, -4, 2, 2, -3, -3, -2, 3
1503943651438,1, 1, 6, -2, -1, -1, -1, -2
1503943651460,1, 2, 3, -1, -1, -1, 0, -1
1503943651476,-4, -9, -7, -2, -1, 2, 0, 1
1503943651497,-1, -7, 1, -1, 2, -3, -1, -2
1503943651520,0, 8, -7, -3, -3, -1, -1, -1
1503943651536,-6, -6, 7, 1, -2, -2, -1, -2
1503943651558,3, -1, -2, -1, 0, 1, 0, 1
1503943651580,-1, 2, -1, -2, 0, -2, 0, 1
1503943651595,-8, -9, -7, 2, 0, 3, 1, -1
1503943651618,8, -2, -1, 1, 1, -2, -4, -4
1503943651640,-1, -2, -6, -2, -2, -1, -4, -1
1503943651655,-1, 0, 0, -1, 0, -2, -1, -3
1503943651678,-2, -8, 2, -1, -3, -1, 0, -1
1503943651700,1, 8, 10, 0, 0, -2, -1, 0
1503943651715,1, 13, 3, 0, -1, 1, 1, 1
1503943651737,-10, -6, -1, -2, 0, -2, -1, -2
1503943651760,-2, 1, -5, -2, -2, 1, 0, 2
1503943651775,-4, -5, 3, 0, 0, -1, 0, 1
1503943651797,2, -7, -5, 0, -2, 1, 2, -1
1503943651820,-4, -2, -2, 0, -1, -1, 0, -3
1503943651835,2, 5, -1, -1, -1, 1, -3, -2
1503943651851,0, 3, 1, 1, 1, -1, -2, -3
1503943651873,2, 0, -3, -1, -2, 0, -1, 0
1503943651889,-3, 18, 5, -1, 0, 0, 2, -3
1503943651913,-4, -9, -3, -2, -1, -2, -3, -2
1503943651933,0, -3, 6, 1, -1, 1, 0, 1
1503943651948,-2, -5, -6, 0, 0, 2, -2, -2
1503943651971,2, 12, 5, 0, -3, -1, 1, 0
1503943651994,-1, -3, -1, 0, 0, -2, 0, 0
1503943652001,3, -7, -4, -3, -3, -3, -1, 1
1503943652015,-1, -1, -4, -1, 1, 1, 1, 0
1503943652038,-2, 4, -3, 0, -1, -1, -2, -2
1503943652061,-5, -2, 2, -1, -1, 0, 1, -1
1503943652075,4, 10, 4, 1, 0, -2, -1, 0
1503943652098,-1, -4, 0, -1, 0, -1, -2, -1
1503943652128,1, 16, -4, -3, -1, -2, -1, 0
1503943652151,1, -3, 1, 0, -2, -1, 1, -2
1503943652173,-1, 2, 10, 0, 0, 0, -1, 0
1503943652191,0, 1, -1, 0, -1, -2, -3, -2
1503943652211,-6, -10, -2, 0, 0, 1, -1, 2
1503943652232,0, -4, 0, -1, 0, -1, -2, -1
1503943652259,-7, -15, -6, 2, -1, 0, 1, -3
1503943652271,-4, 14, 18, 1, 2, -1, 0, 3
1503943652293,3, 1, 1, 0, -2, 0, 0, -1
1503943652308,0, -12, -8, -2, -1, 2, 1, 2
1503943652331,0, 1, -5, -1, -1, -1, -3, -2
1503943652355,-2, -18, -5, -1, -1, -1, 0, -1
1503943652368,1, 3, -5, 1, 0, -2, -1, -3
1503943652392,4, -4, 0, -1, -1, -1, -2, 0
1503943652413,5, 9, -2, -3, 2, 0, 2, 2
1503943652428,-5, 1, 0, 1, 0, -3, 0, -1
1503943652452,6, 22, 27, 2, 0, -1, -1, 2
1503943652473,-3, -6, -8, -2, -3, 0, -4, -5
1503943652490,-2, -3, -5, -1, -3, -3, -3, -4
1503943652511,3, 9, -2, 0, -1, 0, -1, 4
1503943652533,-3, -6, -7, -4, -2, -2, 0, -1
1503943652549,-1, 2, 0, 2, -1, 2, 0, -1
1503943652563,-1, -16, -4, -1, 0, -1, -4, -2
1503943652578,-1, -10, -7, 0, -2, -2, 1, 1
1503943652600,10, 3, -4, -1, -2, 0, -3, -1
1503943652623,-4, -7, -1, -1, 0, 0, -2, -1
1503943652638,0, -8, -2, 1, 0, 1, 1, 0
1503943652661,-3, -9, -1, -2, 1, -1, 0, -2
1503943652683,8, -3, -4, 1, 0, -2, -2, -4
1503943652691,-1, -1, -1, -1, -2, 0, -2, -1
1503943652713,6, -9, 0, -3, -1, -2, -3, -1
1503943652728,5, 11, 1, -2, 1, 0, 0, 1
1503943652752,1, -8, -3, 3, -2, 0, -1, -1
1503943652773,-5, -1, -1, -1, -1, -2, -2, 1
1503943652796,-1, -8, 5, 2, 0, 0, -1, -1
1503943652820,4, 4, 4, 1, -1, -1, 1, -1
1503943652840,-6, -7, 1, -2, 0, 0, -2, 0
1503943652863,2, -1, -1, 0, -1, -2, 0, -1
1503943652878,1, 2, -5, 0, -1, -2, 0, 1
1503943652900,4, -1, 5, -1, -1, 0, -1, -1
1503943652923,0, -6, -1, 1, 0, 0, 0, -3
1503943652937,2, -1, -4, -1, -2, 0, -3, -1
1503943652960,1, 4, 0, 0, -2, -1, 2, 2
1503943652983,-5, -10, -5, -3, -1, 2, -2, 0
1503943652998,-2, -4, 1, 0, 1, 0, -2, -1
1503943653021,-2, 1, 2, -1, -2, -1, -1, -1
1503943653042,1, -5, 1, 0, -1, 2, -1, -4
1503943653058,1, 7, 4, -3, -1, 0, -1, -3
1503943653080,-1, -4, -7, 1, 0, -3, -3, 0
1503943653102,-1, -1, -1, -2, -2, -2, 0, -1
1503943653125,-3, 13, -5, -2, -2, 1, 0, 0
1503943653133,1, 16, -1, -1, -3, 0, -2, -1
1503943653157,-3, -10, -3, -1, -1, -2, -1, 0
1503943653164,0, 7, 2, -1, -2, -2, -1, 2
1503943653185,-3, -8, -7, -2, -1, -1, -1, -1
1503943653200,1, 11, 12, 1, 0, -1, -1, 0
1503943653223,-1, -3, -4, -1, -3, -1, -2, -1
1503943653245,-5, -2, 4, 0, -1, 0, 0, 0
1503943653260,-1, -3, -7, -1, 0, -1, -1, 1
1503943653283,3, 15, 4, -1, 1, 0, 0, 0
1503943653305,0, -9, -7, 1, -2, -1, 1, -2
1503943653320,1, -1, -5, -2, -2, -1, -1, -1
1503943653343,-5, -12, -3, 0, 0, 0, -1, 0
1503943653365,-5, -20, -8, -3, -2, -1, 0, 1
1503943653380,-3, -7, 3, 2, 0, -3, -2, -5
1503943653403,0, 2, -3, -2, 0, -1, 1, 1
1503943653425,-2, -2, -1, 0, 0, -1, -3, -2
1503943653440,0, -1, 0, -1, -2, -2, -1, -1
1503943653463,1, 20, -4, -2, 0, 1, 0, -1
1503943653485,-3, -5, -4, 1, 0, -1, -1, -1
1503943653500,-4, -1, -2, -3, -3, 2, 0, -3
1503943653524,3, -1, -1, -1, -1, 0, -2, 1
1503943653531,0, 2, -10, 0, 0, -1, 0, 1
1503943653553,0, 7, -5, 0, -1, -1, 0, -1
1503943653575,4, -6, -5, -4, 0, -1, -1, -1
1503943653593,-4, -6, 1, -1, 0, 1, 0, -1
1503943653613,-3, 2, -1, -1, -1, 0, -1, -2
1503943653635,1, -17, -2, -1, 1, 0, -1, -2
1503943653651,-3, 12, 8, 0, -1, -2, 1, -2
1503943653673,-2, -12, -4, 0, -1, -2, -2, -1
1503943653696,4, 10, 7, 0, -1, -1, -2, 1
1503943653711,-2, 0, 1, 0, -1, -2, -2, -2
1503943653734,4, 12, -1, -2, -1, 0, 0, -1
1503943653740,-2, -7, -4, -2, -2, -3, 0, 1
1503943653763,-1, 0, 2, 1, 1, 1, 0, -1
1503943653785,2, 3, 7, 0, 0, 0, 2, 1
1503943653801,10, -3, -3, 0, 0, -2, -1, -1
1503943653823,-7, -9, -2, -1, 0, -1, 0, 0
1503943653845,1, -3, -1, -1, 1, 0, -1, -3
1503943653868,-6, 5, 4, -1, 1, -2, -2, 0
1503943653882,-3, -1, -5, -2, -2, -2, -5, -2
1503943653905,-5, -8, -7, -1, -2, -2, 0, -2
1503943653927,-1, -4, 10, 2, -1, -1, 0, 1
1503943653942,-6, -13, -12, -4, -2, 2, 0, 0
1503943653965,2, 6, 1, 1, -1, -1, -1, 1
1503943653980,-3, 4, 3, 0, -2, 0, -3, -2
1503943654003,-1, -4, 2, 0, 0, 0, -1, 0
1503943654025,-1, 4, -3, -4, -1, -1, 0, -2
1503943654047,3, 9, 7, 2, -1, -2, -2, -2
1503943654070,-1, -5, -7, -1, -1, 1, -1, 1
1503943654092,0, -7, -1, -1, -4, -2, 1, -1
1503943654107,0, 0, -2, 0, 1, -2, -2, 0
1503943654122,3, 12, 10, 0, -2, 0, -1, -1
1503943654145,-2, -1, -2, 0, 0, 0, -2, -1
1503943654167,-4, -8, -7, 0, -1, 0, -1, -1
1503943654182,-3, 13, -8, -2, -1, -2, 1, 0
1503943654205,6, 1, 6, 0, 0, 1, -1, -2
1503943654227,6, -4, -3, 1, 1, -1, -2, 0
1503943654242,-5, 0, -1, -2, 0, 0, 2, 1
1503943654265,0, 0, 3, -2, -3, -2, -1, -1
1503943654287,-1, -9, -3, -2, -1, -1, -1, -1
1503943654302,-4, 1, -4, 0, -1, 0, -3, -3
1503943654325,-6, 3, 2, -1, -1, 0, 0, -2
1503943654347,-3, -9, 1, 0, -1, -1, -1, -1
1503943654364,1, 2, 0, 0, -1, -1, -2, -1
1503943654385,3, 4, -2, -1, -2, -1, 2, -1
1503943654407,0, 3, 0, 1, -1, -1, -2, -2
1503943654422,-1, -1, -3, -1, -1, 0, -2, 0
1503943654445,3, -3, 11, 0, 1, -1, 1, 0
1503943654467,-5, -4, -6, -2, -1, -1, -2, -1
1503943654489,1, -10, -2, 0, 0, 0, -1, -2
1503943654506,1, 0, -3, -1, -2, 0, 0, 1
1503943654527,-1, -3, 7, 1, -1, 0, 1, -1
1503943654543,1, 12, -1, -1, -1, -1, -3, -1
1503943654565,-1, -6, -7, -3, -1, -1, -1, 0
1503943654587,2, 6, 6, 2, -1, -1, 0, -1
1503943654603,-5, -23, -6, 0, 0, 0, 0, -1
1503943654625,-3, 4, -3, -2, 1, -1, -1, -1
1503943654634,-1, 12, 9, 2, 1, -1, 1, 2
1503943654655,2, 1, 2, 0, -2, 0, 0, -1
1503943654677,1, -7, -1, -1, 0, 0, 0, 1
1503943654693,-4, -2, -5, 1, 1, 0, 0, -2
1503943654715,1, 4, -4, -2, -1, 0, -1, -2
1503943654738,-1, -7, -6, -1, -2, -1, -1, 0
1503943654753,0, 3, 1, -1, -1, 0, -2, -1
1503943654775,-3, -1, -3, 0, -1, -2, -1, 0
1503943654800,-3, -8, 3, 0, -1, 0, -1, 0
1503943654806,3, 3, 0, 1, -2, 0, -2, 0
1503943654827,-3, -6, -5, 0, -1, -2, -2, -1
1503943654842,0, 1, 5, 1, 1, -1, -1, 0
1503943654867,0, 4, -1, -1, -2, -2, -1, -2
1503943654887,1, -5, -6, -2, -3, 0, -1, -1
1503943654903,-6, 7, -2, -1, -1, 1, 3, 1
1503943654925,-1, -4, -1, 0, -2, 0, 0, -2
1503943654947,4, 23, -2, 0, 0, -2, -2, 0
1503943654969,0, -13, -8, -2, 0, 0, -1, -1
1503943654985,-5, 6, -1, -1, -1, -1, -1, 0
1503943655007,1, -7, 0, -1, 0, -3, -2, 0
1503943655029,1, 7, 10, -1, 1, 2, -1, -1
1503943655045,0, -9, -1, -1, -3, -1, 0, 0
1503943655070,3, 10, -4, -1, -1, -2, -3, -1
1503943655089,-4, -19, -1, -2, 1, 0, -2, -2
1503943655105,2, 3, 1, -1, -2, -2, -1, -3
1503943655127,0, -1, -1, 1, 0, -1, 0, -1
1503943655149,-2, -11, -14, -3, -4, -2, -2, -2
1503943655165,-2, -12, 4, -2, -1, 1, 0, -1
1503943655187,3, -17, 5, 2, 1, -2, 0, 1
1503943655213,-7, -6, -3, 1, -2, -1, 0, -1
1503943655225,-3, 5, -1, -2, 1, 0, -2, -2
1503943655247,-3, 7, 7, 0, -1, 1, -2, -2
1503943655276,0, 5, 0, -2, -1, 1, 0, 1
1503943655285,2, 10, -2, -2, 1, -1, 0, 1
1503943655307,-1, 3, 1, -2, -1, -2, -2, 1
1503943655330,-1, -3, -8, -2, -2, -1, 0, -3
1503943655356,-3, -10, -4, 0, -1, 1, 0, 0
1503943655376,0, 11, -3, 1, -2, 1, -1, -1
1503943655389,-2, -9, 0, 1, -1, -4, -4, -2
1503943655398,-1, 0, -4, 0, 0, -1, -2, -2
1503943655420,-7, -9, -6, 0, -1, -2, -2, -2
1503943655437,4, -11, 2, -3, -2, -1, -1, -1
1503943655457,-2, -5, 1, 0, -1, 2, 2, -1
1503943655480,-2, -2, -5, -1, -1, 0, -2, 2
1503943655495,0, 4, 1, -1, 0, -2, 0, -1
1503943655517,1, 1, -4, -1, -1, -3, -1, 0
1503943655540,-1, -1, 2, 2, 0, 2, -1, -2
1503943655555,2, 6, 0, 0, -3, -1, -3, -5
1503943655578,-2, 0, -1, -2, -3, -2, -3, 0
1503943655600,0, -3, -3, -1, 0, -2, -2, -2
1503943655616,-1, -2, 2, 0, 0, 1, 0, -3
1503943655640,-12, -21, 1, -1, -1, -1, 0, 1
1503943655645,3, -2, 2, 2, -2, 0, -3, -2
1503943655667,-5, -5, 1, -1, 0, 1, 0, 0
1503943655690,-2, -3, 10, 2, -1, -2, 0, -2
1503943655711,4, 14, -4, 0, -1, -2, -1, -2
1503943655727,-2, -8, 4, -1, -2, -2, -2, -2
1503943655749,-1, -6, -2, -3, 0, 0, -2, -2
1503943655765,2, -3, 2, -2, -2, -2, 0, 0
1503943655787,0, -10, -10, 0, 0, 0, 0, -3
1503943655812,-4, -4, 7, 4, 2, -1, -1, 0
1503943655825,0, -1, -5, -3, -2, -2, -2, 2
1503943655847,-3, 8, 0, -1, -2, 1, 1, 2
1503943655869,1, 15, -6, 0, -2, -1, -1, 2
1503943655892,-3, -15, 1, -2, -1, -1, 0, -1
1503943655908,2, 1, -6, -1, 0, 1, 1, 0
1503943655929,3, -1, -1, 1, -1, 0, -1, -2
1503943655952,-1, 4, 4, -1, 0, -2, -2, -3
1503943655967,-7, 0, -6, -3, -2, 1, -1, -1
1503943655989,-4, -14, -9, -3, -1, -2, 1, -1
1503943656012,-3, -1, 1, -1, 0, -1, -1, -2
1503943656027,-1, 0, 4, 1, -2, 0, -1, -2
1503943656050,-1, 0, -3, -2, -1, 0, -1, -1
1503943656072,-1, -11, -1, -1, -1, -2, -2, -1
1503943656087,1, 4, 6, -2, 0, -2, -2, -1
1503943656110,-2, -3, -4, -3, -2, 0, 0, 0
1503943656132,0, -5, -2, -1, 0, -1, 1, -1
1503943656147,-4, 0, 3, 0, -1, -2, -1, -1
1503943656169,-3, -4, -2, 0, 0, -1, 0, 1
1503943656192,1, -6, -4, -1, 0, -1, -2, -1
1503943656210,0, 0, 4, -1, 0, -1, 0, -1
1503943656229,1, 4, 2, -3, -1, 1, -2, -1
1503943656252,2, -2, -3, -2, -1, 0, 0, -1
1503943656267,-2, 2, -4, 1, 0, -1, -2, -1
1503943656289,1, 9, 4, 2, -1, -1, 0, -2
1503943656312,-1, -6, 5, -2, -2, -1, -2, -1
1503943656320,-2, -8, -6, 0, -1, -2, 0, 0
1503943656345,-4, -5, 2, -1, -1, -1, 1, 0
1503943656357,-1, 4, 0, -2, -1, 0, 1, 0
1503943656380,0, 39, 6, 2, 2, 0, -2, -1
1503943656402,-3, -18, -8, -3, -2, -2, -1, 0
1503943656418,1, 3, 17, 5, 0, 2, 1, -1
1503943656440,-2, 0, -2, -2, -2, -1, -1, 1
1503943656462,-7, -2, -8, -1, -2, -2, -3, -4
1503943656479,-9, -7, 9, 3, 0, -1, -1, -2
1503943656500,-2, -2, -12, -4, -1, -1, -1, -1
1503943656522,10, 0, -3, 0, 2, 1, -1, 1
1503943656537,5, 5, -4, -1, -1, 0, 2, 0
1503943656560,-1, -14, -2, -2, -2, -2, -2, -2
1503943656583,7, 5, -1, -1, 0, -3, 0, -2
1503943656597,-1, -6, -1, -4, -3, -1, -1, -1
1503943656620,-4, -23, -3, 0, -1, -2, -2, -1
1503943656642,-4, 9, 11, 4, -1, -1, 1, 0
1503943656658,6, 4, 10, 0, 1, -2, -3, 1
1503943656680,-10, 1, -4, -1, -1, 0, -1, 0
1503943656702,-1, 4, -10, -3, 0, 0, 2, 0
1503943656718,1, -15, -9, -2, -2, -3, -1, -2
1503943656740,3, -6, 5, 0, 0, -1, -2, 0
1503943656763,-16, -7, -5, -2, -1, 0, 0, -3
1503943656778,-4, 4, -3, -1, -3, 2, -2, 1
1503943656800,8, 10, 2, 2, 1, -1, 0, 1
1503943656824,1, 14, 12, 3, 1, 0, -1, -3
1503943656845,-4, 2, -8, -2, -2, -2, -1, 1
1503943656861,-3, 10, 10, 2, -1, -1, -2, -4
1503943656882,7, 11, 10, 3, 1, -2, 0, 2
1503943656905,-4, -21, -13, -6, -2, -2, -3, -4
1503943656920,-6, 7, -5, 0, 0, 1, -3, -8
1503943656942,17, -18, -13, 0, -2, -1, -1, 0
1503943656965,0, 0, 8, 0, 0, -1, 1, 0
1503943656982,-6, -4, -10, -2, -2, 1, 0, 1
1503943657002,-11, -5, -1, 0, -1, -1, 0, -9
1503943657025,-6, -11, 5, -3, 0, -1, 1, -4
1503943657040,-6, -1, 4, 1, 0, 1, -2, 2
1503943657062,3, -5, 1, -5, -2, -1, -1, 4
1503943657071,-1, -1, -5, 0, 0, 0, -2, -7
1503943657093,1, -11, -2, -1, -1, 1, 0, 2
1503943657118,-7, -3, 5, 2, 0, 0, 2, -1
1503943657130,15, -5, -6, -4, -1, -2, -2, -2
1503943657154,-2, 2, -2, -3, -1, -1, -2, -1
1503943657175,-3, -10, 2, 2, -1, 0, 2, 3
1503943657190,-6, -2, -3, -2, -3, 1, -3, -2
1503943657213,4, 5, 9, 1, 0, -1, -1, -2
1503943657235,-7, 4, -2, -1, -1, -1, 0, 1
1503943657252,8, -7, -4, -2, 0, -1, -3, -4
1503943657273,-1, -9, -3, -4, -2, -4, 2, -2
1503943657295,-5, 5, -5, -2, -1, 1, 0, -1
1503943657311,-20, 1, -2, 0, -2, 0, 1, 10
1503943657333,3, 11, 9, 3, 1, 1, 2, -1
1503943657359,-1, -4, 3, 0, 0, 0, 0, -1
1503943657370,8, -10, -10, -3, -1, -2, -1, 0
1503943657393,16, 11, -7, -5, -4, -1, -1, -1
1503943657415,1, 6, 4, -2, 0, -3, -2, -2
1503943657430,-15, 2, -1, 0, -1, 0, -2, -4
1503943657453,-10, -5, 5, -1, -1, -3, -3, -11
1503943657475,0, -9, -1, 1, -1, 0, -2, -2
1503943657490,2, 2, 2, 0, 0, 1, 1, 5
1503943657505,0, 3, 0, 1, 0, 0, -2, -3
1503943657520,1, -6, -6, 0, -2, -2, 1, -2
1503943657535,5, -10, -9, -6, -2, 1, -2, -8
1503943657553,14, 10, -1, 2, 1, 2, 2, 6
1503943657573,5, -1, 6, 1, -2, -2, -2, -7
1503943657596,-10, 4, 3, 0, 4, -1, 0, -6
1503943657611,-11, 18, 6, 1, 1, 1, -1, 8
1503943657633,-10, -25, -16, -6, -5, -1, -1, 5
1503943657656,11, 6, 7, 4, 2, -2, 2, 7
1503943657670,9, -2, -4, 1, -1, 0, -2, -4
1503943657693,-14, 3, -1, -1, 1, 1, -4, -7
1503943657715,5, -1, -2, -1, -1, 0, 0, 7
1503943657723,-20, 1, -3, -2, 1, 0, -1, -5
1503943657745,4, 37, 5, 3, 0, -2, -2, -3
1503943657767,-4, -14, -4, -3, -2, -1, 1, -1
1503943657782,-5, 4, 1, 1, 1, 1, 4, -4
1503943657805,4, 2, 1, -1, -2, -2, -3, -8
1503943657827,2, -20, -13, -2, -4, -2, -3, 2
1503943657842,-2, -36, -18, -7, -3, -1, -2, -6
1503943657865,-26, -10, 1, 0, 1, 0, 1, 0
1503943657889,34, 8, 0, 2, 1, -2, -1, -3
1503943657902,-10, 3, 2, -2, -3, -2, -1, -10
1503943657925,-2, 11, 3, 2, 0, -1, -1, 9
1503943657947,-2, 10, 13, 2, -1, -2, -3, 2
1503943657965,-4, 1, 2, 0, -1, 0, 1, -11
1503943657985,4, 3, -2, -2, -2, -2, -1, -1
1503943658007,-12, 1, 3, 2, 1, 0, 0, 0
1503943658022,20, 2, -1, -2, 1, 1, 0, -10
1503943658045,-11, -25, -12, -3, -2, -2, 0, 9
1503943658068,16, 7, 6, 1, 2, -2, -3, 1
1503943658082,-20, 3, 20, 7, -1, 1, -3, -22
1503943658105,0, 3, -8, -6, -3, -2, 0, 5
1503943658128,-22, -3, -8, -1, 0, 0, -3, -2
1503943658142,-6, -9, -1, 0, 1, 0, 0, 10
1503943658165,10, -8, -6, -4, 0, -1, -1, 7
1503943658187,13, 4, 0, 1, 1, -1, 0, 7
1503943658202,6, 9, -4, -2, 0, -1, -1, -2
1503943658225,-5, -3, 1, -1, -3, 0, -1, 3
1503943658247,1, 16, 2, 0, -3, -2, 0, 6
1503943658262,-12, -3, -2, -2, -1, -1, -1, -4
1503943658285,10, -2, 4, -2, -2, 0, -1, -3
1503943658307,7, 1, 0, -4, -2, -3, -2, 1
1503943658324,6, 3, -8, -2, -2, -1, -2, -6
1503943658345,-13, 7, 19, 4, 1, -1, -1, -1
1503943658367,-4, -5, -5, -1, 0, 0, -2, -4
1503943658382,2, -13, -12, 0, -1, 1, 0, 4
1503943658405,2, -17, -2, -1, -1, -1, 3, 6
1503943658427,-3, -8, -6, -3, -1, -2, -1, 2
1503943658442,16, 19, -2, 0, -2, -1, -1, 2
1503943658459,-1, 24, 2, 0, 0, -1, -1, 1
1503943658473,7, -8, -4, -4, -2, -2, -1, -1
1503943658496,-3, 3, -3, 0, 0, -1, -2, -1
1503943658517,-8, -3, 7, -1, -3, 0, 0, -1
1503943658533,14, 3, -4, -4, -2, -3, -1, 6
1503943658555,-2, -4, 1, 2, 0, 2, 0, 1
1503943658577,-10, -19, -4, 1, 2, 0, 2, -2
1503943658595,-8, -8, -5, 0, 0, -1, 0, -5
1503943658616,-1, -7, -6, -6, -6, -2, -1, -1
1503943658638,5, 3, 0, 2, 0, 0, 0, -2
1503943658661,5, 8, 1, -1, -1, 0, -1, 3
1503943658675,0, -11, -12, -2, 0, -3, -4, -4
1503943658698,-3, 16, -2, -3, -4, -1, -3, -7
1503943658720,-6, -12, 0, -3, -2, -3, 2, 6
1503943658736,3, 3, 3, 0, 2, -1, 2, -3
1503943658758,-2, 1, 3, 1, -1, 1, -2, -9
1503943658780,8, 4, 3, 3, 2, 0, 0, 0
1503943658795,-2, 16, 0, -4, -2, -3, -2, 0
1503943658818,0, -28, -9, -1, -2, -2, -2, -1
1503943658840,-2, -10, -3, -4, -1, 0, -2, 1
1503943658855,2, -8, -4, -4, -3, -2, -1, 6
1503943658878,-7, 4, -6, -4, -3, -1, 0, 3
1503943658900,-5, 23, 4, 1, 0, 0, 1, 7
1503943658907,4, -10, 0, -4, 0, 2, -2, 1
1503943658930,-1, 0, -2, -2, -2, -2, -3, -4
1503943658945,-9, 1, -9, -4, -3, -2, -2, -4
1503943658967,-19, 10, 2, 0, -2, -1, 0, 0
1503943658990,-5, -15, -1, 1, 1, -1, 1, 2
1503943659005,0, -5, -2, -2, -1, -1, -1, -3
1503943659029,10, 9, -1, -3, -1, -1, -3, 4
1503943659050,22, -5, -2, -3, 0, -1, -1, 6
1503943659067,-5, -21, 0, 2, -3, -1, 0, -2
1503943659087,5, 7, 8, 6, 3, -2, -4, -4
1503943659110,2, 5, 1, 1, 0, 1, 0, 1
1503943659125,-4, -5, 11, 0, 1, 2, 1, -2
1503943659147,-9, 2, -5, -3, -2, -4, -3, -2
1503943659170,-1, 7, -7, -5, 0, 1, 1, 2
1503943659184,-5, -7, -5, 0, 0, -1, 2, 2
1503943659207,6, 14, 5, -2, -4, -2, -1, -4
1503943659231,-34, 1, -5, -3, -3, 1, -3, -7
1503943659245,4, -6, 0, -3, -2, -1, 2, 1
1503943659268,7, -7, -6, 1, 1, -1, 1, -1
1503943659290,2, 8, 4, 3, 2, 1, 1, 1
1503943659305,16, -3, -2, -1, -3, -3, -2, 0
1503943659327,-4, 8, 2, 2, -1, -2, -4, 0
1503943659350,-12, -1, 3, 4, 2, -1, -3, -6
1503943659365,3, -9, -2, -1, 0, 0, -2, 0
1503943659387,5, -4, 1, 2, 6, 6, 5, 6
1503943659410,0, -20, -7, -10, -5, -5, -3, -2
1503943659425,-8, -11, -5, -2, -3, -2, -5, -8
1503943659447,5, 6, 3, 2, 0, -1, -1, 9
1503943659470,-12, -4, -8, -3, -1, -2, 0, -3
1503943659485,-4, 4, 1, -3, -2, 0, 2, 0
1503943659508,-1, 15, 7, 1, 0, 0, 2, -5
1503943659530,9, 27, -8, -4, -1, -3, 0, 0
1503943659545,-7, -37, -5, -4, -3, -1, -1, -6
1503943659567,2, 5, 2, -1, -2, -1, -2, -3
1503943659590,-5, -2, -1, -3, -1, -1, -4, 0
1503943659612,0, 13, 14, 3, 0, -1, 0, 0
1503943659627,1, 6, 3, 0, -1, -2, -2, 0
1503943659650,-5, -14, -3, 0, -1, 0, -1, -8
1503943659672,2, -11, -4, 1, -1, 0, -3, -2
1503943659687,17, 41, 13, 6, 4, -1, -4, 10
1503943659710,-17, -27, -19, -6, -4, -1, 1, -2
1503943659732,5, -16, -4, -4, -4, -4, -1, -1
1503943659747,9, 6, 6, 4, 2, 0, 0, 4
1503943659770,-4, -3, -1, 2, 2, 1, 1, 0
1503943659791,-10, 4, 10, 1, -1, 0, 0, -3
1503943659801,1, -15, -10, -6, -3, -2, 0, -1
1503943659822,0, -11, -5, -5, -1, -2, -2, -4
1503943659839,4, -5, -4, -1, 0, -2, 0, 1
1503943659860,-11, 2, -4, -3, -3, -1, 0, -2
1503943659882,3, 4, 2, 2, 1, 0, -2, -1
1503943659898,-2, 14, 3, -4, -2, -1, -1, -1
1503943659920,3, -2, -10, 1, 0, 0, 0, 0
1503943659942,-5, -4, 3, 2, 0, -1, -1, 3
1503943659958,-5, -1, -1, -2, -1, 0, 0, -3
1503943659980,-7, -15, 2, -2, -2, 1, -1, -2
1503943660003,6, -5, 1, -1, 0, -1, -1, 2
1503943660011,-4, -16, -4, -2, -1, -2, -1, 1
1503943660032,-1, -9, -10, -3, -3, -2, -1, 0
1503943660047,0, -5, -4, 1, -1, -1, 1, -2
1503943660070,2, -8, -2, 1, -1, -1, -1, -2
1503943660091,10, -3, -1, -2, -3, 0, -3, -3
1503943660107,-3, -15, -2, -1, 2, 0, 0, 0
1503943660130,2, 5, 3, 1, -2, -2, -1, -3
1503943660152,-4, -3, -4, -1, -2, 0, -2, 0
1503943660167,-4, -5, -4, -2, -1, -1, 0, -1
1503943660190,-3, -7, 0, 0, 0, -1, -2, 0
1503943660212,-5, -4, -4, -1, 0, 0, -1, -1
1503943660227,4, 5, 4, 1, -3, 0, 1, 0
1503943660250,-2, 0, 3, -1, -1, -4, -3, -1
1503943660273,0, -4, -15, -2, 0, -1, 0, 0
1503943660287,-4, -8, -1, -4, 0, -1, 0, -1
1503943660311,6, 29, 3, 0, -1, 0, -2, -4
1503943660332,-4, -20, -6, -1, -2, -1, 3, 2
1503943660347,-4, -1, 2, -2, 0, 1, -2, -1
1503943660375,-6, -5, -3, -1, 0, 0, 0, -1
1503943660391,-1, 8, 6, 2, 1, -2, -4, -4
1503943660407,3, 0, 0, 0, -3, 0, 2, 4
1503943660430,-2, -10, -8, -2, -1, -1, -2, 0
1503943660452,-5, -5, 8, -2, -1, 0, 1, 0
1503943660475,0, 2, -5, -4, -1, -3, -2, -3
1503943660496,1, -13, -8, -3, 1, -2, 0, 1
1503943660498,3, -1, 6, 1, -2, 1, -1, 1
1503943660520,-1, 11, -6, -3, -2, -1, -1, 0
1503943660543,-1, -6, -6, -3, -2, -1, 1, 4
1503943660565,5, -32, -5, -1, 0, -2, 0, 0
1503943660580,-1, 16, 10, 2, -1, 1, -3, 0
1503943660602,-4, -5, -7, -3, 0, -2, -2, -5
1503943660625,-1, -1, -2, -1, -1, -2, 1, -1
1503943660640,5, -4, -4, 0, -3, 1, -1, 0
1503943660654,3, 13, 9, 1, 1, -1, -1, 0
1503943660670,-6, -2, -2, -2, -2, -2, -3, -2
1503943660691,-5, 1, -3, -2, 1, -1, 2, -1
1503943660714,2, -14, 1, -3, -3, 0, 1, 2
1503943660730,7, 0, 0, 4, 0, -1, -1, -1
1503943660751,-4, -6, -3, -2, 1, 0, 0, -2
1503943660776,6, -1, -2, 0, -3, -2, -2, -2
1503943660790,-2, 11, 2, 0, -1, -2, -1, -4
1503943660812,-4, 1, 0, -2, 1, 0, 1, 2
1503943660834,-13, -10, -5, -2, -4, -1, -2, -6
1503943660851,-2, -1, -7, -2, 2, -1, 0, 0
1503943660871,-4, -11, -4, -2, 0, 0, -1, 0
1503943660894,10, -10, -2, 2, -1, -1, -3, -2
1503943660910,9, 23, 5, 4, 2, 1, 0, 2
1503943660932,5, -13, -5, -2, -1, -2, -1, 0
1503943660940,-5, -1, 0, -2, -1, 1, -3, -28
1503943660962,0, -2, -4, 1, 1, -1, -3, -1
1503943660985,-5, -18, -3, -3, -1, -1, 0, 1
1503943661000,-1, -3, -7, -1, -1, -1, -1, 2
1503943661022,6, 6, 10, -1, 0, 2, -1, 0
1503943661045,-5, 10, -7, -3, -1, -1, -1, -4
1503943661060,1, -3, -2, 1, -3, -2, 1, -1
1503943661083,-1, -1, -1, -1, 0, -1, -1, 0
1503943661105,-1, -5, -3, -1, 1, 1, -2, -2
1503943661124,1, 16, 0, -1, -2, 1, 0, 0
1503943661146,6, 7, -2, 0, -2, -2, -2, -1
1503943661165,-5, -2, 2, -1, -2, -2, 0, 0
1503943661186,-7, -15, -1, -2, -2, -3, -1, 0
1503943661202,5, 6, 7, -2, 1, -1, 0, -2
1503943661225,-4, -10, 1, 2, 0, -1, 0, -1
1503943661240,8, 17, 17, 2, -1, -3, -2, -1
1503943661262,-1, 6, -7, -2, -3, 1, -1, 0
1503943661285,-3, -13, -4, -2, 0, -2, 1, -2
1503943661300,1, 6, 1, 2, -1, 2, -1, 1
1503943661322,2, -3, -3, -3, -2, 1, 2, 2
1503943661345,-4, -11, -12, 0, 1, -2, 1, -1
1503943661361,0, 6, 0, 0, -3, 0, -2, 0
1503943661386,-4, -12, -4, -3, -1, -1, -1, -1
1503943661405,0, -19, -13, -3, -2, -2, -2, 0
1503943661420,-5, -10, 8, 1, -1, 1, 0, -1
1503943661442,2, 10, -4, -1, -2, -2, -1, 1
1503943661465,8, 5, 5, 0, 1, -3, -4, -2
1503943661488,-5, 14, -2, 0, 1, -1, 0, -2
1503943661502,1, -9, 3, -1, -1, -1, -2, 0
1503943661525,1, 2, -1, -2, -1, -1, -1, -2
1503943661548,-2, -1, 1, -2, -1, -1, 0, 0
1503943661563,-2, 21, 2, 3, -1, -1, -1, -2
1503943661586,1, 7, 8, 2, 1, 0, 0, 0
1503943661607,-7, -1, 4, 0, -1, 0, -3, 0
1503943661623,-3, 8, -4, -2, -1, 0, -2, -2
1503943661645,0, -21, -3, -3, 0, -1, -3, -1
1503943661667,-2, -4, -4, -2, -2, -1, 2, 0
1503943661682,-5, -12, 0, -1, 0, 0, 1, 0
1503943661704,6, 15, -7, -1, 1, -3, -1, 2
1503943661711,-11, -18, -5, -3, -1, 1, -2, -2
1503943661734,0, 3, 4, 1, -1, -1, -1, 2
1503943661757,-1, -13, -4, 0, -2, -2, -1, 0
1503943661765,3, 2, 6, -1, -1, 0, -1, 0
1503943661787,0, 0, 5, 2, 0, -1, -2, -1
1503943661802,4, 7, -4, -4, -3, -1, 0, -1
1503943661825,-1, 2, 8, 1, 0, 0, 0, -1
1503943661849,3, 4, -1, -1, -3, -2, -2, -1
1503943661862,0, -4, -2, 0, 1, -1, -1, 1
1503943661885,2, 20, -9, -2, -1, 2, 0, -5
1503943661907,-6, -11, -5, -1, 0, -1, -1, 1
1503943661922,2, -8, -1, 1, 0, -2, 0, 1
1503943661945,-3, -13, -9, -3, -1, -1, -2, -1
1503943661967,-2, -3, 10, 0, 1, -2, -1, -4
1503943661985,1, 1, -6, -2, 1, 0, -3, 0
1503943662005,-1, 2, -3, 0, -2, -1, 0, -2
1503943662027,1, 8, 10, 1, 0, 0, -1, 2
1503943662042,-1, -8, -4, -2, -4, 1, 1, 0
1503943662065,-5, -8, -7, 0, 0, 1, 1, -1
1503943662088,-1, -7, 3, 0, 0, -2, -2, -2
1503943662102,2, 5, -1, 1, -1, -1, -1, 1
1503943662125,-2, 11, 2, 2, -1, 0, -1, -1
1503943662147,0, -24, -6, -5, 1, -1, -3, -1
1503943662162,5, 5, 0, 0, 0, -1, 0, 0
1503943662185,-4, 4, 1, -2, -2, 0, -1, -2
1503943662207,-1, -15, -6, -2, -2, -1, -1, -1
1503943662222,-3, 4, -11, -3, 0, -1, 3, 3
1503943662244,0, -1, 0, -1, -1, -1, -3, -2
1503943662260,5, 2, 2, -1, 1, 0, 1, 0
1503943662275,-7, -5, -6, -1, -1, -2, -2, -2
1503943662298,4, -3, -4, 0, -1, -1, -4, -4
1503943662327,-7, 12, -8, -4, -2, -2, -2, -2
1503943662335,-1, -4, 11, 1, 0, 0, -1, -1
1503943662359,-3, -7, 0, 1, -2, -1, 0, -1
1503943662380,0, -5, 2, -2, -1, -1, 1, 1
1503943662396,4, 8, 5, 1, 0, 3, -3, 2
1503943662420,-5, -9, -10, -2, -2, -2, 0, -1
1503943662440,-4, 2, 4, -1, -1, 1, 1, 2
1503943662447,0, 19, 6, 0, 1, -1, -2, 0
1503943662470,3, 5, -4, 0, -3, 0, 1, 1
1503943662487,-6, 3, 2, -1, 1, 0, -1, 1
1503943662507,-2, 0, -6, -3, 0, -2, 0, -1
1503943662530,-1, -9, -5, -2, -2, -2, -3, -2
1503943662545,0, -16, -10, -1, 0, 0, 1, -1
1503943662567,3, 5, 6, 0, -1, 0, -1, 0
1503943662590,0, -2, -4, 1, -2, -1, -2, -3
1503943662598,8, 8, 0, -2, -2, 1, 2, 1
1503943662622,-6, -13, -1, 0, 2, -1, -1, -1
1503943662635,1, -3, -2, 0, -1, -3, -1, 0
1503943662658,-5, -4, -4, 0, 0, 0, 2, 0
1503943662680,0, 15, 5, -2, -2, -1, -3, -2
1503943662696,-1, 4, 4, 0, 0, -3, 0, -1
1503943662717,-1, -3, -3, -2, -2, 1, -1, -2
1503943662740,7, -8, -14, -1, -1, -1, 0, 3
1503943662756,-3, 1, -2, -2, -1, -2, -2, -3
1503943662777,-2, -2, 0, -2, -3, 0, -1, -1
1503943662800,-1, -4, -1, 0, 0, 0, 2, 1
1503943662815,-3, -12, 0, 1, -2, 1, -1, 1
1503943662838,-9, -6, 0, 1, -1, 0, -2, -3
1503943662862,-3, -1, 2, 1, -1, -2, -1, -2
1503943662875,-3, 5, -2, -3, 1, -3, -1, 0
1503943662898,-2, -9, -1, 0, 0, -1, -1, -2
1503943662920,4, 3, 6, -1, 0, -1, 0, 0
1503943662935,-4, -5, -4, -3, -3, 0, 0, -1
1503943662958,6, 3, 2, 1, 0, 0, 0, -1
1503943662980,-7, 21, 13, 2, 1, 0, 2, 0
1503943662995,-1, -5, -11, -4, 0, 1, -2, -1
1503943663025,1, 3, -1, -1, -2, -2, -3, -3
1503943663040,3, -3, -3, -1, -1, -2, -1, 0
1503943663057,9, 3, 10, 2, 0, 1, 0, -1
1503943663078,-1, 13, 5, 0, -2, -1, 0, 0
1503943663100,-3, -9, -6, -2, -2, -1, -1, -2
1503943663115,2, -10, -5, 0, 0, 1, -2, 2
1503943663138,-3, 3, 0, -2, 1, -3, -2, -4
1503943663161,-8, -12, -5, -1, -2, 0, -2, -1
1503943663175,4, 12, -1, -2, 0, -3, -1, 1
1503943663198,-2, 4, -4, -1, -2, 1, -1, -2
1503943663220,-1, -7, -3, -2, -2, 1, -1, -2
1503943663235,3, -3, -3, -1, -2, -1, 1, 2
1503943663260,2, 23, 16, 0, -2, -2, -2, -3
1503943663280,1, -13, -6, -2, 0, -2, -1, -3
1503943663295,-1, 1, 5, 1, 1, 0, 2, 1
1503943663318,-1, -5, -5, -3, -2, -1, 0, 0
1503943663340,0, -1, 5, 0, 1, -1, 0, 1
1503943663362,3, 4, -6, 0, -1, 1, -1, -2
1503943663377,3, 7, -9, -4, -2, -1, -1, -3
1503943663393,-2, -4, -2, -2, 0, -2, -1, -2
1503943663407,1, -6, -2, -4, -2, -3, -2, 0
1503943663430,2, -17, 12, 1, 0, 1, 0, 2
1503943663452,-3, -9, -10, -5, 0, -2, -1, -2
1503943663467,2, -7, -7, 0, -2, 1, 0, -2
1503943663490,-4, -3, -1, -1, -2, -1, -2, 1
1503943663498,-4, -18, -7, -3, -1, -1, -3, -1
1503943663520,-1, -6, -2, 0, -2, 1, 0, 0
1503943663542,-4, 4, -1, 1, -2, -1, -1, -2
1503943663558,-1, 22, 11, 0, 0, 0, 0, -1
1503943663580,0, -10, -8, -1, -2, -2, 0, -2
1503943663603,3, 14, 2, -1, 0, 1, 0, 1
1503943663618,1, -7, -4, -2, -1, -2, -3, -3
1503943663640,2, -2, 7, -1, 1, 0, -2, 1
1503943663662,-4, 7, -3, -2, 0, -1, -1, -2
1503943663677,-4, -5, -14, -3, -1, -2, -1, 0
1503943663700,-3, -21, -3, -1, 1, -2, -2, -2
1503943663722,0, 2, 2, -1, -4, -2, -2, -3
1503943663738,-2, 0, 2, 0, -2, -2, 1, -1
1503943663763,-1, 7, 0, -1, 0, -1, -2, -1
1503943663782,1, -9, -5, 0, 0, 0, -2, 1
1503943663798,-6, -10, -6, -3, -4, -1, -1, -1
1503943663820,0, 0, 1, -2, -1, 0, 1, 1
1503943663842,-3, -9, -1, -3, 0, -1, -1, -1
1503943663857,1, 5, 5, 2, 0, 2, 1, 0
1503943663880,1, -16, -4, 0, -1, -3, -3, -1
1503943663902,5, -2, -7, -2, 0, -2, 1, 0
1503943663918,3, 27, 10, 1, 1, -2, 0, -1
1503943663941,-3, -9, -4, -2, -1, 0, 2, -2
1503943663964,-2, 1, 10, -2, -2, 0, -2, -4
1503943663977,-4, -5, 0, 2, -2, 2, 0, -2
1503943664000,-5, -8, -3, -1, -1, -1, 1, 1
1503943664022,1, -2, 6, 0, -1, -2, -2, 3
1503943664038,-3, 6, -7, -4, -1, -4, -3, -3
1503943664060,-1, -12, -4, -2, 2, 1, 0, 0
1503943664082,-5, -18, -4, 0, 0, -2, -2, 0
1503943664099,3, 6, 7, -1, -2, -1, 0, 0
1503943664120,2, 3, -4, -1, -2, -2, -1, -1
1503943664142,-2, 11, 7, 0, -1, -1, -1, -1
1503943664157,0, 8, -3, 0, 1, 0, 0, 0
1503943664180,-6, 0, 11, 2, -1, 0, 1, 0
1503943664204,1, -6, -10, -2, 2, 0, -3, -4
1503943664224,-3, -5, -2, 1, -2, -1, 0, -1
1503943664233,1, 2, -3, -1, 0, -2, -1, -1
1503943664254,1, 0, -6, -1, -1, -1, -1, -1
1503943664270,-3, 0, -8, -4, -1, 0, -1, -3
1503943664292,1, -5, -4, 0, -2, -2, -2, -2
1503943664314,3, 3, -1, -5, -1, -3, 0, 2
1503943664339,-4, -12, 0, -2, 0, -1, -1, -1
1503943664352,-2, 5, 2, 0, 1, 2, 2, 0
1503943664361,-2, -8, -10, 0, -1, -1, 0, -1
1503943664382,1, -2, -7, -2, -1, 0, -2, 0
1503943664405,-1, 7, 8, -1, -1, 1, -2, -2
1503943664420,0, -7, -3, 0, -1, -3, 0, -1
1503943664442,3, 2, 0, -1, -3, 0, -1, 2
1503943664464,-2, -8, 5, 0, 0, 1, 1, 0
1503943664480,-1, -1, -2, -2, 0, -4, -1, 1
1503943664502,1, 3, -4, -1, -2, 0, 0, 1
1503943664524,2, 1, 0, -2, -2, -1, -1, -3
1503943664535,0, 8, -9, -2, -1, 0, 0, 0
1503943664554,-3, -16, -5, -1, 0, -1, -1, -2
1503943664570,0, 0, 2, -1, 1, 0, -1, 2
1503943664592,0, -6, -2, 0, -1, -3, 0, -3
1503943664614,-1, 2, 3, 0, -1, -1, -1, -3
1503943664629,0, -5, -8, -2, -3, -1, -2, 1
1503943664652,3, -2, -2, -2, -1, 0, -2, -4
1503943664674,0, 0, -3, -1, 0, -2, -1, 0
1503943664689,-3, -2, -4, -2, -4, 0, -1, 1
1503943664712,-2, -1, -1, 0, 1, 1, -1, 0
1503943664741,0, 3, -7, -1, 0, -1, 0, -2
1503943664749,0, -2, -1, 0, -2, -2, -1, 2
1503943664773,0, -6, -2, -2, -2, -1, 0, 0
1503943664794,2, 3, 2, -1, -1, -2, -1, -1
1503943664810,-3, -10, -1, -4, -1, -2, 0, 1
1503943664832,-2, 6, -1, 1, 3, -1, -1, -1
1503943664854,2, -1, 15, 0, -2, -1, -2, 0
1503943664871,1, -10, -7, -3, -3, -4, -1, -2
1503943664885,1, -5, 0, 1, 0, 1, -2, 0
1503943664900,-4, -7, -6, -4, -2, -1, -1, -1
1503943664922,0, 10, -3, -3, -1, -1, -1, -1
1503943664945,-3, 0, -7, 0, -2, 0, -1, -3
1503943664961,-1, 5, 5, -2, -1, -2, -3, -2
1503943664982,1, 1, 1, 0, -1, -2, -1, -1
1503943665005,2, -10, 14, 4, 1, -1, 1, 1
1503943665020,-1, 5, -5, -4, -2, 2, 0, 0
1503943665042,4, 0, -3, -2, -2, -2, -1, 1
1503943665050,-1, -2, -5, 0, 2, -1, -2, -2
1503943665072,3, -1, -6, -5, -4, 1, -2, 1
1503943665081,-2, 8, -11, -1, -4, -1, -2, -4
1503943665106,-1, -9, -7, -1, 0, -1, -1, 2
1503943665124,-4, -16, 4, 2, 1, 1, 1, 0
1503943665140,-3, -23, 6, -2, 1, -1, 0, 0
1503943665163,-3, -2, -7, 0, -1, 0, -2, -1
1503943665184,-2, 5, -5, -1, -2, -1, 1, -1
1503943665207,-5, 2, -7, -6, -4, -1, -2, -1
1503943665223,1, -3, 2, 0, -1, -1, 0, -2
1503943665244,0, -4, -10, -1, -1, -1, 1, 0
1503943665252,-2, -21, -11, -1, -1, 1, -2, -1
1503943665277,-3, -2, -1, -3, 0, -1, 0, 0
1503943665296,-5, -10, -10, -5, -1, -4, -2, -3
1503943665312,-2, -12, 4, 1, -1, 0, 0, 0
1503943665335,-1, 15, 4, -1, 1, 0, 0, 0
1503943665356,-1, 12, -3, 0, -2, -3, -2, -2
1503943665375,-4, -10, -8, -4, -3, -1, 0, -3
1503943665394,3, -5, -5, -2, -2, 0, -1, 0
1503943665416,-2, -9, 0, 0, 0, 0, -1, 1
1503943665432,-1, 6, -1, -1, 1, -1, 0, 0
1503943665454,-1, 11, 8, 2, 1, -2, 0, -1
1503943665477,0, 18, 1, 2, -1, -1, 0, 0
1503943665492,2, -8, 1, -2, -2, 2, 3, 0
1503943665516,0, -7, -3, -2, -2, -2, -6, 0
1503943665536,0, -8, -2, 1, 1, -1, -2, 0
1503943665552,1, -2, 2, -2, -1, -3, -3, -2
1503943665576,-4, -5, -8, 0, -2, 0, 0, -1
1503943665596,1, -18, -4, -1, 0, 0, 0, -2
1503943665619,-1, -7, 2, 3, 0, 1, -1, -2
1503943665634,-3, -9, -1, -1, -1, -3, 1, 0
1503943665664,-2, -20, 5, -2, 0, -1, 0, 2
1503943665672,0, 6, 4, 0, -2, 0, -1, -1
1503943665694,-2, -21, 2, 3, 0, 0, 1, 1
1503943665716,-2, 11, -6, -2, -2, -1, -2, -2
1503943665732,-3, 4, -5, -3, -1, 0, -6, -2
1503943665755,-2, -11, -5, -1, -1, -2, 1, -2
1503943665780,1, 4, -6, -4, -1, -2, -1, -2
1503943665792,-4, -3, -3, -4, 0, 0, 0, 1
1503943665814,3, -5, -14, -2, -3, 0, -1, 0
1503943665836,0, 19, 8, 1, -1, -3, 1, 0
1503943665852,4, 6, -2, 2, 2, 2, 0, -1
1503943665878,-3, -14, -5, -2, -1, -1, 0, 2
1503943665896,-1, -6, -12, -1, -1, 0, 1, -1
1503943665905,-1, -8, -9, -1, -1, 0, 1, 0
1503943665915,-3, 14, -7, 1, -2, -1, -1, -2
1503943665936,3, 32, 24, 4, -2, -2, -1, -1
1503943665958,4, 8, 1, 0, 1, -2, -2, -4
1503943665972,17, 37, 18, 5, 0, 1, 0, 2
1503943665995,-1, -18, -11, -4, -2, -1, -2, 0
1503943666022,-8, -9, -5, -3, -4, -1, -1, -2
1503943666032,-5, -15, -10, -5, -2, 1, 0, -3
1503943666055,0, -8, -7, -2, -2, 0, 0, 1
1503943666079,1, -12, -3, -1, -1, 0, -1, 0
1503943666092,-6, -3, -1, -1, -1, -1, -2, 1
1503943666115,-4, -16, -5, -2, -2, -1, -1, -1
1503943666136,-1, -15, -7, -5, -1, -2, -1, -2
1503943666159,-5, 9, -9, -2, -2, 0, 1, 1
1503943666175,-6, -20, -5, -3, 2, 0, -2, 1
1503943666196,0, 0, 3, -3, -1, -4, -1, -4
1503943666219,-5, -3, -6, -1, -1, -1, 0, 1
1503943666235,-1, 3, 1, 3, -1, -1, -6, 0
1503943666256,2, 8, 6, -1, 0, 0, 0, -1
1503943666280,0, 4, 5, 0, 0, 0, 2, 2
1503943666295,1, -2, -1, -2, -2, 0, 1, -3
1503943666317,-11, 6, 3, -1, 0, 1, 0, -3
1503943666339,5, 4, -12, -2, -1, -1, 1, 1
1503943666361,-3, -33, -3, -9, -4, -2, -4, -5
1503943666376,-7, 0, 7, 3, 1, -2, 1, -1
1503943666399,-8, -5, -7, 1, 1, 0, 0, -3
1503943666415,1, 9, 6, 2, -2, 0, 1, -2
1503943666436,-4, 10, 3, -2, -1, -1, -4, -1
1503943666459,5, 13, -1, 1, 1, -1, 0, 4
1503943666475,10, -1, 3, 2, 0, -1, -1, 2
1503943666496,-2, -11, -4, 0, -3, -1, 1, 1
1503943666519,5, 14, -11, 0, -1, -1, -2, -2
1503943666534,-4, 3, -7, 0, -1, 0, 0, 0
1503943666550,-5, -18, -6, -4, -1, 0, 1, 1
1503943666564,-5, -9, -4, -1, 0, 0, 0, -1
1503943666587,3, -4, -7, -3, -1, -2, 2, 2
1503943666609,-8, -33, -17, -7, -4, -3, -7, -8
1503943666624,-5, -7, -5, 0, -1, 0, 1, 1
1503943666649,2, 1, -1, 2, -1, -1, 1, 2
1503943666669,11, 23, 12, 6, 1, 1, 0, 14
1503943666688,4, -1, 13, 2, 0, 0, 3, 8
1503943666709,-8, 12, -9, -3, 0, -1, 0, -4
1503943666729,11, -7, -2, -2, 0, -3, -3, -13
1503943666744,8, -10, 3, 2, 1, -1, -2, -2
1503943666767,-7, -14, -7, -7, -4, 0, -4, -4
1503943666789,-9, -2, -7, -2, -2, -2, -2, -11
1503943666804,-17, -1, 1, -1, 0, 0, 1, 3
1503943666827,6, 25, 4, 0, -1, 0, 1, 5
1503943666851,15, 1, 1, -1, -2, 1, 2, 6
1503943666865,7, -17, -2, 2, 0, -1, 0, 1
1503943666887,-10, -4, -10, -2, -1, 0, 0, -2
1503943666909,-4, -1, 7, 1, -3, -4, -3, -6
1503943666924,-4, -4, -3, -2, -1, -2, -1, 6
1503943666947,-4, 7, -2, -2, -2, -1, -1, -4
1503943666969,-28, -5, -12, -3, -1, -1, -1, -7
1503943666985,-12, -8, 0, -1, -1, 0, -1, -1
1503943667007,-3, -3, -2, -3, 2, -1, -1, -9
1503943667023,5, 7, 1, -2, -1, 0, 0, 0
1503943667037,5, 1, 7, 1, 2, -3, -3, 1
1503943667061,5, -5, -7, -1, -1, 2, 1, 8
1503943667082,-3, -5, -5, 0, 0, -2, -1, -6
1503943667105,5, -5, -9, -2, 0, 0, 0, 8
1503943667128,9, -6, -4, -3, 0, 1, 3, 19
1503943667149,-6, 4, 0, 1, 1, 1, -1, -3
1503943667172,0, 3, 0, 0, 2, -2, -2, -3
1503943667187,-3, -6, -7, 0, -2, 0, -1, 0
1503943667209,3, -1, -1, -2, -3, -2, -2, 5
1503943667232,1, 3, 2, -1, -2, -1, 1, -4
1503943667247,-2, -5, -3, -1, 0, 0, 0, -6
1503943667269,-1, 2, 10, 2, 0, -2, -1, -2
1503943667293,0, -2, -3, -2, 0, -2, -1, 3
1503943667307,-1, 1, 3, 1, 0, 0, -1, -2
1503943667329,-6, -3, 0, -3, -1, 1, 0, -1
1503943667357,12, 5, -1, -1, 0, -2, -2, 4
1503943667367,1, 3, -3, 0, 0, -1, -1, -8
1503943667390,-23, -20, -12, -4, -3, 0, -1, -6
1503943667412,-6, -11, -4, 0, 0, -1, -2, -7
1503943667427,-7, 1, 4, 0, -2, -2, 1, -1
1503943667449,0, 13, 3, -1, -2, -1, 1, -5
1503943667472,-9, -19, 7, 2, 1, 0, -1, 0
1503943667489,-7, -10, 7, -1, -1, 0, -2, 1
1503943667503,13, 26, 1, -4, -2, 0, -1, 3
1503943667526,-9, -6, -11, -5, -2, 0, -2, -4
1503943667540,-6, 2, -2, -2, 0, -2, 1, 0
1503943667563,3, 3, -4, -2, -2, 0, 0, -5
1503943667584,14, 34, 3, -2, -3, 0, -2, 2
1503943667600,-4, -20, 2, 4, 3, -1, 0, -6
1503943667623,-10, -4, -1, -3, -2, -1, -1, 2
1503943667630,-2, -6, -5, -2, 0, 1, -2, -3
1503943667652,-9, 3, 2, 0, 1, 0, 0, -2
1503943667667,-3, -7, 1, -1, -1, -2, 1, -5
1503943667690,4, 7, -7, 0, -2, -1, 0, 2
1503943667712,8, 16, 4, 0, 0, -1, -2, 0
1503943667727,4, -7, 0, -1, -1, -1, -3, -2
1503943667749,-10, -8, 3, 0, 2, 2, 0, 2
1503943667772,1, 0, -5, -2, -1, 1, 1, -1
1503943667787,0, 2, -7, -7, -2, -2, 2, 4
1503943667809,-9, -8, 1, 2, -2, -3, -3, -4
1503943667832,-6, 3, 3, -1, -2, 1, -1, -3
1503943667847,1, -5, 1, 2, 0, 1, -1, -2
1503943667869,0, 5, -7, 0, 1, -1, 0, 1
1503943667892,2, 0, -2, 0, -1, -2, -3, -1
1503943667907,-4, -5, -5, -3, -1, -1, 1, 2
1503943667930,-13, -13, 2, -6, -5, -4, -1, -6
1503943667952,2, 13, 1, 0, 0, -1, 1, 1
1503943667967,7, 41, 2, 1, -2, 1, -2, 4
1503943667991,-6, -15, 15, 2, 1, -2, -2, -1
1503943668012,2, -10, -10, -1, 1, -1, -1, 5
1503943668039,1, -4, -10, -2, -1, -2, -1, -10
1503943668049,0, 2, -8, -4, -2, -1, 0, -2
1503943668072,-2, -9, -1, -2, 0, -1, 2, 6
1503943668096,-4, 1, -6, 0, -1, -1, 0, -5
1503943668103,2, -18, -6, -4, -1, -2, -1, -1
1503943668129,9, 14, -14, -5, -5, 0, 0, 6
1503943668147,0, -2, -3, -1, 0, -2, -2, -2
1503943668170,-10, -5, -8, -8, -6, -4, -5, -10
1503943668184,-6, 10, 13, 5, 2, 3, 5, 1
1503943668200,2, 20, -4, 3, 3, -1, -1, 0
1503943668222,0, 0, -3, -1, -1, 0, 0, -4
1503943668244,-4, -1, -1, 2, 0, 0, 0, -1
1503943668264,0, 8, 2, 1, -2, -2, -1, 0
1503943668283,4, -5, 0, -5, -2, 1, 0, 1
1503943668304,-1, -8, 0, -1, 0, -2, 0, -2
1503943668320,5, -5, 4, -2, 0, 0, -3, -1
1503943668342,-5, -1, -2, 3, -3, -3, -3, -4
1503943668365,-1, 19, 6, 0, 1, -1, -2, 0
1503943668380,0, -11, -6, -2, -1, -1, 1, 1
1503943668403,0, -3, -3, -1, 0, 0, -1, -1
1503943668425,-5, -9, 3, 2, -2, -1, -4, -2
1503943668440,-2, 12, -1, -2, 1, 0, 0, 2
1503943668463,-4, 6, 1, 0, -2, 1, -2, -2
1503943668485,-1, -5, 10, 3, 0, 1, 0, 1
1503943668500,2, 14, 6, 1, 1, 0, 0, 0
1503943668522,2, -13, -5, -1, -2, -2, -1, -1
1503943668545,-1, -5, -6, -2, 0, -2, 0, 3
1503943668562,-2, -16, 0, 0, 1, -1, 0, -3
1503943668582,5, 5, 7, 1, -1, -3, 0, -2
1503943668589,3, 7, 5, 1, 0, 0, -2, 2
1503943668605,-2, -15, 0, 0, -1, -2, 0, -2
1503943668620,-4, -1, -3, -2, -1, 1, 0, -1
1503943668642,0, -3, -4, -3, -1, -1, -2, -3
1503943668665,4, 6, 2, 2, 0, -2, -1, 0
1503943668680,3, 7, -1, -2, -3, -2, -2, 1
1503943668702,-2, 14, 16, 0, 1, 2, -1, 0
1503943668725,1, -3, -9, -3, -2, -3, -1, -1
1503943668740,2, 2, -10, -2, -2, -3, -3, 0
1503943668763,-2, 5, -2, 0, 0, -3, 2, -4
1503943668785,-7, -9, -6, -3, -3, 0, -1, 0
1503943668800,-4, 10, 2, -2, 0, 0, -1, -2
1503943668822,1, 6, -1, -2, -2, -1, 0, -1
1503943668831,-5, -7, -5, -1, 0, -1, 1, -4
1503943668852,-2, 9, -6, -1, -1, 0, -4, 0
1503943668875,5, -1, 8, 2, -1, 0, -2, 1
1503943668889,-1, 14, -8, -2, 0, -3, 0, 0
1503943668912,-2, -15, 1, 0, -2, -1, 0, -1
1503943668935,4, 0, 2, -2, -1, 0, -1, -1
1503943668957,-3, 3, -2, -2, -2, 0, -2, -3
1503943668972,-6, 3, -2, -2, -1, 0, 2, -1
1503943668994,2, 4, 6, -1, 0, 0, -1, -1
1503943669017,-7, 8, 7, 2, -2, -2, -3, -5
1503943669033,7, -3, -11, -2, 0, 1, 1, -2
1503943669054,0, -3, -5, -2, -1, -2, -1, 1
1503943669076,2, 7, -3, -3, -1, -1, 0, -2
1503943669092,0, 5, 1, 1, 0, 0, 0, -1
1503943669114,-4, -3, -4, -1, 0, 0, -1, 0
1503943669122,2, -5, -2, 1, -2, 0, 0, -1
1503943669137,-3, -2, 3, -1, -2, -2, 0, -2
1503943669152,-5, 3, 4, -2, -1, 1, -1, 1
1503943669182,-5, -27, -9, -5, -2, 0, 0, 0
1503943669205,3, 3, 1, -2, 0, -1, -3, 1
1503943669227,0, -8, 7, 1, -3, -1, -2, 0
1503943669242,-1, -6, -4, -2, -2, 1, 1, -1
1503943669268,-3, -14, -2, 0, 0, -1, -1, 0
1503943669287,-4, 12, 10, 3, 0, 1, -1, -1
1503943669302,-1, -2, -9, -1, -2, -1, -1, 0
1503943669325,4, -13, -4, -1, 1, 1, 0, 1
1503943669347,-1, -4, -2, -1, -1, -3, -1, -1
1503943669362,1, 11, -3, -2, -1, -1, 0, 0
1503943669385,-1, 2, 3, -1, 0, 0, -1, 0
1503943669407,-1, 2, 1, 0, -1, -1, -3, -2
1503943669423,-7, -24, -2, 1, 0, -1, 0, 0
1503943669445,0, 1, 12, 1, 1, 1, 0, 0
1503943669470,1, 10, -8, -2, -2, -2, 0, -1
1503943669482,-5, 2, 1, 0, -1, -5, -4, -7
1503943669505,-2, 10, 10, 0, 0, 0, 0, 1
1503943669527,-5, -4, -7, -2, -2, 0, -1, 0
1503943669542,1, 4, 6, -1, -1, 0, 0, 1
1503943669565,-3, 4, 1, 0, 0, 0, 3, 2
1503943669587,2, 2, -1, -1, 0, 1, -1, -1
1503943669604,-6, -20, -12, -3, -2, 0, 0, 0
1503943669625,0, 3, -3, -1, -2, -2, -2, -4
1503943669647,-4, -21, -7, -2, -1, -1, -1, -3
1503943669670,2, -4, -6, -2, 0, -3, -2, -1
1503943669685,0, -8, -3, -3, -1, -1, -1, 1
1503943669707,5, 14, 2, 2, 1, -1, 0, 1
1503943669722,5, 9, -6, 0, -1, 0, 0, 0
1503943669745,5, 18, -4, 0, 0, 0, -2, 1
1503943669767,-8, -11, -5, -3, -2, -3, 0, -4
1503943669775,-4, -4, 9, -2, -3, 1, -2, -4
1503943669797,4, 16, 11, 1, 0, -1, 0, 3
1503943669813,-5, -17, -7, 0, -1, 0, 0, 0
1503943669834,-1, -2, -4, -1, -1, -1, 0, -2
1503943669857,-8, -5, 0, 0, -1, -2, 0, -4
1503943669879,-3, -10, -7, -2, -2, 0, -1, -1
1503943669895,-2, 2, 2, -1, -2, 0, 0, -1
1503943669917,1, -8, -3, -1, 0, -1, -2, -2
1503943669940,3, 10, 6, 2, 1, -1, -1, 1
1503943669955,-1, -2, 3, 0, 0, -1, -1, -1
1503943669977,-2, 15, -16, -1, -2, -1, -1, -3
1503943669999,2, -8, -1, -1, -2, 0, 2, 1
1503943670015,2, 3, -3, -2, 0, -3, 1, -2
1503943670050,0, -10, -4, -4, -1, -1, -1, -1
1503943670067,2, 13, 6, 3, -2, -3, -1, 0
1503943670089,4, -5, 1, -1, -1, -3, -1, -1
1503943670108,-10, -10, -6, -1, 0, -1, -1, -1
1503943670127,-1, -9, -6, -3, -1, -2, -1, -3
1503943670149,-2, -12, -1, -2, -1, -1, 1, 3
1503943670165,-4, -7, -4, -4, -1, 2, 0, -1
1503943670187,-1, 2, 0, -1, -1, 1, 1, -2
1503943670209,-3, 5, -1, -1, -4, -3, -1, -2
1503943670226,-3, -19, 8, 2, 0, 0, -1, -3
1503943670247,1, 22, 5, 1, 2, -1, -1, -1
1503943670269,-1, -8, -4, -1, -4, 1, -2, 1
1503943670285,2, 8, 6, 2, 2, 0, -2, -1
1503943670308,0, 2, -4, 1, -1, -1, -2, -1
1503943670329,0, -12, -13, -4, 0, -1, 1, -3
1503943670345,3, -4, 2, 1, 0, -1, 0, 0
1503943670367,-4, 1, 0, -1, -3, 0, -2, -2
1503943670389,-2, -1, -2, -1, -1, -4, 1, -2
1503943670405,1, 3, -2, -1, 1, 0, -1, 0
1503943670427,-1, -22, -3, 0, 0, 0, 0, 0
1503943670450,0, -5, -2, -4, 0, 1, -1, 0
1503943670465,9, 11, 2, 1, -1, 1, -1, 0
1503943670487,-4, 7, -2, -3, -1, -1, -3, -5
1503943670509,0, 6, 4, -1, -1, -3, -1, 0
1503943670525,-4, -21, 3, -1, -1, -1, 2, 0
1503943670547,0, 4, -2, -1, -2, -2, -2, -1
1503943670569,-3, 1, -2, 1, 1, 1, 0, -1
1503943670586,2, 10, 4, -1, 0, -1, -2, 0
1503943670607,-1, 0, -3, -1, -1, -2, 0, 2
1503943670629,-2, 35, 10, -2, 0, 1, -1, -1
1503943670645,0, -10, -11, -1, -1, -2, -1, -1
1503943670667,-4, -2, 2, 0, -1, -1, -1, -3
1503943670676,1, -4, -10, -1, 1, 1, 1, 0
1503943670703,1, 5, 3, 2, 1, -2, -1, -1
1503943670719,1, 7, 1, -1, -2, 0, 1, -3
1503943670734,-3, -9, 1, -2, -1, -2, -10, -1
1503943670757,-1, 3, -2, -2, 0, -1, 1, 0
1503943670779,-1, -1, -2, 0, -1, -2, 2, 0
1503943670801,0, -7, -7, -3, -2, 0, -1, -1
1503943670817,1, -11, -9, -3, 0, 0, 2, 0
1503943670838,0, 4, 1, -1, 0, 1, -2, -2
1503943670861,0, 19, 9, 1, -1, 1, 0, -1
1503943670879,-1, -9, -1, 1, -2, -1, 1, -1
1503943670900,0, 20, 6, -1, -1, -1, -2, -1
1503943670922,-5, -12, 1, 3, 1, -2, 1, 0
1503943670937,-1, -4, -3, 0, 1, -1, -1, 0
1503943670959,-1, -1, -2, -1, -2, 0, 1, 0
1503943670981,0, -4, 0, -1, -4, 0, -1, -2
1503943670997,0, -8, -6, -4, -1, -2, -2, -2
1503943671019,1, 5, -1, 1, 2, 2, 0, 2
1503943671041,-3, -17, -2, -1, -1, -2, -1, -1
1503943671057,0, 0, -3, -1, 0, 0, 0, -1
1503943671081,-1, 0, 0, -1, -1, 0, 0, -1
1503943671101,1, 7, 2, -1, 1, -3, 1, -1
1503943671118,-2, 15, 3, -1, 2, -1, 0, 1
1503943671139,-5, 9, 6, 3, -1, 0, -2, -2
1503943671161,-2, -13, -7, -4, -1, -1, 0, -1
1503943671177,0, -4, -6, 0, -1, -1, -2, -1
1503943671199,-2, -5, 0, 0, -4, 0, -2, -1
1503943671221,1, -3, -9, -1, -2, 0, -1, -4
1503943671237,-2, -10, -1, -1, -1, -1, -2, -2
1503943671258,-1, 3, 4, 0, 1, -2, -2, 2
1503943671283,1, -1, 0, -3, -1, 1, 1, -1
1503943671297,0, -5, -7, -2, -2, -1, -1, 0
1503943671319,-1, -4, -1, -4, -1, -3, 0, -1
1503943671341,-2, 0, 7, 0, -2, 1, 2, 0
1503943671358,1, 7, 3, 0, -1, 0, -1, -2
1503943671378,-1, 10, 12, 1, 1, 1, 1, 1
1503943671408,2, -18, -8, -1, 1, 0, -2, 1
1503943671418,4, -1, -6, 0, 0, -3, -3, 0
1503943671439,-1, -4, -4, -2, 0, 0, -1, -1
1503943671461,0, 7, 0, -2, -1, -2, -1, -2
1503943671477,-2, -3, -2, 2, -3, 1, 0, -2
1503943671498,0, 7, 2, 1, 1, 1, 2, 0
1503943671521,-3, -3, 1, -3, 1, -5, -1, -2
1503943671537,-1, 0, -3, -1, -2, -1, -2, -2
1503943671559,0, -1, 3, 0, -2, 0, -2, 0
1503943671584,-1, -8, -3, -1, -3, -2, -1, 0
1503943671597,-4, -1, -2, 0, -1, -1, 2, -1
1503943671619,0, 1, 1, -1, 0, 1, -2, 1
1503943671641,0, 6, -7, -2, -1, -1, -2, -1
1503943671657,1, -7, -2, -2, -2, -1, -1, -2
1503943671678,0, -6, 2, 1, -1, 0, 1, 1
1503943671688,2, -9, 4, 1, 0, -2, -1, -2
1503943671709,-2, -2, -4, -1, -1, -1, -2, -1
1503943671732,-5, -2, 0, 2, 0, 0, 1, -2
1503943671755,4, 17, -4, 0, -2, 0, -1, 1
1503943671769,-2, 1, 11, 0, 1, -1, -1, -3
1503943671792,-2, -24, -1, -3, -2, -1, -4, 0
1503943671799,0, -1, 4, -1, 0, 0, -1, -2
1503943671821,1, 13, 5, 0, -2, 0, 1, 0
1503943671843,3, 8, 6, -1, -1, -1, 1, 0
1503943671858,-5, -2, -2, -2, -2, 0, -2, -1
1503943671875,-1, 0, -3, -2, 0, -3, -1, -3
1503943671890,-3, -22, -7, 0, -1, 0, -1, 1
1503943671912,-1, 3, -8, -1, -2, -1, -1, 0
1503943671934,2, 9, 1, 0, -3, 0, -1, 0
1503943671949,-2, 10, 5, -1, 1, -2, 2, 1
1503943671964,-7, -7, -1, 1, -2, -2, 0, -3
1503943671986,-4, -6, -6, -1, 0, -1, 0, -3
1503943672010,1, 5, -3, -2, -2, 1, 0, 0
1503943672032,-1, -10, -6, 1, 0, 0, -2, -1
1503943672054,0, -4, -2, -3, 0, -1, 1, 0
1503943672069,-1, 6, 11, 0, 0, -2, 0, 1
1503943672092,-3, 0, -7, -1, -2, 0, -1, -1
1503943672115,-4, -19, -5, -2, -1, -4, -3, -3
1503943672129,-1, -9, -7, 0, 0, 1, 0, 0
1503943672154,0, 5, 1, 1, -2, -1, 1, -1
1503943672174,-1, 1, -2, -2, -1, -1, 0, -1
1503943672189,-4, -11, 3, -1, 0, -3, -2, -4
1503943672212,3, 5, -3, 0, -2, -3, -2, 2
1503943672235,-1, -18, -11, -4, -3, -1, -1, -1
1503943672249,-2, 20, -1, -2, 0, 0, 0, -3
1503943672272,2, -4, -3, -3, 0, -1, 0, -1
1503943672294,-1, 2, 3, -1, -2, 1, -1, -1
1503943672309,-2, -1, 8, 3, 2, 0, 0, 0
1503943672332,0, 6, 0, -1, -2, 0, 1, -2
1503943672364,0, -1, -6, -1, -1, 2, 0, -2
1503943672385,-1, 21, 2, -1, -1, -4, -3, -2
1503943672407,-1, -7, -4, -1, 1, 1, -2, -3
1503943672423,1, -11, -1, -2, -2, 0, 0, 0
1503943672445,-3, -4, -1, 1, -1, -3, 1, 1
1503943672468,1, 0, 4, 0, 0, -2, -2, -2
1503943672482,0, 1, -4, 0, -1, 2, 1, 0
1503943672491,2, 5, -8, -2, -1, -1, -2, -1
1503943672512,-1, -2, 6, 1, -2, -1, -3, -1
1503943672534,-1, -3, -1, 0, -1, 1, -1, 1
1503943672549,0, 3, 0, 1, 2, 0, -1, -1
1503943672572,-2, 2, 7, 0, 1, 0, 1, 0
1503943672594,-1, 1, -3, 0, -2, -1, -1, -1
1503943672609,-1, -6, -8, -2, -3, -3, -1, 2
1503943672632,2, 1, -1, 0, 1, -1, 0, -2
1503943672654,-3, 0, 1, 0, -1, -1, -1, 0
1503943672677,-3, -15, -9, -4, -2, -1, 0, 0
1503943672693,-1, 2, 3, 2, -3, 1, -3, -2
1503943672715,-2, 9, 3, -3, 1, -1, 0, -4
1503943672737,1, -2, -2, 1, -2, 0, -1, -2
1503943672752,2, 0, 4, 0, 0, -2, 1, 1
1503943672774,2, -3, 0, -1, -2, -2, -2, -2
1503943672802,-2, -9, -2, -1, 0, 1, 1, 2
1503943672812,-3, 3, -2, -1, -1, -1, -1, -1
1503943672834,0, 7, 0, -2, -1, -2, -2, 1
1503943672858,-1, 0, 2, 1, -3, -1, -1, -1
1503943672872,-1, -3, -3, -2, -2, 0, 2, -1
1503943672895,-1, 1, -4, -2, 0, -1, -1, -1
1503943672917,0, 0, -1, 0, -1, 0, -1, 1
1503943672933,-1, 1, 4, 3, 2, -1, -1, -2
1503943672954,-2, -2, -2, -2, -1, 0, -3, 0
1503943672977,-2, -1, 1, 3, -1, -2, 0, 0
1503943672998,1, -4, -3, 1, 1, 0, 0, -3
1503943673014,7, 11, 15, 1, -1, 1, 0, 0
1503943673037,-4, -2, -7, -4, -2, -1, -1, 0
1503943673052,-1, -1, -2, 1, 2, 0, 1, -1
1503943673076,-1, -1, -1, -5, 0, -1, 1, -1
1503943673097,-1, -1, -2, -2, -2, -1, -4, -3
1503943673112,-5, -11, -8, -2, -2, -2, 2, 0
1503943673137,-4, 1, 4, 2, 0, 0, 0, 1
1503943673157,-2, -5, -6, 0, -1, -1, 0, -1
1503943673172,-4, -2, -3, -4, 0, 0, -2, 0
1503943673195,4, 4, 0, -1, 0, 0, -1, 2
1503943673217,-4, -6, 1, -2, -2, -1, -3, -1
1503943673232,0, -1, 0, -3, -3, 0, -1, -1
1503943673254,-1, 0, -1, 0, 0, -1, 0, -1
1503943673270,0, 0, 0, 0, -2, 1, -1, 1
1503943673291,-2, -9, -4, 1, 1, -1, -1, -2
1503943673307,-2, -1, 2, 3, 1, -3, 0, -1
1503943673322,1, 5, 2, 3, 2, 1, -3, 1
1503943673345,0, 0, -1, -3, -1, -3, 0, -1
1503943673368,3, 4, -4, -1, 1, 1, 0, -2
1503943673382,-5, 1, -1, -1, -1, -2, -3, 0
1503943673412,-2, -5, -7, -4, 0, -3, 1, -2
1503943673434,2, 8, 4, 1, -1, -1, -1, 0
1503943673457,-2, -4, -5, -4, -1, 1, -1, -2
1503943673472,3, 2, 0, -4, -2, -1, 0, 0
1503943673494,-2, -6, 2, 2, 0, -3, 0, 0
1503943673517,3, -4, 9, -1, -1, 0, -1, -2
1503943673532,-2, 0, -5, -2, 0, -2, -2, -2
1503943673554,0, 2, 1, 1, 0, 1, 1, 2
1503943673577,2, -1, 3, 1, 0, 0, -2, -4
1503943673599,0, 11, -10, -5, -2, 1, -1, -1
1503943673614,-2, -11, -6, -3, -1, -1, 0, -2
1503943673637,-1, -3, -3, 0, 2, -1, 0, 0
1503943673659,3, 9, 0, 0, -1, 0, -1, 2
1503943673675,2, 2, -10, 1, -1, -1, -2, -1
1503943673700,-15, 14, -5, -3, -1, -2, -1, -3
1503943673719,2, -8, -1, 1, -2, -1, -2, -2
1503943673734,1, -9, -10, -2, -2, -2, 1, -1
1503943673749,-1, 6, 1, 0, 0, 0, 0, -1
1503943673766,3, -2, -2, -2, -1, -2, -3, -1
1503943673787,-3, 2, -4, 1, 1, 0, -1, 0
1503943673809,3, 5, 3, -1, -3, -1, -3, 1
1503943673825,-5, -13, 4, 1, 0, 1, 2, 2
1503943673847,-2, -12, -1, 0, 2, -1, 0, 1
1503943673871,2, -2, -4, -2, -1, -1, -3, -3
1503943673885,-1, 0, -4, -1, -2, 0, 0, -2
1503943673902,5, 6, 4, -3, -2, -3, -1, 2
1503943673921,10, 8, 4, 2, 1, -1, 1, 2
1503943673939,-22, -15, 2, -3, -2, 0, 0, -6
1503943673959,-4, -18, -11, -4, -3, 1, 3, -1
1503943673975,-3, 3, -3, 1, -1, -4, -3, 0
1503943673997,-8, 5, 1, 0, 0, -2, -3, -5
1503943674019,2, -5, -7, -2, -2, -2, -5, -2
1503943674034,2, 2, 3, 0, -1, 0, -2, -1
1503943674057,-5, 10, 0, 1, 2, 1, 0, -4
1503943674079,2, 2, 11, 2, 1, 2, -3, 1
1503943674094,-4, -7, -7, 0, -2, -2, 0, 0
1503943674110,-15, -21, -6, 1, -1, 1, -2, -8
1503943674125,0, 0, -3, 0, 0, -2, -1, -2
1503943674147,2, 6, 2, -1, -3, -1, -1, 2
1503943674170,-2, 13, 2, -1, 1, 2, 0, 0
1503943674185,1, 1, 5, 1, -3, -2, 1, 2
1503943674209,12, 9, 0, -4, -2, -2, -1, 6
1503943674229,-2, -3, -5, -2, 0, 0, -2, -5
1503943674246,-1, 5, 14, 5, 0, 1, -2, 1
1503943674269,-4, 7, 1, 0, 0, -2, 0, -1
1503943674289,0, -11, -3, -1, -2, 0, 2, -1
1503943674305,-4, 0, -2, -1, 0, -1, -3, -4
1503943674327,1, 10, 16, 4, 1, 0, 0, -1
1503943674349,-3, -12, -5, 0, -2, 0, -2, -4
1503943674365,-3, -1, -6, -3, 0, -1, 0, -2
1503943674387,-1, -4, -5, 1, 0, 0, -5, -1
1503943674410,2, 14, 1, -1, -1, 0, 0, 2
1503943674425,-4, 8, 3, 0, -1, -2, 1, 8
1503943674447,5, 2, -5, -3, 0, 0, 0, -3
1503943674472,-23, -2, 1, 1, 0, 1, -1, -15
1503943674485,6, -9, 2, -1, -2, -1, 0, 0
1503943674507,-6, -12, -7, -2, -3, -3, -2, -2
1503943674529,6, -6, -2, 1, 1, 0, -3, 1
1503943674544,-5, -12, 1, -3, -3, -1, 0, -3
1503943674566,-11, -2, 3, 2, 1, 1, -1, -6
1503943674581,5, 0, 1, 0, 1, -2, -1, -3
1503943674597,9, 10, 0, 0, -2, 0, -1, 2
1503943674619,2, -16, 0, 1, -1, -3, 2, -4
1503943674641,-4, 3, 0, 0, -1, -1, 1, -1
1503943674657,-12, -6, -5, 0, 0, -2, 1, 1
1503943674682,8, 0, 1, 0, 0, 1, -2, -1
1503943674702,-3, 3, 4, 1, 0, -2, -1, 2
1503943674717,4, 3, 0, 0, -1, 0, 0, 0
1503943674739,-4, 0, 1, -3, -1, 0, -3, -7
1503943674761,-10, -17, 1, 1, -1, -1, -3, 0
1503943674778,3, 8, -3, -3, -1, -1, -3, -8
1503943674799,1, 1, -2, 0, 0, -1, 2, 1
1503943674821,0, 2, -1, -3, 0, 0, 1, 3
1503943674839,9, 20, 6, 1, 0, 0, -1, 3
1503943674859,5, -8, -4, -2, -1, -2, 0, 5
1503943674882,-4, 1, -3, 2, 0, -1, -2, -4
1503943674896,4, 5, -3, -3, 0, 0, 0, 2
1503943674912,-2, 1, -2, -1, 0, 1, 0, -1
1503943674927,11, -6, 1, -4, -3, 0, -2, 7
1503943674949,8, 7, 4, 5, 1, 0, 3, -11
1503943674974,7, 13, 2, 2, -1, -1, 0, 3
1503943674987,-11, -4, -3, -4, -3, -1, 0, 10
1503943675009,-7, -4, -2, -2, -1, -1, -5, -12
1503943675031,-5, -3, 2, 1, 0, 0, 0, 0
1503943675047,-1, -7, 2, -6, -4, -1, -2, -2
1503943675069,10, -5, -6, -1, -2, 0, 1, 7
1503943675091,-3, -4, 0, 0, 0, 1, 0, 0
1503943675111,-8, 0, 0, 2, -1, -1, 0, -7
1503943675130,3, 0, 0, -3, -2, -2, 0, 0
1503943675137,8, -6, -4, -3, -4, -2, -1, -4
1503943675159,-4, 3, 8, 1, -1, -2, 0, 0
1503943675181,-12, -23, -8, -4, -1, 0, 2, -5
1503943675197,10, 0, 6, 3, 0, -1, 2, 8
1503943675219,-15, -2, 4, -1, -1, 1, -2, 1
1503943675244,-4, -4, -1, 1, 0, -1, -4, -3
1503943675256,-3, 12, -4, -3, 0, 1, 3, -2
1503943675272,4, -7, -6, -3, 0, -2, -1, -6
1503943675287,7, 7, 12, 4, 0, -2, -3, -3
1503943675311,-3, -3, 0, -1, 1, 0, 1, -1
1503943675332,3, -3, -5, -1, -4, -3, -1, 3
1503943675349,-5, -8, -8, -5, -2, -1, -1, 1
1503943675369,7, 15, 3, -1, -1, -1, 0, 3
1503943675391,3, -5, -11, -4, -2, -2, -2, -1
1503943675407,6, -5, -5, -3, 0, -1, -4, -4
1503943675429,-11, -9, 3, -1, 2, 1, 1, -1
1503943675452,-13, -1, 2, 2, 0, -3, -1, -6
1503943675474,10, 15, 7, -1, 0, -2, -3, -8
1503943675489,-7, -10, -7, 0, -1, -1, -1, 2
1503943675512,-6, -15, -10, -1, 0, 1, 2, -1
1503943675534,8, 4, 2, -1, 1, 2, 0, 3
1503943675550,0, 7, 3, 0, -3, 0, -2, 0
1503943675571,-3, 3, 7, -2, -1, -3, -1, 0
1503943675594,0, -5, 0, -1, -1, 0, 5, 3
1503943675612,-3, 6, 3, -1, -1, -1, -2, -2
1503943675631,1, -1, -3, 0, 0, -2, -1, 3
1503943675654,-3, -6, -5, 0, 0, -1, -2, -2
1503943675669,-7, -13, -1, -4, -2, 2, 0, 1
1503943675693,-2, 1, 15, 5, 3, 0, 0, 0
1503943675715,17, -2, -8, -3, -3, -1, 1, 2
1503943675729,-3, 1, 0, -1, -1, 1, 3, 0
1503943675752,-4, 4, 2, 2, -1, 0, -6, -8
1503943675775,-2, 7, -2, -1, 0, 0, -3, -1
1503943675789,-8, 1, -6, 0, -1, -5, -2, 1
1503943675813,0, -1, 3, 0, -1, 1, 1, 0
1503943675834,-5, -4, -4, 2, 3, -1, 0, 0
1503943675850,-3, -3, 5, 4, 1, -1, -4, -2
1503943675872,-1, -1, 0, -1, 0, -1, 0, 0
1503943675894,6, 0, -2, -2, -1, -1, 2, 2
1503943675909,-6, 14, 1, -3, -3, -1, -4, -5
1503943675931,6, 3, 3, -2, -2, 0, 0, -3
1503943675954,-1, -12, -5, -1, 2, 1, 1, 0
1503943675970,4, 3, 3, 2, -1, -3, -1, -1
1503943675991,4, -5, -8, -4, 0, -1, -2, 0
1503943676016,-4, -2, -5, -3, -2, -2, -1, 1
1503943676029,-7, -5, -6, 0, 0, -2, -3, -4
1503943676052,5, 2, 4, 3, -1, -4, -1, 1
1503943676075,-13, -11, -3, -6, -2, 1, 0, 2
1503943676090,2, 2, 0, 1, 0, -1, -1, -6
1503943676104,7, 5, 7, 0, 0, -4, -4, 2
1503943676119,-2, -7, -2, 2, -1, -1, -1, 0
1503943676142,-1, -1, 1, 5, 2, -2, -6, -4
1503943676168,7, 19, 16, 14, 12, 10, 8, -4
1503943676179,-5, -13, -8, -10, -8, -6, -2, -2
1503943676201,-5, -12, -3, -3, -3, -2, -5, -5
1503943676224,-6, -7, 2, 2, 0, -1, -2, -5
