1503515171353,-2, -3, -1, -1, 0, 0, 2, 0
1503515171368,-3, -2, 0, -2, -1, 1, 0, 0
1503515171390,0, 1, -2, -2, -2, -3, -4, 0
1503515171413,-1, -3, -1, -1, -3, -1, 0, -2
1503515171433,-1, -1, 0, -2, 1, 1, -2, 0
1503515171450,0, 0, 0, -1, 0, -1, 0, -1
1503515171472,-1, -1, -4, -1, -1, -3, -4, -2
1503515171487,1, 0, 1, -3, 0, 1, 1, -1
1503515171512,2, 2, 1, 0, -1, -2, -1, -1
1503515171534,2, 0, 0, 3, 1, 0, 1, 0
1503515171548,-1, -2, -3, 0, -1, -1, -3, -2
1503515171570,-4, -2, 0, -2, -2, -1, -1, -1
1503515171593,-3, -4, -3, -1, -3, -1, 0, 1
1503515171608,-1, -3, -3, -2, -1, -4, -4, -2
1503515171630,1, -1, -1, 0, 0, 0, 1, -3
1503515171652,1, 0, 0, 1, 0, -1, 0, 2
1503515171668,0, -1, 0, -1, 0, 0, -1, -4
1503515171690,-4, 0, 0, -1, -2, -1, 0, 0
1503515171713,0, 1, -1, -1, -1, -1, 0, -1
1503515171728,0, 0, -1, -1, 0, -1, -2, -1
1503515171750,0, 0, 2, -2, 1, -2, -1, 0
1503515171773,0, -1, -2, 0, 0, 1, 0, 0
1503515171788,1, -1, -2, -2, -1, -2, 0, -3
1503515171805,-2, 0, 0, 3, -1, -2, 0, 0
1503515171818,-1, 0, -2, -1, 0, 0, 1, -1
1503515171840,-2, 0, -1, -2, 0, 0, 0, -3
1503515171864,0, 1, -3, 0, -1, -1, -2, -1
1503515171878,2, 0, 1, 0, -1, 2, 2, 2
1503515171899,-1, -1, 1, -2, 0, -2, -3, -2
1503515171922,-2, -2, -1, -2, 0, 0, -1, -1
1503515171938,-1, -1, -1, -1, 0, -2, 0, 1
1503515171959,-1, -3, -1, 0, -1, -1, -2, -1
1503515171982,-2, -2, 0, -1, -1, 0, 0, -1
1503515171998,0, 1, -2, -2, -2, -2, 0, -3
1503515172019,-1, 0, 0, 1, 1, 0, -1, 0
1503515172028,-3, -1, -1, -1, -2, 0, 1, 0
1503515172050,2, -3, -1, 0, 1, 1, 0, 0
1503515172073,0, -2, -2, -2, -2, -2, 1, 12
1503515172087,0, -1, -1, -1, 1, -1, 0, 2
1503515172117,-3, -1, 1, -1, 0, 1, -2, -4
1503515172133,1, 2, -1, 1, -1, -1, -2, -3
1503515172155,-1, -2, -3, -2, -1, -3, 0, -3
1503515172170,1, -1, -1, 0, 0, -1, -1, 1
1503515172193,-2, -1, 1, 0, -4, -2, 0, -2
1503515172222,-2, -1, -3, -2, -1, -2, -2, -2
1503515172244,-1, 1, 0, 1, -1, 0, 1, 1
1503515172259,1, 3, -1, -3, -1, -1, 3, -2
1503515172282,-1, -4, -2, -2, 0, 0, -1, -1
1503515172305,-1, -2, 0, -1, -2, -2, 0, -2
1503515172320,-1, -1, 0, -2, -1, 0, -1, -3
1503515172343,0, -3, -3, -1, 1, -2, -2, 2
1503515172366,-4, -4, -2, -1, -4, -1, -1, 1
1503515172381,-1, 2, 2, 0, -1, -1, -1, -1
1503515172405,2, 1, 0, -1, -4, -2, 0, -1
1503515172426,-2, -1, -1, 1, 1, 0, 1, -1
1503515172442,-1, -1, -1, 0, -1, 1, 2, -1
1503515172463,1, 1, 0, -1, 1, 0, -1, 0
1503515172472,1, -1, -1, -1, -1, -1, -1, 3
1503515172492,4, 0, -1, -1, 0, -2, -1, 1
1503515172515,0, -1, -1, 0, 0, 1, -1, -1
1503515172530,1, 0, -1, 1, -2, 0, -1, 0
1503515172552,-4, -2, 0, -2, 1, -1, -1, -3
1503515172576,-2, -3, -1, -1, 0, -1, -1, -1
1503515172590,0, 0, -2, 0, -1, 0, -2, -2
1503515172613,1, -1, 0, -2, 0, 0, 0, 0
1503515172635,-1, 1, 1, -1, -1, -2, -2, 3
1503515172650,-1, -2, -1, -1, -1, -2, -1, -1
1503515172674,2, 0, 0, -1, -1, -1, 1, 1
1503515172695,-3, 1, -2, 0, -1, 2, -2, -5
1503515172711,0, 0, 0, -1, 0, -1, 1, 0
1503515172742,1, -1, -3, -2, -3, 0, -2, -1
1503515172755,0, 0, 0, 1, -3, 0, -1, 1
1503515172770,-1, -2, -1, -1, 1, -2, -1, -2
1503515172792,-1, -1, 0, -2, -1, 0, -1, -2
1503515172815,-2, -1, -2, 0, -2, -1, 0, -1
1503515172830,1, -1, 0, -1, -1, 0, -2, 2
1503515172853,-1, 5, 0, -2, 1, 0, 1, 2
1503515172875,-1, 1, -1, 1, 0, -1, -1, -3
1503515172883,1, -2, -1, -1, 0, 0, 2, 1
1503515172906,0, 0, 0, 1, -1, -1, -1, -1
1503515172928,0, -1, -3, -3, 0, -2, 0, -2
1503515172944,1, -2, -1, -3, -2, -1, -1, 0
1503515172966,0, 2, 2, 1, -2, -1, 0, 3
1503515172973,-4, 0, -1, 0, 0, -2, -1, 1
1503515172995,-2, -3, -1, 1, -1, 2, -1, -2
1503515173011,3, -2, -1, -1, -2, 0, -1, -1
1503515173026,0, -1, -1, -1, -1, 1, 1, 1
1503515173048,-1, 0, 1, -1, 0, 0, 0, -1
1503515173063,-1, -2, -3, 0, 1, 2, 0, -1
1503515173086,1, -1, 0, 1, -1, -3, -2, -1
1503515173112,-3, -3, -2, 2, -1, 0, -1, 0
1503515173123,-2, -1, 0, -2, 0, -2, -1, -6
1503515173146,1, 0, 0, -2, 0, -1, -4, -1
1503515173167,0, -1, -2, 0, -1, -1, 0, -1
1503515173183,-1, -2, 0, 0, 1, 0, -2, 0
1503515173205,-1, -2, 0, -3, -1, 1, 0, 1
1503515173228,1, 0, 0, 0, -2, 0, 2, 1
1503515173245,0, -4, -4, -2, -2, -2, -2, -8
1503515173266,-1, 1, 0, -1, -1, 0, 1, -1
1503515173287,-3, 0, 1, -2, 0, -1, 0, -1
1503515173295,-4, -4, -2, 0, 0, 0, -2, -3
1503515173318,1, -1, -1, -2, -2, -2, -1, 2
1503515173332,-2, -2, 1, -1, 0, 1, -4, -8
1503515173348,-2, -1, -3, -1, -1, -2, 0, 0
1503515173363,0, 0, 1, 0, 1, -1, -2, 0
1503515173386,-5, -3, -2, -1, -1, -1, -1, -2
1503515173408,-12, -3, 0, -1, -1, -1, -1, -3
1503515173423,15, 1, -1, -2, -3, -2, -1, 6
1503515173447,-10, -1, -1, -1, 1, 0, -1, -7
1503515173468,3, -1, -1, -1, -2, 0, 0, -1
1503515173484,-2, -1, -2, 1, 0, -2, -2, -4
1503515173506,5, 0, 0, -1, -1, -1, -3, 2
1503515173528,-1, 1, 0, 0, 3, 1, 11, -4
1503515173546,-10, -4, 0, -2, -4, 0, 0, 0
1503515173565,0, 1, 0, 5, -4, -2, -4, -1
1503515173588,0, -2, -2, -1, 0, -2, -5, 0
1503515173603,2, 1, 0, -9, -12, -2, -3, -3
1503515173625,2, 2, 1, 26, 23, 3, 0, 1
1503515173633,0, -2, -2, 3, -1, -3, -1, -1
1503515173656,1, 0, -2, 1, 3, 0, 0, -1
1503515173678,0, 1, 4, 2, 1, 0, 0, -3
1503515173686,1, 0, 2, -1, -1, 0, 0, -2
1503515173708,1, 1, -2, 7, 7, 0, 0, 3
1503515173723,-1, -2, -4, -11, -8, -2, -1, -1
1503515173747,-3, -2, 2, -3, -2, 0, -1, -2
1503515173753,-1, -3, -2, -6, -4, -2, -1, -2
1503515173775,-1, -3, -4, 0, 2, 0, -2, -2
1503515173798,-2, 0, 1, 4, -5, -2, -1, -1
1503515173815,0, -2, -4, -7, 4, -2, 0, -1
1503515173835,1, -1, -7, -6, -1, -2, 0, -1
1503515173858,0, -1, -2, 2, 1, 1, 0, -1
1503515173872,0, 0, 2, 1, -1, -1, -1, -1
1503515173895,5, -4, -7, -6, -2, 1, -1, 0
1503515173919,-4, 0, -1, 2, -1, 0, 0, 0
1503515173932,-5, -4, -4, 1, 7, 1, -1, -3
1503515173955,5, 7, 22, 21, 28, 3, 0, 2
1503515173978,-8, -3, -9, -9, -12, -2, -1, -3
1503515173993,2, -1, 0, 0, -10, -3, -1, -1
1503515174017,3, -2, 1, 1, 9, 2, 0, 0
1503515174030,-1, 4, 2, 6, 6, 2, -2, -1
1503515174045,-6, 8, 1, 3, 3, -1, -1, -2
1503515174068,1, -1, 7, 1, -2, -1, 0, 0
1503515174090,-15, -15, -4, -3, 1, -1, 0, -2
1503515174106,-1, -6, -8, -1, -3, 2, -1, 0
1503515174128,3, -12, -10, -3, -3, -1, -1, -2
1503515174151,-18, -6, 0, 0, -2, 1, 0, -3
1503515174158,8, 5, -1, -5, -4, -1, 0, 2
1503515174181,1, -1, 9, 3, 1, 1, -1, 1
1503515174202,-2, -1, 4, -2, -1, 1, 0, 0
1503515174218,-6, 2, 1, 0, -2, -1, -2, 1
1503515174240,-1, 5, 6, 4, 3, -1, -1, -2
1503515174255,-3, -19, -10, -5, -1, -1, -1, 0
1503515174278,7, -4, -11, -5, -2, -1, 0, 0
1503515174300,-4, -8, -3, -2, -1, 0, -2, -4
1503515174315,-3, 7, 1, 0, -1, -1, 0, -1
1503515174337,3, 3, 0, 9, 19, 2, 0, 1
1503515174361,-3, 10, 5, 0, -4, -3, 0, 1
1503515174375,-4, 14, 16, 1, -7, -1, -3, -4
1503515174398,-29, -6, -6, -5, -9, -3, 0, -2
1503515174421,9, 2, 0, 3, 11, 1, -1, 0
1503515174435,6, -10, -5, -7, -7, -1, 0, -1
1503515174458,-7, 0, -5, -1, -6, -3, -2, -4
1503515174480,-20, -29, -7, -3, 0, 0, 1, -3
1503515174495,26, 13, 0, -1, 3, -1, -2, 3
1503515174521,-10, -2, 1, -1, -2, -2, -2, -4
1503515174540,2, 3, 2, -3, -13, -1, 1, 7
1503515174555,-4, 3, -5, 3, 10, -1, -1, 0
1503515174578,5, -36, 0, 6, 13, 2, 3, 4
1503515174600,4, -1, -4, -7, -19, -3, 0, 0
1503515174615,-12, -6, -1, -5, -6, 1, -3, -5
1503515174638,29, 24, 2, 1, 1, -1, 0, -2
1503515174662,7, 17, -8, -6, -13, 0, -2, 4
1503515174675,5, -18, -16, -7, -11, -11, 2, 4
1503515174698,-4, 11, 16, 4, 13, -10, -4, -4
1503515174721,-10, 1, 26, 13, 30, 6, -1, 0
1503515174735,-5, -27, -11, 3, 6, 3, 5, 4
1503515174758,11, 14, 6, -5, -26, -1, -2, -4
1503515174780,-4, 91, 30, 1, -2, 3, -3, -4
1503515174795,2, 62, 28, 7, 7, 0, -7, -5
1503515174817,1, -53, -11, -3, 0, 2, 1, 3
1503515174840,-12, -77, -21, -9, -27, 7, -1, -3
1503515174856,2, -23, -19, 2, 35, -16, -4, 1
1503515174877,-5, -7, -1, 0, 51, 7, -4, -7
1503515174900,-10, -23, -14, 1, 2, 13, 4, -1
1503515174915,-18, -89, -20, -9, -15, -7, -1, -6
1503515174937,-75, 12, -38, -27, -83, -8, -2, 3
1503515174960,36, -114, -62, 1, 73, 67, 0, -31
1503515174982,81, -60, -18, 29, 24, -3, -44, -35
1503515174999,26, 127, 95, 59, 113, 7, -5, 58
1503515175020,-6, -35, 3, -42, -77, -126, -37, 68
1503515175042,19, 127, 93, 32, 48, -13, 40, 32
1503515175058,-24, 3, -9, -13, -55, -11, 4, -42
1503515175080,-11, -31, -26, -6, -16, 19, 15, -6
1503515175096,4, 18, 8, 8, 30, 4, -6, -9
1503515175110,-6, 5, -8, -5, -5, -21, -14, -22
1503515175133,-10, -18, -10, 1, 14, 5, -1, -4
1503515175148,-8, -4, -4, 2, 5, 10, -6, -13
1503515175170,0, 13, 3, 0, 3, -1, -7, -10
1503515175192,5, -3, -4, -6, -6, -11, -3, 1
1503515175200,-5, -7, -4, -5, -6, 6, -1, -11
1503515175222,-1, 1, -2, -2, -6, 2, 4, -4
1503515175237,-2, -28, -3, -3, -5, 3, -5, 0
1503515175261,0, -3, -9, -7, -6, 0, -3, -3
1503515175282,-2, 6, -10, -7, -3, 2, -3, -1
1503515175298,0, 1, -2, 1, -1, 2, 8, -2
1503515175320,0, 4, 1, 0, -1, 1, 1, 0
1503515175349,-2, 3, 3, 10, 1, 2, -5, -4
1503515175360,0, 2, 4, 6, -4, -3, -1, -4
1503515175380,-4, 3, -1, -4, 1, 0, 5, -2
1503515175402,-3, -6, -7, -3, -4, -2, -1, 0
1503515175417,-8, 0, 2, 1, 4, -2, -3, -9
1503515175440,5, -4, -4, -9, -3, 0, -4, 3
1503515175464,17, -12, 4, 4, 4, 3, 18, 9
1503515175477,-7, -10, -5, -8, -12, -5, -10, -8
1503515175500,-6, 9, 7, 1, 3, -1, -2, -2
1503515175522,-3, 8, -1, -6, -7, -3, -6, -4
1503515175538,-24, -27, -13, 0, 3, -3, -16, -16
1503515175561,9, 1, 5, -5, -5, -4, -2, 5
1503515175582,4, -8, 1, 12, -1, 0, 7, 4
1503515175598,-23, -38, -27, -16, -5, -3, -2, -5
1503515175620,1, -43, -15, -8, -1, -2, 0, 7
1503515175642,28, 30, 12, 1, 1, 0, 3, 5
1503515175658,17, 34, 2, 6, 2, 2, 0, 1
1503515175680,-8, 15, 13, 5, 0, 1, 0, -2
1503515175702,-3, 68, 9, 3, 3, -1, -1, -2
1503515175717,3, -7, 4, 1, -2, 0, 11, 5
1503515175740,-10, -9, 7, -1, -1, 1, -1, 0
1503515175764,5, -17, -6, -1, 0, 0, 1, 7
1503515175777,-5, -31, -25, -11, -3, 0, -2, -2
1503515175800,-13, -20, 0, -1, -1, 0, 1, 0
1503515175822,-2, 4, -8, -3, -1, 0, -2, -3
1503515175838,4, 13, 9, 4, -1, -2, 0, -1
1503515175869,-3, 1, 7, 2, 2, -1, -7, -7
1503515175882,5, 8, 0, 2, 3, 0, -6, 0
1503515175905,0, 8, 1, -3, -2, -1, 4, -3
1503515175920,3, 14, 24, 6, 1, 1, -1, -4
1503515175942,4, 9, 2, 0, -3, -2, -2, 0
1503515175964,-1, -7, -8, -5, -1, -2, 0, 0
1503515175980,4, 4, -4, -1, 0, 1, 1, 2
1503515176002,5, 23, 38, 7, 1, -1, 2, 5
1503515176024,-3, -47, -21, -6, -4, -8, -7, -1
1503515176040,-10, -9, -13, -3, -1, 2, -3, -3
1503515176067,-3, 3, -6, -2, -1, 0, -3, -1
1503515176084,5, 6, -5, -1, -2, -1, 0, -1
1503515176100,-1, -5, -3, 1, -1, -2, -1, -3
1503515176122,0, 22, 10, -2, 1, 0, 1, -3
1503515176144,2, 2, -5, -2, -1, 1, -1, 0
1503515176160,-3, 7, -3, -2, 0, -1, -1, -1
1503515176182,-1, -6, -1, -1, 0, 0, 1, 1
1503515176204,-3, -6, -12, -5, -2, -2, 0, -2
1503515176220,-2, 4, 7, 2, -1, 1, 0, 0
1503515176242,-1, -3, -5, -2, -2, -7, -2, 1
1503515176266,1, 0, 2, 0, -1, 0, -2, -1
1503515176280,3, 0, 0, 3, 1, 2, 1, -2
1503515176302,-2, -6, -5, -1, -2, 0, 0, 0
1503515176324,-16, 1, 9, 4, 2, 0, -1, -2
1503515176340,-1, -11, -8, -3, -2, -1, -1, -3
1503515176362,10, 2, -2, -3, -1, 0, -1, -5
1503515176384,3, -3, -5, -4, -3, -1, 0, 3
1503515176407,-4, 9, 14, 4, 2, -1, 0, 1
1503515176422,-7, -1, -2, -2, -2, -1, -2, -4
1503515176444,5, 4, 2, 1, -2, 0, 0, 1
1503515176460,-2, -7, -5, -2, 0, -1, -3, 0
1503515176482,0, -4, -8, -2, -1, -1, 2, 1
1503515176504,3, 21, 20, 0, 0, -2, -1, 2
1503515176520,0, -4, -4, -3, -2, 1, 5, -1
1503515176543,-2, -3, -4, -1, 0, 0, -1, -1
1503515176564,-7, -6, 1, 0, 0, 0, 2, -3
1503515176580,1, -8, -8, -2, -3, -1, -7, -5
1503515176602,5, -5, -1, 3, 1, 0, 6, 6
1503515176624,2, 5, 8, 4, 1, -1, 0, 0
1503515176640,0, -4, -6, -2, -2, -2, -2, 3
1503515176662,9, 8, 0, 2, -2, -1, 1, 0
1503515176684,-4, -5, -3, 7, 10, -18, 1, -5
1503515176702,-3, -7, -9, -5, -4, 3, -11, -1
1503515176722,-2, -3, 0, 0, -3, 3, -3, -2
1503515176744,-2, -2, -3, -7, -4, -1, -3, -3
1503515176760,-4, 4, -5, -6, -1, 2, 4, 1
1503515176782,-5, -9, -8, -4, -3, 1, -4, -5
1503515176806,-7, -3, 1, 1, 0, 1, 2, 0
1503515176827,2, 2, 3, -4, -13, -5, -5, -1
1503515176842,-1, -2, -1, -4, -5, 0, -2, -2
1503515176864,1, 1, 3, 4, 5, 2, 1, 2
1503515176887,5, 15, 7, 2, 2, 0, -5, 1
1503515176903,-9, -6, -2, -4, 4, 2, 0, -1
1503515176924,1, -5, -1, -1, -2, -2, -1, 0
1503515176947,3, -2, -4, 0, 0, 0, -3, 3
1503515176962,-3, -8, -4, 0, -3, -1, 2, -3
1503515176984,2, 0, 0, -2, -1, -2, -1, 2
1503515177007,1, 6, 5, 1, 1, 0, -3, -7
1503515177022,-1, -10, -6, 0, 2, -1, 1, 4
1503515177044,-5, 0, -6, -2, 0, -2, 0, 0
1503515177067,-1, 4, 11, 4, 0, 1, 0, -3
1503515177083,5, -6, -4, 0, 3, 0, -6, 1
1503515177105,-3, -3, -3, -7, -11, -6, 0, -7
1503515177127,3, 3, 1, -1, -7, -1, -1, -3
1503515177143,-2, -7, -2, 5, 6, 0, 0, -1
1503515177164,0, -1, 10, 4, 5, 2, 2, 5
1503515177187,-2, -4, -9, -6, -2, 0, 4, 2
1503515177202,0, 4, 2, -3, -1, 0, -4, 0
1503515177224,-4, -5, 2, 0, 0, -1, -2, -2
1503515177248,-1, -13, -29, -19, -3, -2, -5, -9
1503515177262,4, -2, -4, -2, -2, -1, 0, 1
1503515177284,-3, 3, 1, 1, 8, -1, 0, 0
1503515177307,2, 7, 3, 2, -9, -2, -1, 1
1503515177322,-1, 3, 12, 7, 0, -1, 2, -5
1503515177344,-10, -4, -6, 1, 1, 0, -2, -3
1503515177367,2, 2, 0, 1, 2, -1, -2, 0
1503515177383,3, 13, 1, -8, -6, 0, 1, 3
1503515177404,10, 15, 19, 6, 4, 2, 7, 6
1503515177427,-3, -17, -9, 2, -1, 0, -2, -5
1503515177443,0, -2, -1, 0, 0, 0, 3, 0
1503515177465,-3, -4, -4, -1, 2, 9, -2, -3
1503515177488,-7, -4, -1, -3, -6, 0, -5, -8
1503515177512,7, 8, 2, 4, 1, -4, 0, 10
1503515177525,0, -1, -8, -4, -3, -3, 0, -1
1503515177548,-2, -4, 3, 2, 1, -1, -3, -3
1503515177570,-2, -4, -4, -4, -4, -4, -2, -1
1503515177585,2, 2, 1, 2, -2, -4, -6, -4
1503515177609,1, -12, -9, -3, 3, 0, 2, 2
1503515177631,4, 6, 5, 0, 1, 2, -5, 6
1503515177652,-1, 10, 3, 0, 1, 1, 0, -6
1503515177668,-5, -8, -4, -2, -4, -2, 1, 1
1503515177690,-2, -3, -3, 1, -1, 0, -1, -3
1503515177705,1, 8, 2, 2, 1, -2, 2, 2
1503515177728,-13, 11, 8, -1, -3, -1, -6, 0
1503515177751,3, -9, 2, -2, -1, -2, -4, -3
1503515177766,5, 4, 0, 21, 24, 3, 2, 5
1503515177788,0, -14, -4, -8, -9, -2, 1, 0
1503515177811,-11, -22, 8, -3, -3, 0, 0, -4
1503515177825,13, 18, -7, -6, -4, -2, 1, -2
1503515177848,-2, 0, -5, -3, -3, -2, -3, 1
1503515177870,-2, -3, 2, -8, -7, -1, -3, -4
1503515177886,2, -6, -5, -1, -2, -4, 1, 2
1503515177911,-2, 35, 27, 5, 1, 2, 1, -2
1503515177931,-1, -13, -17, -6, -5, -3, 1, -1
1503515177947,1, 1, -4, 3, 5, -1, 0, -3
1503515177968,-8, -12, -3, -1, -3, -4, -1, -2
1503515177990,1, -8, -4, -3, -1, -1, -1, 1
1503515178005,2, 2, -9, -3, -4, 1, -2, 3
1503515178028,0, 2, -10, -6, -4, 0, -2, -2
1503515178050,-5, -9, -7, 0, -2, -2, 1, 0
1503515178065,3, -10, -5, -2, 2, -1, -1, 2
1503515178088,-4, 1, 3, 2, -1, 0, -1, -3
1503515178112,-2, 2, 6, 4, 2, 0, -2, -5
1503515178125,0, -6, -5, 1, 3, 4, 10, 6
1503515178148,-3, -8, 3, 5, 4, -5, -4, -4
1503515178170,-1, 3, -2, -4, 0, -1, -1, 3
1503515178185,-8, -8, -2, -6, -5, -2, -4, -13
1503515178208,3, 1, 2, -1, -3, -2, -3, -1
1503515178230,4, 4, -18, -5, -7, -5, -3, 0
1503515178247,-11, -50, -17, -6, -5, -1, 1, -3
1503515178268,0, -19, -8, -7, -1, -2, -1, 6
1503515178290,3, -9, -9, -2, 0, 0, -3, 1
1503515178305,19, 28, 14, -2, -6, -2, 1, 5
1503515178328,-14, 9, 6, -1, -1, 2, 0, -4
1503515178351,2, 17, 8, 0, -3, -1, 4, -2
1503515178365,4, 25, 24, 16, 14, 4, 0, 3
1503515178388,-1, -7, -1, 0, 4, 2, -2, -6
1503515178395,6, 7, -6, -7, -5, -4, 0, 1
1503515178420,-1, -4, -5, -5, -5, -3, -3, 4
1503515178440,-1, 4, 2, 3, -1, -3, 2, -2
1503515178456,1, -4, -2, 0, 1, -2, 1, 1
1503515178471,-2, -4, -3, -2, 1, 0, -8, -1
1503515178486,-3, -10, -3, -2, 0, -2, 1, 5
1503515178508,8, 14, 0, 1, -4, 0, 1, 2
1503515178530,-9, -6, -2, 0, 1, 0, -3, -5
1503515178546,-13, -44, -5, -2, 4, -1, 0, 3
1503515178568,-25, 3, -5, -5, 2, -2, 1, -5
1503515178591,5, 9, 1, 3, -2, -2, 0, 0
1503515178613,5, -8, -8, -4, 10, 1, 0, 4
1503515178628,8, 10, 2, 6, 3, 3, 1, 4
1503515178651,8, 7, 1, -1, 0, -2, -1, -2
1503515178672,-5, 1, 4, -2, 5, -1, 1, 1
1503515178689,13, 7, 4, 1, -10, 2, 0, 1
1503515178710,-10, -2, -4, -3, -2, -3, -5, -7
1503515178732,0, -4, -5, -1, 67, 26, 8, 1
1503515178750,4, 7, 11, 2, -4, -23, -3, -3
1503515178770,6, 10, 6, -6, -35, -1, -2, -4
1503515178792,2, -7, -12, -3, -10, -2, 0, -1
1503515178808,4, -1, -2, -12, -59, -9, -4, 2
1503515178830,-2, 0, -3, 2, -16, 2, -3, 0
1503515178853,-1, 1, 0, 2, 12, 2, -3, -6
1503515178868,12, 17, 0, 0, -2, -5, -3, 12
1503515178892,-18, -20, -19, -5, 5, 1, 3, -14
1503515178898,0, -1, -12, -8, -2, -3, -5, -4
1503515178920,-4, -11, -2, -5, -9, -4, 0, 1
1503515178942,28, 12, 13, 4, 0, 0, -2, 22
1503515178972,-17, -14, -8, -3, -2, 9, -4, -11
1503515178988,11, 11, 1, -2, 1, 2, -1, 18
1503515179010,-1, -3, 3, 2, 3, -3, -1, -7
1503515179032,8, -2, 1, 3, 2, -2, -1, -1
1503515179048,6, -9, -9, -6, 0, -1, -2, -3
1503515179070,10, 9, 1, 1, -4, -3, 1, 1
1503515179093,-3, -3, 2, 0, 0, 9, -2, -23
1503515179108,17, 5, 8, -1, -2, 0, -2, 8
1503515179130,-11, -3, 6, 5, 1, -3, 0, -2
1503515179153,-5, 1, -1, -4, -2, -5, -2, -4
1503515179168,2, -4, 1, 1, 1, -5, -2, 5
1503515179191,-5, -5, -5, -3, -3, -3, -1, -1
1503515179212,4, -3, -7, 1, 0, -2, -1, -10
1503515179228,4, -4, -18, -6, -4, -3, -1, 2
1503515179250,-3, 6, 5, -2, 1, -3, -1, -1
1503515179272,0, -2, 7, 1, -1, 1, 0, 1
1503515179288,-7, -36, -8, -1, 0, -2, 0, 4
1503515179310,-3, -13, -4, 6, 0, 1, 0, 3
1503515179332,5, 5, 0, -4, -4, -2, 0, 1
1503515179348,15, 21, 13, 2, 3, 10, 1, 1
1503515179370,-18, 0, -1, -3, -1, -1, 0, -4
1503515179392,-1, 42, 25, 4, 2, 1, 1, -1
1503515179408,-10, -28, -20, -7, -3, -4, -3, -10
1503515179431,-2, 2, 0, 0, 0, -2, -2, 2
1503515179455,1, -4, -7, -4, -2, -2, 1, 3
1503515179468,-3, -5, -2, -1, -3, 0, -1, 3
1503515179490,0, -23, -13, -1, -2, -2, -2, -3
1503515179513,25, 37, 8, 3, 2, -3, -2, 1
1503515179528,-17, -18, -3, -2, -2, -2, -3, -2
1503515179550,10, 4, 5, -2, 1, 16, 2, 1
1503515179573,13, 6, -3, 0, 1, 0, -3, -4
1503515179589,11, -10, -13, -2, -3, -4, -3, -3
1503515179610,10, -9, -5, 1, -2, -3, 0, 4
1503515179633,-38, -17, 0, -3, 1, -4, 2, 1
1503515179656,10, 0, 3, -2, 5, 3, -2, -5
1503515179670,-6, 15, 4, 0, -6, -6, -3, 0
1503515179693,14, -7, -8, 5, 4, -3, -3, -1
1503515179715,-7, 4, -10, -5, 0, -1, 2, -3
1503515179731,4, -23, 3, 4, -3, 0, -1, 0
1503515179753,-15, -3, -1, -4, -6, -5, -2, -3
1503515179775,-16, 3, 2, -3, -1, 12, 0, -5
1503515179790,4, -9, -6, -8, -1, 0, 0, 1
1503515179813,-4, 0, 1, 6, 3, -3, -5, 0
1503515179835,1, -12, 1, -3, -6, -3, 2, 2
1503515179850,6, -12, -4, -1, -2, -4, -1, -2
1503515179873,-9, 0, -1, -1, 1, -2, 2, 0
1503515179895,7, -11, -15, -2, -3, -3, -1, 0
1503515179910,-7, 44, 13, 11, 2, -1, 0, 1
1503515179933,-9, -6, 2, -2, -2, -3, -3, -3
1503515179955,1, 12, -3, -2, 2, 2, 0, -1
1503515179970,-11, 17, 22, 12, 4, -2, 0, -3
1503515179993,-5, -17, 5, -4, -3, -3, -3, 1
1503515180015,-9, -16, -9, -7, -1, 0, -1, -3
1503515180031,31, 13, -3, -2, -4, -2, -2, -4
1503515180053,-5, 2, 11, 11, -3, -2, 0, 2
1503515180075,-6, 6, -4, -9, 0, -1, -3, -3
1503515180092,11, -25, -5, -9, -1, 0, 2, 3
1503515180113,-10, 3, -7, -2, -3, -1, 0, 2
1503515180135,-9, -11, -4, 1, 1, 0, 3, -3
1503515180150,-17, 7, -6, -5, -1, 0, -2, -6
1503515180173,6, 8, 1, -2, 0, 0, 0, 2
1503515180195,3, -3, -4, 3, 1, -1, -3, -3
1503515180218,5, -4, 21, 7, 1, 0, 0, 1
1503515180239,1, -7, -5, -4, -3, 1, 1, 0
1503515180241,1, 17, 11, 8, 1, 0, -1, 1
1503515180263,13, 18, 0, -5, 0, -1, 2, 3
1503515180285,-4, -21, -11, -7, -3, -2, 0, 1
1503515180300,-3, 2, 1, 2, 0, -1, -1, -3
1503515180322,-4, -3, -6, -2, 2, 0, -1, -4
1503515180345,-4, -6, -13, -7, -3, -2, -3, -8
1503515180361,-3, 27, 5, -1, -1, -3, 0, 1
1503515180382,-1, -9, -2, -1, 0, 0, -1, 2
1503515180405,-3, -7, 2, 1, -1, -2, -3, 3
1503515180420,1, 0, 0, 2, -2, -1, -1, -4
1503515180442,-5, -9, -6, -1, -1, 0, -2, -4
1503515180465,4, 14, 8, 4, 2, 0, 1, 3
1503515180480,-1, 7, 1, 0, -2, -2, 1, 0
1503515180502,-1, -1, 0, -3, -3, 1, 0, -7
1503515180525,6, 9, 0, -2, 0, -2, -3, 3
1503515180546,-6, -18, -9, -3, -3, -1, 1, 2
1503515180562,4, -12, -3, 3, 2, -2, 0, -8
1503515180585,-3, -1, -2, -3, -2, 0, -2, -1
1503515180606,-7, -16, -2, 0, -2, -3, -2, -4
1503515180622,2, 3, 5, -2, -1, 2, 0, 1
1503515180644,-1, -1, -6, -6, -1, -1, 1, 0
1503515180667,2, 11, 6, 1, -1, 0, 0, 1
1503515180682,-2, 0, -1, -2, -2, -1, -1, -2
1503515180705,3, 10, 4, 0, 1, 0, 1, 0
1503515180729,-2, -20, -9, -1, -2, -1, -3, -1
1503515180742,2, -8, -2, 0, -1, -1, 0, 1
1503515180765,-6, -21, -9, -4, -3, -2, -1, -3
1503515180774,0, -10, -7, -1, 0, -1, 1, -1
1503515180796,0, 3, 6, 1, -2, -2, 0, 1
1503515180817,0, 2, 0, -2, 0, 0, -1, 1
1503515180836,-1, -7, -7, -1, -2, -1, 2, -1
1503515180854,8, 32, 8, -1, 1, -1, 0, -3
1503515180877,8, -10, -3, -1, -1, -2, 1, 1
1503515180893,-1, -7, -4, -4, 0, -2, -2, 2
1503515180907,1, -5, -4, -7, -1, 0, -1, 3
1503515180922,-2, 8, 0, 0, -1, -1, 0, -4
1503515180944,2, 3, -8, -2, -1, 0, -1, -29
1503515180967,-2, -26, -11, -6, -3, -2, 0, 24
1503515180982,1, 11, 12, -6, 1, 1, 3, 9
1503515181005,-3, 2, -1, 2, -1, 0, 0, 1
1503515181026,0, 8, 7, 0, 0, -2, -1, 0
1503515181042,5, -5, -4, 4, -1, -1, -2, -1
1503515181067,1, 3, -2, 2, -1, -2, -1, 1
1503515181086,6, 2, -6, 2, -1, -1, -1, 3
1503515181102,3, -4, -11, -6, -2, -1, 4, -2
1503515181118,-4, 7, 8, 4, -4, 0, 0, -4
1503515181134,-5, -13, -7, -1, -2, -2, -1, -1
1503515181154,1, 27, 11, 0, 2, 0, 3, -2
1503515181177,-13, -22, -9, -4, -2, -1, -2, -2
1503515181193,2, 4, 3, 2, 2, 0, -1, -1
1503515181214,-4, 5, -2, -2, -1, 1, -1, 0
1503515181237,-4, -6, 0, 1, -1, -1, -8, -3
1503515181253,-3, -5, -2, 10, -1, 0, -3, -4
1503515181275,4, 2, 3, -3, 1, 0, -2, 0
1503515181297,-6, -13, -9, -7, -1, -2, 2, -2
1503515181313,-3, 0, 2, -2, -1, 1, 1, 5
1503515181335,6, 1, 1, 0, -1, -1, -3, 2
1503515181358,4, -11, -10, -6, -1, -2, 2, -1
1503515181373,2, 4, 0, -1, -1, -2, -1, -1
1503515181395,3, 49, 14, 3, 0, -1, -3, -3
1503515181417,-1, -6, 0, 0, -1, -1, -1, -2
1503515181435,-6, -25, -19, -3, 1, 0, 0, 0
1503515181455,-13, -21, -9, -4, -2, 1, -2, -1
1503515181477,0, 6, 6, 0, -2, -1, -1, -4
1503515181502,1, 2, 4, 0, -2, -1, -3, -2
1503515181516,1, -11, -3, -2, 0, -1, -1, 0
1503515181538,12, 5, 9, 2, -1, -2, 1, 1
1503515181560,-7, 2, 3, 1, -1, -1, -3, -3
1503515181576,3, 6, -5, -1, 1, -1, -1, 0
1503515181598,-8, -12, 0, 0, -1, 0, -2, -2
1503515181619,-4, -12, -4, -1, 0, 0, 1, 2
1503515181636,2, 12, 4, -2, -1, 0, 3, 1
1503515181657,3, 0, -4, -1, -1, -4, -2, -3
1503515181680,-2, -4, -6, -1, -2, -1, -5, -1
1503515181694,-5, -5, -3, -2, -1, -1, 1, -3
1503515181709,9, 10, 2, 2, 0, 1, 2, 4
1503515181718,-9, -3, 3, -2, 1, -2, -4, -6
1503515181740,4, 3, -1, 0, -1, 0, 3, 0
1503515181755,-2, 4, 1, 0, -2, -2, -5, -2
1503515181777,5, 2, -1, 2, -2, -1, -9, -1
1503515181800,1, -2, 7, -1, 1, 0, 6, 4
1503515181815,-6, -8, -6, -5, -2, -4, 0, -4
1503515181838,5, 9, 1, 2, 2, 3, 0, 0
1503515181859,1, -4, -2, -1, 0, 0, 0, 1
1503515181866,6, 2, 6, 2, 0, 1, 1, 4
1503515181875,-4, -2, -8, -3, 0, -2, -1, -2
1503515181897,2, 6, 4, 0, 0, 2, -2, -1
1503515181920,-3, -8, -6, 1, -1, 1, -1, -2
1503515181935,1, -5, -5, -1, -2, -1, 2, 0
1503515181957,1, 2, 4, 1, 0, -1, 2, 2
1503515181981,-1, -4, -2, -1, 1, -2, 0, 2
1503515181995,-1, 3, 4, 2, -1, 0, -3, -2
1503515182017,4, 3, -4, -1, -1, 1, 0, 0
1503515182040,0, 4, 3, -1, 1, -1, 0, 1
1503515182055,-3, 2, -3, -2, -2, 1, -4, -1
1503515182077,0, 1, -5, -5, -6, -2, 1, -1
1503515182100,-2, -8, -4, -2, -2, -2, 1, 0
1503515182115,0, -11, 0, 2, 0, 0, 0, -3
1503515182144,0, 11, 8, 3, 2, 0, -3, -3
1503515182160,1, 6, 0, 0, -1, -2, 2, 2
1503515182175,0, -1, 1, 2, 0, -2, 0, -1
1503515182197,-2, 0, 0, 0, 0, 0, -1, 0
1503515182220,-4, -7, -2, -1, -2, -1, -1, -4
1503515182235,-2, 14, 3, -1, 0, 0, -7, -1
1503515182257,-2, -6, -2, -1, 1, -1, 2, 1
1503515182280,4, 8, 0, 0, -4, 0, 0, 1
1503515182294,-1, -2, 4, -2, 1, -1, -1, -2
1503515182317,-2, -15, -6, -2, 0, -1, 0, -3
1503515182342,0, -2, -6, -2, -1, -1, 0, -4
1503515182354,-2, -16, 0, 0, -1, -1, -4, -1
1503515182378,-4, -11, -3, -1, -1, -1, -5, -1
1503515182400,-1, 5, 5, -1, -1, -1, 1, 3
1503515182422,0, 1, 0, -2, -1, -1, 0, -1
1503515182437,2, 3, -6, -1, -1, -1, 1, 0
1503515182460,1, -2, 0, 2, -1, 0, -2, -4
1503515182482,6, 7, 7, 1, 1, 0, -1, 0
1503515182498,-2, -2, -1, -2, -1, 0, -1, -1
1503515182520,0, -1, -8, -3, -2, -2, -1, -1
1503515182543,4, 34, 33, 6, 3, 1, 0, 2
1503515182557,-1, -10, -6, 0, -2, -2, -2, 0
1503515182581,-7, 1, -3, -2, 0, -1, -7, -1
1503515182602,-4, -6, -7, -4, -1, -2, 1, 0
1503515182618,-2, -2, -9, -1, -1, -1, -2, -4
1503515182639,1, 1, -1, -1, 0, -2, -2, -3
1503515182662,0, -2, -1, -2, -3, 0, 0, -1
1503515182678,-2, -7, -3, -1, -1, 0, -2, 0
1503515182699,2, 1, 2, -2, -1, -1, 6, 2
1503515182722,-3, 28, 11, 2, 0, -1, -6, -5
1503515182737,2, -15, -7, 0, -2, 0, -1, 3
1503515182774,-1, -7, -6, -2, 0, -1, 1, 0
1503515182789,-1, -8, -4, -2, -1, 0, -2, 0
1503515182797,0, 2, -5, 0, -1, 0, 4, 1
1503515182820,0, -11, -2, -1, -2, -2, 4, -1
1503515182842,-2, -1, 2, 0, 0, -2, -2, -3
1503515182857,-6, 4, -2, -2, -1, -1, 0, -1
1503515182880,-3, -8, -8, -3, 0, -1, 1, -1
1503515182902,-3, 13, 0, -1, -2, -2, -4, -4
1503515182912,6, 5, 4, -1, -1, -2, 0, -2
1503515182932,-1, -3, -5, -1, -2, 0, 2, 1
1503515182955,-3, -5, 0, -4, 0, 0, -5, -5
1503515182970,-3, 0, 0, -1, -1, 0, 2, 0
1503515182993,1, 3, -7, -2, -1, 1, 0, 0
1503515183016,0, 0, -6, -2, 1, -2, 0, -1
1503515183030,7, 5, 1, 0, 0, -2, -3, 2
1503515183053,3, 10, 3, 2, -1, -1, -1, -2
1503515183075,-1, -1, 6, 1, -1, 1, 0, 1
1503515183090,-1, -2, -1, -3, -1, 0, -3, 0
1503515183114,-7, -4, -4, -1, 0, -1, -2, -2
1503515183135,2, -4, -6, 0, 0, -2, 3, 4
1503515183150,-5, -12, -6, -4, 0, 0, -3, -2
1503515183172,1, 11, 0, 0, -1, -1, 0, -2
1503515183195,0, -8, 3, 0, 0, -1, 0, -1
1503515183210,-3, -5, -1, 0, -2, 1, -1, 0
1503515183232,-5, 6, 7, 0, -1, -2, -1, -3
1503515183256,-2, -4, 1, -1, -1, -2, -2, -1
1503515183270,-4, -8, 1, -1, 0, 0, 4, 0
1503515183292,-3, 2, 0, -2, -1, -2, 0, -1
1503515183299,-2, -9, -8, -3, 0, 0, 4, -1
1503515183323,-1, 1, -6, -2, -4, -2, -4, -1
1503515183345,0, 6, 0, -1, 0, -1, 0, -1
1503515183359,4, 1, 5, 0, 0, -1, 0, 2
1503515183383,-3, -1, 7, 3, 0, 0, 0, -3
1503515183405,-2, -2, -4, -3, -2, -1, -2, 0
1503515183420,1, 3, 1, -1, -2, 0, -3, -1
1503515183442,-2, -6, -4, -2, 0, -2, -3, 0
1503515183465,1, -2, 2, 1, 0, 0, -3, 0
1503515183479,-1, 3, 0, -1, 0, 0, -2, -4
1503515183502,1, -5, -6, -1, -2, -3, 4, 1
1503515183524,0, 0, -4, -1, -1, 0, -1, 2
1503515183533,-3, -3, 0, -2, -2, -2, -3, -1
1503515183555,-1, -6, 2, 2, 0, 0, -4, -3
1503515183570,-2, 9, 4, -1, -3, 1, 0, 0
1503515183592,2, -4, 4, 1, 1, 1, 4, 1
1503515183617,-1, -1, -1, -1, -1, -1, -1, -1
1503515183630,-1, -1, -3, -1, -2, -2, -5, -3
1503515183653,2, 1, -3, -1, -1, 0, 6, 1
1503515183675,-4, -12, -6, 1, 1, -1, -7, 2
1503515183690,2, 7, 5, 2, -2, -2, -3, 2
1503515183713,0, 1, 1, -3, -1, -1, 1, 2
1503515183734,-1, -4, -4, 1, -1, -2, -1, -2
1503515183752,0, 3, 0, -1, -1, -2, -2, -5
1503515183773,-1, -2, -2, -2, 0, 1, -1, 1
1503515183795,-4, -2, 0, -2, 0, -1, 0, 0
1503515183810,3, 2, 1, -1, -2, 2, 2, -2
1503515183833,-3, -5, -5, -3, -3, -2, -3, 2
1503515183856,-2, -4, 0, 1, 0, 0, -1, -1
1503515183870,0, 15, -3, -4, -1, -1, 1, -3
1503515183895,0, 2, 0, 0, -1, -1, -4, -3
1503515183915,2, 0, 0, 1, -1, -1, 2, 2
1503515183930,0, -3, -2, -2, -1, -3, -4, -2
1503515183954,0, 0, 0, 1, 0, 0, -1, -1
1503515183975,5, 24, 11, 1, 0, 2, -1, 2
1503515183990,-2, -13, -5, -3, -1, -1, -2, -1
1503515184013,-1, -2, 6, 0, 1, 0, 1, -2
1503515184041,-1, -6, -4, -2, -2, -2, 0, -1
1503515184058,-2, -9, -6, 0, 0, -1, -2, -3
1503515184080,2, -9, -7, -3, 0, 0, -4, -1
1503515184095,-2, 0, -3, 0, 0, -1, 0, 1
1503515184110,-1, -3, 0, 0, 0, 1, 0, -2
1503515184133,-1, 9, 4, -1, -2, -1, 0, 0
1503515184155,-1, 3, -7, -1, -2, -2, -1, 0
1503515184170,-2, -7, -4, 0, -1, -1, 4, 2
1503515184192,-4, -3, 0, 1, 1, -1, -3, -3
1503515184215,0, -1, 0, -1, -2, -3, -3, -2
1503515184231,-1, -5, -4, -2, -1, -1, 1, -1
1503515184254,-1, -5, -2, -3, -1, 1, -1, -2
1503515184275,0, 5, 5, 0, 0, 0, -3, 0
1503515184297,0, 1, 1, -1, -1, 0, -1, 2
1503515184312,1, -2, 0, -2, 2, 0, 0, 2
1503515184335,2, 24, 11, -1, 0, -2, 3, 0
1503515184357,-1, -3, 0, 0, -1, -1, -3, -2
1503515184373,-1, -4, -5, -3, -1, -2, -1, -1
1503515184395,1, -9, -5, 2, -1, 0, 5, 1
1503515184417,-2, -4, -1, -1, -1, -1, -2, -2
1503515184432,-1, -7, -6, -1, 1, -3, -1, -4
1503515184456,-2, -3, -3, -1, 1, 1, -1, 0
1503515184478,-1, 6, 3, 0, -2, -1, -4, -3
1503515184493,-1, -6, -4, -1, -3, -1, -2, -1
1503515184516,-4, -1, -4, -1, -1, 0, 0, -4
1503515184537,2, 1, -1, -1, 0, 1, -1, 4
1503515184553,0, -5, 1, -2, -1, -2, 0, 3
1503515184575,1, -1, -3, -1, 0, -2, 0, -3
1503515184597,-4, -3, 4, -2, -2, 0, -2, -2
1503515184612,11, 0, -2, 2, 0, -4, 0, 0
1503515184635,-8, -14, -7, -3, -1, 0, -4, -1
1503515184643,-5, -4, 0, 0, -1, 0, -2, -4
1503515184665,-1, 0, 1, 0, -1, -1, -2, 1
1503515184687,0, 5, 2, 0, 0, -1, 1, -1
1503515184702,-3, 1, -2, 0, 0, -1, 0, -3
1503515184725,1, 15, 8, -1, -1, -1, -1, -1
1503515184747,0, -1, -1, -1, -2, 0, 0, 2
1503515184762,-2, -9, -1, 3, 1, 0, -1, -3
1503515184785,-6, -13, -9, -4, -2, -1, 0, 1
1503515184793,-2, 11, 1, -1, -2, 0, -1, 0
1503515184815,-3, 5, 6, -1, -1, -2, 1, 0
1503515184837,7, -2, -3, 2, -1, 1, 0, 0
1503515184853,-2, 8, 3, 3, 1, 0, -1, 1
1503515184875,-5, -13, -4, -2, -1, -2, -3, -3
1503515184897,-8, 0, 2, 0, 0, 3, 2, 2
1503515184912,-1, -13, -2, 0, 0, -1, -2, 0
1503515184936,-4, -6, -7, -4, 0, -1, -2, -3
1503515184959,2, -7, -3, -1, -1, -2, -3, -1
1503515184973,-2, -4, -2, -2, 0, -3, 0, -1
1503515184995,1, 6, 1, -1, 1, -1, 0, -2
1503515185018,7, 4, 11, 5, 0, 0, 1, 1
1503515185032,1, -4, -4, -1, -1, -2, 0, 1
1503515185055,6, 2, 0, 1, 0, 1, 0, 5
1503515185077,-5, -1, -2, -2, -2, 0, -2, -1
1503515185093,1, 5, -2, -2, -2, -1, -1, -3
1503515185115,-5, 8, 4, 2, 0, -2, -1, -6
1503515185137,-10, -22, -9, -6, -2, -1, 0, 0
1503515185152,4, 2, -1, 2, 0, -2, 0, 1
1503515185175,-6, -5, -2, 0, -2, -1, 0, -2
1503515185198,6, 6, 3, 0, 1, -1, 0, 1
1503515185219,0, -3, -2, -3, -1, -1, -3, -2
1503515185235,5, 20, 7, 1, 1, 0, 0, 1
1503515185257,-3, 14, 13, 2, -1, 1, -1, -6
1503515185279,-8, -22, -11, -4, -3, -1, 1, -1
1503515185295,3, -1, -2, -1, 1, 0, -1, 1
1503515185317,-1, 1, 1, 0, -1, -2, 0, -1
1503515185339,-2, -6, -4, -2, -1, -1, -1, -1
1503515185356,10, 14, 8, 14, -1, 1, -1, 0
1503515185378,-1, -5, -8, -6, -2, -3, -2, -1
1503515185400,-7, -12, -4, -5, 1, -2, -2, -2
1503515185415,-4, -7, 0, -1, -1, -1, -1, -1
1503515185438,1, -3, 2, -2, 0, 2, -1, -2
1503515185445,-4, -2, -1, 0, 0, 0, -1, 1
1503515185467,-2, 5, 1, 3, 2, 0, 1, 0
1503515185475,-2, -9, -11, -6, -3, -1, -3, -2
1503515185497,-7, -12, 1, 8, -2, 0, -1, -1
1503515185520,1, 2, -7, -4, 0, -1, -1, 3
1503515185535,1, 4, 5, 0, -1, 0, 0, 0
1503515185557,-2, 4, 1, -3, -1, 1, 0, -1
1503515185579,3, -2, -2, -3, 0, -2, -1, 2
1503515185597,-8, -12, 1, -1, 1, -1, 1, -1
1503515185617,-2, 5, 1, -2, -2, -3, -1, -3
1503515185639,4, -1, -2, 0, -1, -1, 1, -2
1503515185655,2, 3, -2, 1, 0, 0, -3, -1
1503515185677,14, 19, -1, -4, -3, -1, -1, -1
1503515185700,-6, -2, -4, -2, -1, 1, -2, 2
1503515185715,1, 15, 3, -2, 0, -1, -1, 0
1503515185738,1, 1, -5, -4, 1, 0, -1, 1
1503515185759,-4, -7, 1, 0, -2, -1, 0, 0
1503515185775,-3, -10, -5, -1, -3, -2, -2, -3
1503515185799,3, 0, 0, -6, -2, -1, 0, 2
1503515185819,-1, -7, 1, 3, -1, 0, 0, 1
1503515185835,-4, 0, 3, 0, 0, -2, 0, -3
1503515185857,-4, -7, -2, -1, -3, -1, 0, -2
1503515185879,-1, -4, 0, -2, -2, -1, 0, -2
1503515185887,4, 0, 0, -4, -2, -2, -2, 0
1503515185909,-2, 2, 1, 2, -3, -2, -1, -3
1503515185924,-6, -2, -3, -3, -1, 0, -2, -1
1503515185947,-11, -30, -12, -5, -2, 0, 0, 0
1503515185969,3, 6, 4, 0, 0, -1, -1, 1
1503515185984,1, 4, 1, 3, -1, 0, -1, -2
1503515186007,-1, -7, -3, -3, -2, -2, -2, -1
1503515186029,-3, 0, 7, -1, 0, -1, 0, 2
1503515186044,8, 8, -6, -2, 1, -2, 0, 19
1503515186072,-4, -5, -7, -1, -1, -1, -3, -2
1503515186089,1, -2, 1, 1, -1, -1, 0, -1
1503515186104,4, 6, 6, 3, 4, 1, 1, -5
1503515186127,-1, 1, -3, -3, -2, 0, 0, -3
1503515186149,12, 25, 17, 7, 1, 0, 2, 1
1503515186172,-5, 7, 12, 0, -1, 2, -1, -5
1503515186187,-1, -4, -8, -2, -3, 0, -3, 5
1503515186210,0, -4, -7, -3, 2, 0, 4, -3
1503515186231,1, -2, 2, 1, 0, 0, -1, 2
1503515186247,-2, -20, -15, 0, -3, -2, -2, -5
1503515186269,0, -4, -5, -3, -1, -3, -3, -2
1503515186292,-8, 1, 3, 1, 1, -2, 1, -10
1503515186307,-3, 0, -2, -3, -2, -3, -2, -4
1503515186329,-1, 3, 3, 0, -1, -1, 0, 1
1503515186351,-3, -2, -1, -3, -1, -1, 1, -2
1503515186370,-1, 1, -1, 2, 0, 1, -6, 1
1503515186389,-7, -2, 14, 14, 1, -1, 0, -1
1503515186412,1, -2, -7, -7, 0, 1, -1, 0
1503515186427,-1, 3, -3, -3, -6, -2, -8, -12
1503515186443,6, 2, -1, -4, -3, -2, -3, 18
1503515186457,-1, -5, -3, 1, -1, 0, -2, -1
1503515186479,-1, 3, 3, 2, 2, 0, -3, -32
1503515186504,-2, -5, -3, -3, -1, -3, -1, 4
1503515186518,-10, 1, 2, 4, 6, -3, -18, 4
1503515186539,-9, -7, -3, -4, -5, 2, 6, -2
1503515186562,-6, 1, 1, 2, -2, -4, 0, 7
1503515186578,-28, -9, 1, -4, -2, 1, -3, -38
1503515186599,13, 10, 5, 2, -3, 0, 7, 8
1503515186622,9, 1, -2, -2, 0, -1, 4, 13
1503515186651,14, 6, 2, -3, -13, 0, 1, 14
1503515186667,-16, -8, -5, -3, -7, -2, 1, -2
1503515186689,19, -2, -1, -2, -1, -1, -2, -4
1503515186711,-7, -2, -2, -1, -22, 2, -6, -11
1503515186727,-1, -1, -6, -3, -6, -3, 0, -26
1503515186749,-3, -1, 2, 0, 4, -1, -6, 0
1503515186772,-7, -2, 1, 0, 46, 2, 5, 5
1503515186787,6, 1, 2, 1, -13, -3, -6, -1
1503515186809,-17, -9, -8, -1, 8, 2, -5, -14
1503515186831,14, -2, 0, -1, -17, 6, -22, -3
1503515186840,-1, -2, -3, -3, -18, 2, -6, 2
1503515186862,4, -3, -4, -3, -8, -11, 3, -1
1503515186877,-10, -2, -2, -3, 1, -10, 0, -4
1503515186899,23, 11, 4, 1, -6, -7, 13, 11
1503515186922,-5, -2, -2, 1, -11, -7, -11, -1
1503515186937,-1, 2, 0, -1, -3, -3, 8, -17
1503515186959,8, 11, 7, 4, 7, 2, -4, 11
1503515186982,-4, -8, -6, -4, -1, -1, -2, -2
1503515186997,-2, -22, -13, -3, -3, -1, -6, 8
1503515187019,9, 6, 19, 7, 1, -1, 2, -7
1503515187042,15, 26, 0, -1, -3, 0, 3, 26
1503515187064,-11, -28, -11, -4, 0, -1, -2, 18
1503515187080,-11, 2, -7, -6, -1, 0, 1, -5
1503515187102,-2, 0, 4, 0, -4, -22, -5, -21
1503515187124,10, 12, 18, 3, 0, 4, -2, -16
1503515187141,-2, -7, -10, -2, -1, 3, 5, 13
1503515187163,-5, -11, -11, -4, -2, -2, 0, -7
1503515187185,0, -4, -4, -1, -3, -1, -4, 3
1503515187199,5, 18, 0, 0, 1, 5, 3, 22
1503515187222,-11, 4, 8, -2, -3, 0, 0, 7
1503515187245,-8, -20, -11, -4, -2, 0, -3, -21
1503515187259,-3, -4, -5, -3, -3, -1, -3, -4
1503515187282,-2, 5, 1, 0, -1, -3, -3, -5
1503515187305,6, 0, 0, -1, 1, 1, 0, -3
1503515187319,3, 5, 7, 4, -3, 0, 2, 17
1503515187343,-7, -34, -19, -4, -1, 2, 3, 0
1503515187365,5, 11, -1, -1, -2, -1, -2, -1
1503515187380,-3, 7, 7, 2, 0, -9, -12, -7
1503515187402,2, -5, 0, -2, -1, 1, -1, -7
1503515187424,-6, 13, 16, 4, -1, 3, -2, -12
1503515187431,-3, -1, 5, 1, 1, -3, -1, 3
1503515187454,-9, -4, 1, -2, -1, -4, -2, -3
1503515187469,8, 2, -3, -1, -3, -5, -6, -24
1503515187491,-3, 7, 5, 2, 0, -3, -4, 0
1503515187515,0, -16, -11, -1, 1, 1, 2, 3
1503515187529,-3, -9, -9, -2, -3, -1, -3, -1
1503515187551,1, -3, -3, -3, -3, -1, -1, 2
1503515187574,1, 5, 10, 2, 0, -3, 0, 5
1503515187589,-1, -14, -8, -2, -2, 0, 0, -3
1503515187612,0, -3, -3, -1, -1, -2, -4, -3
1503515187634,5, -19, -14, -1, 0, 0, -1, 5
1503515187649,-3, 23, 5, 1, -1, 0, 2, -2
1503515187671,0, 16, 7, 1, 1, -1, 1, -1
1503515187694,16, 15, -2, -3, -1, -1, -1, 2
1503515187711,-23, -26, -9, -3, -2, -4, -4, -5
1503515187731,1, 6, 3, -3, 0, 2, -1, 0
1503515187755,6, -6, -4, -3, -1, 0, 2, 3
1503515187781,-4, -1, 4, 1, 2, 1, -1, 1
1503515187793,-2, -3, -1, -1, -4, -3, -2, -3
1503515187822,-9, -1, 0, 0, 0, 0, -4, -3
1503515187838,-1, 11, 6, 1, -1, -1, 2, 0
1503515187853,4, -5, -7, 3, 0, -3, 0, -3
1503515187875,-13, -11, 8, 3, 1, 1, 0, -3
1503515187897,-6, -23, -11, -1, 0, -1, 0, 3
1503515187919,8, 16, 5, 1, -1, 0, 1, 3
1503515187935,1, 19, 1, -4, 0, 0, -3, -1
1503515187957,5, -1, 2, -3, -3, -3, -3, -7
1503515187972,4, 1, -1, -2, -1, 0, 0, -2
1503515187995,-32, -3, 12, 5, 1, 0, -3, 3
1503515188017,0, -4, 0, -1, -1, -4, 0, 0
1503515188033,5, 1, -10, -5, -3, 1, 0, -1
1503515188055,7, -2, 4, -2, -2, -1, 1, 0
1503515188077,13, 13, -1, -1, -1, 2, -1, -1
1503515188092,-2, -5, -3, -3, -3, -2, 0, -1
1503515188117,-1, -13, -10, -2, -1, -3, 0, -1
1503515188137,-1, -9, -7, -2, 1, 16, -1, -1
1503515188155,-4, 2, -5, 0, 0, 1, -5, 1
1503515188175,-12, -14, 0, 1, -1, -5, 0, -4
1503515188197,-18, -17, 3, 0, -2, -3, 0, 1
1503515188212,5, 4, -7, -4, -2, -4, 0, -4
1503515188235,1, 8, 1, 0, 2, -2, 0, 0
1503515188257,-4, 7, 12, 6, -2, -2, 2, -1
1503515188272,3, -7, -7, -1, 6, 0, -2, -3
1503515188295,0, -14, -4, -4, -2, -4, 0, 2
1503515188317,-3, -6, 2, -5, -5, 0, -2, 1
1503515188332,2, 7, -5, -2, -2, -1, -5, -2
1503515188355,7, 11, -5, -6, -2, -5, 0, 1
1503515188377,1, -12, -5, -5, 2, 6, 2, -2
1503515188392,2, 27, 24, 6, -1, 0, 1, 0
1503515188420,4, -12, -4, 1, -2, -1, 1, -1
1503515188437,-7, -13, -8, -4, 0, 0, 1, -4
1503515188453,1, 5, 4, 3, -1, -2, -1, -2
1503515188475,12, 0, -3, -3, 0, 2, 2, 1
1503515188497,12, -27, -14, 1, 0, -1, 0, 3
1503515188512,-25, -15, -11, -2, -1, -1, 0, -3
1503515188535,-16, -5, -8, -9, -2, -1, -1, -1
1503515188557,17, 38, 15, 3, -1, -5, -2, 5
1503515188572,-25, -13, -10, -11, -4, 1, -2, -4
1503515188595,-3, -1, 1, -4, -4, -2, -3, -4
1503515188622,2, 5, 10, 12, 0, -2, -3, -5
1503515188632,-4, -10, -5, 1, 1, 0, -2, -1
1503515188655,12, 15, 11, 6, 3, -3, -2, 0
1503515188677,3, 12, 4, 1, -1, -1, -2, 2
1503515188692,-10, 0, -14, -11, -4, -2, 1, 3
1503515188715,5, 14, 4, -1, 0, 1, 0, -2
1503515188738,2, -14, -2, 1, -2, 0, -3, -1
1503515188759,-7, -12, -12, -9, 0, 0, 0, -1
1503515188767,3, 6, -1, -7, -5, -1, 2, 0
1503515188782,0, -5, -7, -2, 1, -3, 1, 1
1503515188804,-5, -3, -15, -7, -3, -3, -5, -7
1503515188827,-8, -7, -8, -6, 1, 2, -4, -8
1503515188842,1, 1, -7, -3, 0, -1, -5, 3
1503515188865,-3, 6, 6, -1, 0, -1, 1, 6
1503515188890,0, 0, 3, 0, -1, -2, 0, -6
1503515188902,0, -2, 0, 2, 0, -1, -2, -2
1503515188924,-2, -4, -6, -5, -3, 1, 2, -3
1503515188948,0, 6, 2, -2, -1, 3, 4, 4
1503515188969,2, -10, -3, -5, -1, -1, 1, 2
1503515188989,1, 6, 10, 1, 1, 1, 1, 1
1503515189007,-11, -9, 1, 2, -1, -3, -6, -7
1503515189030,-1, 10, -1, 0, -1, 0, 1, 2
1503515189044,1, 0, -3, -4, -4, -1, -1, -4
1503515189067,3, 1, -1, 1, -1, -2, 0, 0
1503515189089,-3, -23, -10, -5, -2, -3, -10, -4
1503515189104,0, -8, -4, 0, 0, 0, -1, -6
1503515189127,2, 10, 3, -2, 0, 1, -1, 2
1503515189149,-2, 2, 0, 1, 1, -2, 1, 1
1503515189164,-1, 0, -4, 3, 1, -1, 0, -1
1503515189193,5, -1, 4, -1, -2, 0, 1, 1
1503515189209,1, -2, -4, -4, 0, 1, 1, 1
1503515189224,-3, -1, -5, -3, -2, -1, -1, -3
1503515189239,1, 4, -2, -2, 0, -1, -2, -1
1503515189257,-10, -5, 0, 0, 2, 0, 0, 2
1503515189278,3, 0, 0, 10, -2, 0, 2, 2
1503515189293,4, 4, -7, -6, -2, 0, 1, -2
1503515189313,-14, -5, -4, -4, -2, 0, 1, -3
1503515189329,2, 7, 5, 6, 3, 0, 1, -6
1503515189344,2, -1, -2, -3, -4, -1, -2, 9
1503515189367,-6, -8, -12, -8, -1, 1, 0, -4
1503515189393,11, 3, -5, -5, -2, -1, 0, 10
1503515189404,8, 2, -7, -7, 2, -2, -1, 7
1503515189427,-1, -5, -6, -2, -3, -1, 2, 2
1503515189449,24, 4, 6, 0, -2, -1, 0, 1
1503515189464,-3, 3, 5, 1, -3, 0, -1, -6
1503515189487,-8, 0, 5, 11, 1, -1, -1, 0
1503515189509,-8, -1, -3, -5, -1, -2, 0, -4
1503515189525,6, -2, -2, -1, 1, 0, -1, -2
1503515189539,-7, -3, -5, -3, -2, -1, 0, -2
1503515189555,16, 8, -2, 1, 2, 0, -1, 4
1503515189578,27, 2, -2, -3, -2, 2, 1, 4
1503515189601,-7, -3, 1, 2, -1, -1, -1, 0
1503515189615,-3, -3, 1, 0, -3, -1, -2, -2
1503515189638,-6, 1, 0, -1, 0, -1, -1, 0
1503515189661,0, 2, 2, -1, -1, 0, 0, -2
1503515189668,0, -7, -4, -2, -2, 1, -5, -3
1503515189696,-15, -22, -11, -6, -2, -1, -1, 0
1503515189704,2, 8, -2, 0, -1, -2, 0, 0
1503515189728,-6, -12, -1, 2, -1, -1, 0, -4
1503515189750,2, 3, -2, 1, -3, -2, -2, -1
1503515189764,0, -2, 3, -2, -1, -1, -1, -1
1503515189790,6, 29, 29, 23, 3, 0, 0, -1
1503515189809,3, 5, -4, -6, -3, -1, -2, 1
1503515189825,1, -2, -4, -3, -2, -1, 0, -2
1503515189848,-5, 9, 2, 0, 1, -3, -3, -11
1503515189869,3, -20, -6, -7, -1, 1, 0, 0
1503515189893,4, -3, 0, 0, 1, -1, 0, 0
1503515189900,-5, -1, -4, -1, -2, -2, 0, 0
1503515189922,-12, -9, 4, 2, -1, -1, -1, -1
1503515189937,9, 6, 6, 7, 0, -2, -1, -1
1503515189962,8, -8, -8, -5, -1, -2, 0, 1
1503515189982,-10, -15, -1, -3, -3, -2, -2, -3
1503515189997,1, 4, -1, -4, 1, -1, 0, -2
1503515190020,18, 6, -2, -1, -1, -1, -3, 2
1503515190042,-2, -6, 3, -3, -1, 0, 0, -2
1503515190057,-4, 5, -4, -14, -2, 0, -2, -2
1503515190080,1, -4, -3, 1, -1, 0, -2, 1
1503515190102,1, 7, 3, 2, 0, 0, -2, -1
1503515190117,-6, -2, -4, 1, 0, -2, 1, -5
1503515190140,4, 8, 7, 1, -1, -1, 0, 0
1503515190147,-3, -4, -3, -1, -1, -1, 0, -2
1503515190170,5, 10, 4, 0, -1, 0, -1, 1
1503515190192,-1, 4, 2, 0, -2, -1, -1, -1
1503515190207,2, -1, -1, -1, 0, 0, 0, -1
1503515190229,-4, 7, 3, -1, -1, 0, 0, 1
1503515190251,-23, -7, -3, -1, 0, -2, -2, -2
1503515190267,3, 6, 2, -1, -1, 0, 0, 1
1503515190289,2, 1, -4, -9, -1, -1, -1, 0
1503515190311,5, 2, 3, 1, -1, -1, 0, -3
1503515190327,3, -2, 1, 2, 0, -1, -1, -3
1503515190349,12, 5, 5, 4, 0, -1, 0, 0
1503515190372,-3, 1, 2, 0, 0, -1, 0, 0
1503515190387,0, -1, -3, 1, 1, 0, -1, 0
1503515190409,-1, -3, -2, -4, -2, -2, -3, -2
1503515190432,0, 25, 14, 8, 1, 0, -2, 1
1503515190447,-6, -18, -8, -1, 0, -1, -1, -1
1503515190469,1, 0, -6, -7, -3, -2, 2, -2
1503515190485,-2, -5, 1, 1, 1, 0, 0, 0
1503515190500,1, 2, 1, -1, 1, 0, 0, 1
1503515190522,4, -3, -3, -3, -4, -1, -1, 0
1503515190537,-11, -4, 6, 4, 1, -2, 0, -1
1503515190560,-5, 4, 11, 1, -2, -1, -3, -2
1503515190582,-3, -8, -11, -4, -1, 0, -3, 0
1503515190605,0, 2, -1, -2, -1, -2, -1, -3
1503515190620,-2, 0, 0, -2, -2, -1, 1, 0
1503515190642,-1, -2, -5, -2, 0, 0, -2, -6
1503515190658,-2, -13, -12, -5, -1, -2, 1, 0
1503515190680,2, 1, -2, 0, -1, -1, -2, 0
1503515190703,-1, -2, -3, 1, 1, 1, 1, 2
1503515190710,0, -1, -4, -2, -1, -2, -2, -2
1503515190734,-3, -1, 1, -1, -2, 0, 1, -1
1503515190747,-1, -3, -2, 1, 0, 0, 0, 0
1503515190770,-5, 6, 0, -2, -1, -1, -1, -5
1503515190792,3, 4, -4, 0, 0, 0, 3, 3
1503515190814,2, 3, 5, 0, 2, 0, 0, 1
1503515190830,-3, -7, -1, -2, -1, -1, -1, -2
1503515190853,1, 1, -4, -2, -1, 0, -2, 1
1503515190874,-16, -17, -10, -2, 0, 0, -1, -4
1503515190889,3, 4, 5, -2, 0, -2, -1, 3
1503515190912,-2, 2, 2, 1, -1, 1, -2, -2
1503515190943,-7, -9, -7, -1, -2, -3, -3, -4
1503515190964,-7, -2, 1, -1, -1, 0, -1, -2
1503515190980,-6, -5, -10, -7, 0, -2, 0, 0
1503515191006,-5, -3, 4, -1, 0, 2, -2, -2
1503515191024,-1, 1, 1, 2, -1, -2, -2, -1
1503515191040,1, 4, 3, 1, 0, -2, -1, 1
1503515191062,-1, -2, -3, 0, -2, -1, 1, -1
1503515191084,-4, -16, -11, -3, -2, -1, -3, -5
1503515191101,0, -3, -5, -1, -2, -1, 1, 0
1503515191114,-4, -7, -9, -4, -2, -3, -1, -2
1503515191129,1, 2, 0, -2, -2, 0, 0, -1
1503515191151,-2, -7, -2, 0, -1, 0, -1, 0
1503515191174,0, 2, 4, 1, -1, -1, -3, -5
1503515191189,-2, 0, -1, -1, 0, -1, 0, 1
1503515191212,0, 0, 3, 1, 0, -1, 0, 1
1503515191233,0, 4, 0, 1, 0, 0, -6, -1
1503515191249,-2, -18, -8, -3, -1, -1, 1, 0
1503515191272,-1, -6, 0, 3, 0, -2, 0, 0
1503515191293,-2, 14, 1, -1, -1, -2, -2, 0
1503515191309,-2, -7, -7, -3, -3, 0, 1, 1
1503515191333,3, 4, 1, -2, -4, -1, 1, 2
1503515191353,-3, -2, 0, 2, 2, -1, 0, -4
1503515191371,0, 11, 0, -1, 1, -1, -3, -1
1503515191392,3, 2, -5, -5, 0, 0, 2, 2
1503515191415,4, -5, -6, -2, -2, -1, -1, -1
1503515191429,-4, -2, 0, -3, 0, 1, -2, -3
1503515191453,-3, -6, -1, -2, -2, -1, -5, 0
1503515191474,-3, -1, 1, -2, -3, 0, 0, 0
1503515191489,-2, -2, -1, -1, 0, -1, 2, 1
1503515191514,-4, -11, -5, 0, -1, -1, 0, -4
1503515191534,-2, -3, -5, 1, 0, -1, 0, -2
1503515191549,4, 4, 0, -1, -2, 0, 0, 0
1503515191572,-2, -2, 2, 4, 6, 0, 1, 0
1503515191593,-1, 0, 1, -2, -2, -2, -1, 1
1503515191609,-5, -10, 0, -3, -3, -3, -1, -2
1503515191632,9, 3, 0, 0, -2, -1, 0, 0
1503515191653,-2, -1, -2, -4, 0, 0, -1, 2
1503515191662,2, -2, -1, 4, -1, -1, -3, -1
1503515191684,-1, -6, -3, -2, -2, -2, 1, 0
1503515191700,0, -2, -3, 0, -2, 0, -2, 0
1503515191722,-9, -11, -8, -5, 0, -1, -1, -1
1503515191744,1, 2, 3, -1, -1, 0, 0, 2
1503515191767,4, 1, -7, -2, 0, 0, -1, 0
1503515191782,-1, -1, 3, 0, -1, -1, -1, -2
1503515191805,-1, -1, 0, -1, -3, 1, 0, 1
1503515191827,4, -1, 0, 0, 1, 0, 0, -1
1503515191842,-8, 0, -2, -1, -2, -2, -2, -2
1503515191864,1, 6, 5, 2, 0, 0, -1, -2
1503515191887,1, 1, -2, -2, -1, -1, 0, 0
1503515191902,1, -1, -3, 0, -2, -1, -1, -1
1503515191924,6, 7, -1, -2, 0, -2, 0, 5
1503515191947,2, 2, 1, -1, -1, -1, -1, -4
1503515191962,-1, -5, -1, 0, 1, -3, 0, 2
1503515191984,-5, -4, 0, 0, -2, 0, 0, 0
1503515192008,-3, -5, 1, 1, 1, 1, -1, -6
1503515192022,-5, -4, -4, 0, 1, -1, 0, 1
1503515192045,-6, -6, -2, -1, -1, 1, -1, 0
1503515192067,6, 3, 0, 0, 0, -2, 2, -1
1503515192082,-6, 0, 1, -1, -2, -3, -1, -3
1503515192104,3, -4, 0, -2, -1, 0, -2, -2
1503515192113,-1, -2, -4, -2, 1, 0, 1, 1
1503515192127,8, 9, 6, 2, -1, -1, -2, 2
1503515192143,4, -10, -8, -5, -2, -1, -1, 1
1503515192171,-5, -4, -6, -3, -1, -1, 0, -6
1503515192187,-6, 3, 2, 0, 2, 1, -2, -3
1503515192202,-3, -6, 0, -4, -4, 2, 8, -1
1503515192224,-1, -6, -4, -2, -1, -1, 0, 2
1503515192247,-3, 6, 0, 2, 1, -1, -5, -2
1503515192262,9, 22, 13, 4, 2, -3, -1, 1
1503515192284,-10, -11, -4, -2, -3, 1, -2, -8
1503515192307,1, -3, 0, 0, -2, -1, -6, -4
1503515192322,2, 4, -5, -3, -1, -1, 3, 7
1503515192345,-2, -2, -5, -1, 2, 0, -1, 3
1503515192367,-5, 7, 13, -1, -2, -1, 0, -3
1503515192383,3, -5, -5, -1, -1, -1, -2, 0
1503515192404,0, -8, -10, -3, 0, -3, 1, 1
1503515192427,5, 0, -6, 0, -1, -1, -2, 0
1503515192442,-7, -5, 0, -2, -3, 0, -2, -6
1503515192464,1, 12, 14, 2, 0, -1, 0, 2
1503515192487,-5, -5, -4, -1, -3, 0, 0, -2
1503515192502,0, 3, 4, -1, 0, -1, -1, 2
1503515192524,2, -4, -6, -1, -2, -1, -2, -2
1503515192547,-6, 1, -6, -1, -1, -3, -2, -1
1503515192561,8, 0, 11, 2, 0, 0, 0, 4
1503515192585,-8, -13, -9, -3, -1, -1, -2, -5
1503515192607,-4, -1, -1, 1, 0, 2, -2, -3
1503515192622,9, 2, 1, -3, -2, 0, 1, 2
1503515192646,-4, -3, -2, 3, 1, 0, 2, -2
1503515192667,-1, 6, -2, -5, -1, -2, -12, -2
1503515192689,-9, -8, -4, -2, -1, -2, 3, -4
1503515192704,-9, 3, 2, 1, 1, 0, 0, -8
1503515192727,3, 0, -2, -2, -6, -2, -3, -1
1503515192749,4, 2, -3, -6, -26, -5, 0, 1
1503515192764,-2, -9, -5, 2, 5, 13, 0, 0
1503515192787,9, 0, -1, -2, 1, 0, 0, 0
1503515192809,-3, -5, -8, 0, 6, -3, 0, 2
1503515192824,-1, -10, -10, -4, -1, -1, -1, 2
1503515192839,6, 5, 2, -4, -5, 1, -1, 1
1503515192854,4, 1, 0, -1, -3, 0, 1, 3
1503515192876,-1, 3, 0, 3, 13, -3, 1, 4
1503515192900,-2, -3, -2, -3, -6, -2, 1, -5
1503515192916,-25, -11, -3, -5, -9, -3, -1, -1
1503515192937,6, 8, -3, -2, -2, 2, 1, 0
1503515192960,-1, -1, 2, -1, -2, 0, -6, 0
1503515192967,0, 2, -1, -3, -15, 0, 5, 0
1503515192989,8, 5, 0, -2, -7, 2, 1, 2
1503515192997,-3, -6, -2, -7, -38, -5, -1, -1
1503515193020,0, -2, -3, -5, -2, 0, 2, -4
1503515193042,-3, -3, -1, 0, -9, -5, -3, -1
1503515193058,3, 0, 3, 4, 19, 4, 2, 3
1503515193080,3, 1, -1, 1, 22, -5, -6, -7
1503515193102,12, 6, -1, -5, 11, -31, -2, 4
1503515193117,3, 2, 0, -2, -3, 8, 11, 3
1503515193140,-6, -1, -3, 3, 22, 3, 17, -6
1503515193147,4, 7, 6, 4, 15, 10, 0, -2
1503515193169,17, 7, 3, 8, 35, -16, -2, 2
1503515193184,1, -2, -1, -5, 1, 7, -2, 3
1503515193207,-6, -5, -1, 1, -3, 4, 5, 1
1503515193229,-1, 1, -3, -2, 34, 14, 3, -4
1503515193244,-11, -6, 0, 0, -9, 0, 2, 0
1503515193266,3, 19, 7, 3, -8, -3, -1, 4
1503515193289,8, 1, 7, -1, -7, -2, -3, 1
1503515193304,-9, -21, -4, -1, -5, -3, -1, 1
1503515193327,-6, -14, -17, -6, -8, -5, -6, -7
1503515193351,0, 3, 3, 1, -22, -5, -2, 2
1503515193364,0, 1, -4, -7, -10, 1, -2, -4
1503515193389,15, 48, 26, 6, 9, 0, -2, 3
1503515193409,-4, 9, 7, 4, 6, 2, 1, -6
1503515193424,-6, -22, -16, -5, 0, -2, 0, 1
1503515193446,-1, -6, -6, -4, -3, -3, 1, 2
1503515193469,-5, -9, -4, -6, -6, -4, -2, -1
1503515193485,-14, 36, 25, 7, 5, 2, 2, -1
1503515193500,8, 11, 1, -1, 0, -1, 1, -2
1503515193523,-3, -4, -2, -2, -3, -2, -3, -4
1503515193537,-3, 3, 6, 0, 1, 1, -1, -16
1503515193560,-2, -7, -3, 0, 1, -1, 3, 0
1503515193582,-6, -10, -4, -1, -4, -1, 1, 3
1503515193597,-1, -5, -1, -1, 1, 0, 1, -2
1503515193620,1, 1, 7, 4, 0, 0, 0, 0
1503515193642,-8, -12, -6, -3, -1, -1, 0, 2
1503515193658,-3, -4, -3, 2, 6, 1, -2, -3
1503515193680,-1, 0, -4, -1, 0, -2, -1, 1
1503515193702,-2, -10, -3, -1, -2, -2, 3, 0
1503515193717,3, 4, -4, -3, -1, -3, -1, -1
1503515193739,-3, 2, -2, -2, -3, -3, 1, 3
1503515193762,5, 11, 3, 1, 0, 2, -3, -2
1503515193778,1, -3, -2, -1, 0, 0, -4, -1
1503515193799,-6, -1, -2, 0, -1, -1, -1, -1
1503515193824,6, 6, 1, -1, -1, -2, 2, 1
1503515193838,-2, -14, -7, -5, -2, 0, -2, -4
1503515193860,1, 2, 5, 1, 0, -1, -9, 1
1503515193881,-1, 4, 7, 2, 0, 3, 0, 0
1503515193898,1, -4, -4, 0, 16, 16, 1, -3
1503515193922,4, 1, 1, 2, -5, -7, -2, -1
1503515193941,-3, -3, 1, 0, -6, -4, 2, -2
1503515193957,-1, -5, -5, 2, 4, -8, 0, -1
1503515193971,-2, -9, -7, -6, -3, -5, -2, -1
1503515193979,9, 10, 25, 8, -1, -3, 1, 2
1503515194002,-5, -8, -9, -3, -4, -5, -3, -2
1503515194017,-1, -4, -7, -1, -1, -1, -1, -3
1503515194040,-4, -3, -6, -4, -3, -1, 1, 1
1503515194065,-6, -8, -1, 2, -2, 0, -2, 0
1503515194078,-12, -23, -17, -6, -2, -1, -2, -4
1503515194108,-3, -10, -1, 2, 1, -2, -4, -4
1503515194152,-2, -7, 2, 0, -1, -2, -1, 2
1503515194168,1, -3, -15, -6, -2, -1, 1, 1
1503515194194,-4, -10, -5, 0, -2, -1, 3, -2
1503515194212,-1, 8, 0, -5, -2, -2, -2, -1
1503515194242,-2, 5, 4, 1, -1, -2, -4, 1
1503515194262,1, 22, 11, -2, -2, -2, -4, -3
1503515194280,-2, -16, 3, 1, -1, 0, 1, -2
1503515194302,-1, -9, -6, -2, -3, -1, -3, 0
1503515194325,-1, 2, 1, 0, 0, -1, -1, -1
1503515194340,-5, 8, -1, 1, 0, 0, -4, -2
1503515194362,1, -10, -7, -1, -1, -1, 0, 2
1503515194378,1, 10, 28, 20, 3, 0, 4, 2
1503515194400,3, -1, -11, -8, -3, -3, -3, 1
1503515194424,3, -1, 0, 2, -2, -2, -2, 1
1503515194429,-5, -8, -8, -3, -2, -3, -3, -3
1503515194451,1, 7, 10, 8, 3, 0, 1, -1
1503515194467,-5, -6, -1, 0, 0, -2, 0, -4
1503515194489,0, 2, 1, -3, -2, 0, 0, 1
1503515194514,-2, 1, -2, -1, -2, -1, 0, 0
1503515194534,3, 8, 4, -1, -1, 1, -2, 0
1503515194549,0, 20, 9, 0, 0, -2, -1, -1
1503515194571,-2, -11, -10, -3, -2, -2, 1, 1
1503515194594,2, -3, 2, 0, 0, -1, -3, -1
1503515194609,0, -1, -2, -5, -2, 1, 0, -2
1503515194631,1, 5, -4, 0, 0, -2, -4, -1
1503515194654,0, -4, -1, -3, -1, -2, 0, -1
1503515194669,-5, -3, 4, 1, 1, 1, 2, 0
1503515194694,1, -3, 2, 0, 0, -1, -2, 2
1503515194714,-1, 1, -1, 2, -1, 0, -2, -1
1503515194729,-4, 0, 10, 1, 0, -2, 1, -3
1503515194752,2, -6, -7, -5, -2, 0, -2, 2
1503515194774,-2, 19, 6, 3, -2, 1, 3, 0
1503515194789,3, 0, -1, 0, -1, 0, 3, 1
1503515194811,-2, -4, -5, -3, 0, -1, -4, 1
1503515194834,-2, -6, -6, -2, -1, -1, -2, -1
1503515194849,0, 12, 24, 6, 3, 0, 5, -2
1503515194872,3, -15, -10, -1, -2, -1, -4, -2
1503515194896,1, 0, -3, 0, 0, -1, -5, 0
1503515194909,-1, -3, -8, -4, -1, 0, -2, -1
1503515194932,0, -1, -10, -6, -1, 0, -1, -1
1503515194954,0, -3, 3, 1, -1, 0, 3, 0
1503515194969,-2, 8, 7, 3, 0, -1, 1, -1
1503515194991,2, 4, 3, -2, 0, -1, -1, 0
1503515195014,15, 1, -4, 0, 0, -1, -3, -1
1503515195030,-11, -8, -3, 0, -3, -1, 0, -1
1503515195051,-2, -6, 1, -1, -1, 1, 2, 1
1503515195074,5, -7, -12, 0, 0, -1, 0, 2
1503515195097,-4, -8, -6, -2, 0, 0, 2, 1
1503515195111,-3, 0, 0, -1, -2, -1, -3, -2
1503515195134,3, 0, 3, 1, -1, 1, -2, -3
1503515195149,4, -1, -3, -2, -2, -1, -2, 2
1503515195172,-4, 0, -4, -4, -2, -2, -2, -3
1503515195194,-2, 9, 8, 0, 0, -2, -2, -2
1503515195209,-3, 1, -3, -2, -1, -3, -1, -4
1503515195232,-3, -4, -3, 0, 0, -1, -2, -1
1503515195254,-1, -3, 0, 0, -1, -1, -1, -1
1503515195269,-1, -6, -2, 2, 0, 0, -1, 1
1503515195291,-1, 0, 1, -4, -2, -2, -1, -1
1503515195314,-1, -1, -3, -3, -1, 1, -1, -2
1503515195329,-2, 3, -1, -1, -2, -1, -4, 0
1503515195351,5, -5, 0, 0, 1, 0, 1, 1
1503515195374,-4, -2, -4, 1, -2, 0, -2, 1
1503515195389,1, -7, -2, -1, 0, -1, -1, -1
1503515195411,1, 5, 1, -1, -3, -2, 0, -1
1503515195435,1, -4, -1, -4, 0, -1, 2, -1
1503515195456,-5, 4, 2, -1, 0, 0, -1, -2
1503515195471,4, -5, -5, -1, 0, 1, 1, -2
1503515195494,-2, 9, 8, 2, 0, -1, 0, 0
1503515195516,-2, -6, -5, -3, -1, -2, -1, -1
1503515195537,0, -4, 0, -2, 0, -2, -1, -3
1503515195554,4, 0, -3, -1, -1, 0, -3, 5
1503515195576,0, 1, 0, -2, -1, 1, 2, 2
1503515195591,2, 23, 18, 6, 2, 2, -1, 2
1503515195614,-6, -13, -10, -4, -4, -2, -3, -4
1503515195636,-5, -4, -5, -2, -1, -1, 3, -28
1503515195651,-4, 1, -2, -2, -1, -2, -1, 4
1503515195674,-4, -1, -4, -3, -2, -3, -4, -2
1503515195696,-24, -17, -11, -2, -4, -2, -2, 1
1503515195712,-1, -11, -5, 0, 1, 1, 9, 10
1503515195735,6, 4, 1, -4, -2, -1, -8, 8
1503515195756,5, 5, 5, 3, 1, 0, 6, 6
1503515195772,-6, -17, -1, 3, 2, -1, -2, 1
1503515195794,5, -17, -17, -6, -2, 0, -6, -10
1503515195816,3, -1, -7, -3, 0, -3, -3, 0
1503515195831,-1, 9, 10, 1, -3, -2, -8, -21
1503515195854,3, 14, 3, 1, 0, -1, 5, 4
1503515195877,-10, -9, -4, -2, 0, 0, -1, 3
1503515195891,8, 20, 10, 2, -1, -2, -1, 1
1503515195914,-4, -3, -2, 0, 0, -2, 0, -1
1503515195941,5, 2, -1, -1, 0, -1, 0, 1
1503515195951,11, 5, 2, 3, 0, 1, -1, 0
1503515195974,-3, -12, -7, 2, -2, -2, -3, -7
1503515195996,6, -1, 5, 0, 0, 0, -2, 3
1503515196012,-5, -8, -5, -2, -1, 0, -1, 2
1503515196027,3, -11, -2, -1, 1, 0, -1, 2
1503515196042,15, 8, 3, 3, 1, -1, 3, 1
1503515196064,-10, -18, -2, 1, -1, 0, -2, -2
1503515196086,11, 30, 9, -1, -2, 0, -1, -1
1503515196104,-9, -7, -6, 0, 0, -1, 0, -2
1503515196124,-3, -5, -4, -2, -3, -2, 1, -1
1503515196147,0, -3, 0, -1, 1, 0, 3, -4
1503515196162,-1, 4, 3, 0, -2, -1, -6, -1
1503515196184,-14, 16, 7, -1, 0, -1, -6, 0
1503515196208,2, -14, -9, 0, 0, 0, -1, 6
1503515196222,-4, -1, -1, -1, -1, 0, -2, -1
1503515196244,1, -4, -3, -2, -2, -1, 3, -2
1503515196266,3, 1, -3, -3, 0, -1, -2, -3
1503515196282,-1, -1, 7, 11, 0, -2, -2, 1
1503515196306,-1, -16, -12, -4, -1, 1, -1, 0
1503515196326,-7, -9, -5, -2, -3, 0, -8, -2
1503515196343,-5, 6, 2, -2, -1, -1, 1, -6
1503515196364,3, -1, -3, -1, -1, -1, 3, 9
1503515196386,0, -18, -9, -2, 0, -2, -4, -3
1503515196409,-1, 0, -2, -3, -2, 0, 3, 4
1503515196424,3, 7, 2, 0, 1, -1, -1, -3
1503515196453,-6, 14, 4, -1, -1, -3, -1, 0
1503515196469,2, 6, -5, -1, 1, 1, 1, -2
1503515196484,-1, -8, -2, 1, 0, 0, 0, 1
1503515196509,-4, -3, 2, -3, -2, 0, -2, -6
1503515196515,-3, -14, -5, 2, 0, -1, 2, 5
1503515196536,0, -4, -1, -2, 0, -1, -3, 0
1503515196558,-10, -7, -6, -5, 0, -2, -4, -6
1503515196574,-2, -1, -2, 0, -2, -2, -2, 3
1503515196596,13, 8, 4, 2, -1, -2, 0, -3
1503515196618,-3, 6, 3, -1, -1, 0, 1, 0
1503515196634,12, 13, -2, 2, -1, -1, -2, -1
1503515196656,-5, -4, 5, 0, 0, -1, -1, 6
1503515196678,-12, -1, -3, -3, -2, -2, -5, -8
1503515196694,2, 0, -2, 0, 0, 1, 0, 0
1503515196717,-3, 0, 1, 0, 0, 0, -1, -2
1503515196738,5, 4, 7, -1, -4, -2, -3, -2
1503515196747,7, 9, -1, -1, 0, -1, -1, 2
1503515196769,-2, 3, 3, -2, -1, -1, 2, 13
1503515196784,3, -2, -2, 0, -1, -1, -6, 4
1503515196810,0, 0, -1, -1, -1, 0, 1, -4
1503515196829,-8, -6, -7, -4, -1, -3, -2, -4
1503515196844,15, -2, -3, -1, 0, 0, -2, 0
1503515196866,-11, -2, 8, 1, -2, 0, 0, -10
1503515196889,2, -1, -1, -1, 1, 0, -3, 1
1503515196904,8, 8, -3, -1, -3, -3, -5, 1
1503515196919,-9, -13, -7, -2, -2, -1, 0, 0
1503515196934,3, 13, 2, -2, -1, -2, -1, -3
1503515196956,-12, 3, 0, 0, -2, -1, -3, -6
1503515196979,8, 11, -3, 0, 0, 0, 0, 11
1503515196995,3, -3, 0, 0, -1, 0, -1, 4
1503515197016,-3, -11, 5, 1, 2, -2, 3, -2
1503515197038,2, -4, -10, -3, -1, -1, -3, -3
1503515197054,-5, -15, -7, -2, -2, -2, -2, -5
1503515197078,13, 5, 0, -1, -1, -2, -2, 0
1503515197091,8, 5, 1, 2, -1, -2, 0, 1
1503515197107,2, -2, -4, 1, -1, 0, -2, 4
1503515197129,-2, -39, -13, -4, -3, 1, 6, 4
1503515197144,1, 2, -7, -4, -1, -3, -2, 1
1503515197166,13, 11, -2, -1, -1, -4, -5, 0
1503515197189,-5, -2, 1, -1, 0, -1, 1, -14
1503515197204,1, 22, 4, 0, 0, 0, -1, -2
1503515197227,-3, 20, 10, 4, 2, -1, -5, -1
1503515197249,15, 0, 1, 0, 0, 0, -1, 0
1503515197271,-12, -13, -8, -2, 0, 3, -3, -13
1503515197287,-1, 4, 5, 0, 0, 2, 6, 7
1503515197309,-4, -17, -8, -3, -1, -2, -2, 3
1503515197331,-18, 12, 9, -2, -2, -4, -3, -4
1503515197347,7, 4, -11, -4, -3, 4, -1, 3
1503515197369,-12, -7, 1, -1, -1, -5, -3, -4
1503515197391,1, -11, -6, -1, 2, 3, -2, -6
1503515197407,8, 27, 9, 3, 1, -1, 2, 7
1503515197429,-19, -8, 10, 4, -1, -3, -5, -2
1503515197452,14, 7, 6, 1, -2, -2, 1, -1
1503515197466,-10, -7, -6, -3, -1, 6, -1, -2
1503515197481,10, 4, -9, -6, -3, -4, -4, -2
1503515197496,-5, -4, 3, 4, 2, -1, -4, -2
1503515197520,1, 18, 12, 4, 2, 1, 2, 0
1503515197541,20, 17, -3, -1, -1, 2, 2, 4
1503515197557,-12, -17, -7, -4, -5, -1, 0, 1
1503515197582,-16, -17, -4, -5, -9, 3, -1, -1
1503515197601,-4, -15, -12, -4, 0, -1, -2, -4
1503515197617,-7, -15, -7, -5, -5, -5, -1, -1
1503515197638,9, -37, -8, 1, 4, 0, 1, 0
1503515197661,-2, -7, -4, 0, 0, 0, -1, -2
1503515197676,-9, 18, 4, 0, 0, -4, -4, -5
1503515197698,-2, -5, -2, -3, 0, -3, -2, -2
1503515197721,11, 4, -1, -2, -3, -1, 0, 2
1503515197736,-7, 2, -1, 4, 2, 1, -4, -2
1503515197758,-10, -1, 6, 2, 3, 1, 0, -1
1503515197783,-12, 7, 8, 4, 1, -1, -4, -4
1503515197789,-15, -8, -1, 0, 2, 3, -2, -2
1503515197811,-2, -22, -8, 2, 1, 2, 1, -2
1503515197826,-9, -9, -3, -1, -2, 3, 1, 1
1503515197850,0, 5, -2, -4, 0, -2, -2, -3
1503515197871,-11, 0, 4, 2, 0, -1, -1, -4
1503515197887,-2, 16, 3, -1, 0, 3, 3, 2
1503515197909,-3, 5, 4, 3, 1, -2, -1, -3
1503515197931,2, 9, 8, 5, 0, -1, -5, -1
1503515197946,-1, 1, 2, 0, -3, -4, -3, 0
1503515197969,0, -10, 0, 2, 1, 0, 0, 0
1503515197992,-3, 7, 1, 0, 0, 1, -1, 5
1503515198007,-5, -1, 3, 3, 0, 1, 1, -7
1503515198029,4, 1, -1, -3, -2, -4, 0, -2
1503515198052,1, 1, -9, -6, -3, -2, -2, 0
1503515198066,4, 16, 4, 0, 0, 0, 0, 0
1503515198089,4, -3, 7, 1, 0, -2, 0, 2
1503515198111,-4, -8, -3, -2, -3, -2, -3, -3
1503515198126,-2, -4, -3, -1, 1, 1, 1, 2
1503515198152,-7, -4, -4, 2, 0, -2, -2, -6
1503515198165,1, 3, 10, -2, 0, 0, -1, 2
1503515198179,-3, -48, -13, -3, -4, -1, 0, 0
1503515198202,-1, -8, -6, -4, -2, 0, 1, 0
1503515198225,0, 11, 3, 0, -1, -3, 2, 1
1503515198239,-2, 5, 2, 0, 0, 0, 0, 0
1503515198262,2, -15, -12, -6, -2, 0, -1, 1
1503515198287,-5, 7, -2, 1, 2, 0, 0, -3
1503515198299,16, 6, 1, 1, 0, -1, -3, 1
1503515198323,-1, 9, 2, 2, -2, -1, -2, 0
1503515198344,-1, -2, 3, 0, -2, -1, 0, -2
1503515198361,0, 18, 7, 2, 2, 1, 1, -1
1503515198382,-4, 12, 8, 3, -2, -1, 1, -1
1503515198404,-2, 3, -3, -1, 1, 1, -1, -1
1503515198420,0, -10, -2, 2, 2, -3, -1, -1
1503515198442,-1, 0, 0, 2, 0, -2, 0, -3
1503515198464,2, -2, -2, -7, 0, 0, 0, -3
1503515198479,9, 6, -2, -3, -1, 0, 0, 0
1503515198502,14, -1, 6, -1, -1, -1, 0, -5
1503515198524,-13, 13, 6, 2, 0, -1, 1, 1
1503515198539,2, 1, -12, -5, -1, -1, 0, 4
1503515198563,-8, -5, 0, 1, 3, -2, -1, -3
1503515198588,1, -5, -2, -2, -3, -1, -2, 0
1503515198599,-4, 12, 8, 14, -1, 0, -2, -1
1503515198622,5, -14, 7, 1, -1, -1, -2, -3
1503515198644,4, -5, -4, -1, 0, -2, -2, 0
1503515198659,-10, -1, -7, -5, 0, 1, 1, -1
1503515198682,17, 0, -5, -5, -3, -2, 1, 2
1503515198704,-15, -14, -3, -3, -4, -2, -1, 0
1503515198719,-4, -6, -4, 1, -1, -3, -2, -6
1503515198742,-3, 1, -2, -2, -3, -2, 0, 0
1503515198764,2, 0, -2, 2, 4, 1, 0, -1
1503515198779,-5, 2, 0, 0, 0, -2, -3, -1
1503515198802,-8, 9, 21, 8, -1, 2, -1, -1
1503515198824,-2, -15, -10, -3, -3, 3, 2, 2
1503515198839,-13, -8, -8, -4, -2, -1, -1, -2
1503515198862,4, 5, -1, -2, -3, -2, -2, 0
1503515198884,4, -7, -6, 0, 0, -1, 0, 0
1503515198899,-3, 0, 3, -2, 1, -1, -1, -2
1503515198924,3, 1, -11, -3, 0, 0, 0, 0
1503515198944,4, 11, 2, -2, 0, 0, 2, 0
1503515198960,-7, -11, 3, 8, 0, -2, -1, 1
1503515198982,-6, -6, -3, -3, 0, -1, 1, 2
1503515199004,-7, 2, 1, -2, -2, 2, -2, -2
1503515199026,0, 8, 3, -3, -2, -2, -2, -2
1503515199042,-4, -21, -9, -4, 0, -2, -4, -6
1503515199065,3, 4, 0, -2, -2, -1, 0, 1
1503515199086,11, 4, -2, -1, 0, 0, 0, 3
1503515199102,0, 0, -2, 0, -1, -2, 1, 0
1503515199126,7, 9, 8, -7, -1, -1, -1, 1
1503515199146,1, 1, -9, -6, -3, 0, -4, -3
1503515199162,0, 0, -2, -2, -1, -2, -2, -3
1503515199184,2, -4, 0, 2, -1, -2, -2, -1
1503515199206,-12, -5, 0, 1, -1, -2, -3, -5
1503515199222,-3, -3, 3, 1, -2, 2, -1, 2
1503515199244,-9, -7, -6, -3, -2, -1, -2, 0
1503515199251,-8, 4, 6, -1, 0, -2, 0, -4
1503515199274,6, -3, 0, -1, -1, -1, -2, 1
1503515199297,-2, -6, -3, 1, 1, -2, -1, 0
1503515199311,-4, -11, -7, -5, -4, 0, 0, 4
1503515199335,10, -10, 7, 7, 0, -1, 1, -1
1503515199356,-17, -5, -2, -2, 0, 0, 3, -2
1503515199365,-7, -9, -1, -2, 1, -1, -1, -4
1503515199386,2, 2, -1, -2, -1, -2, -1, -1
1503515199395,-4, 0, -2, -2, -1, 0, -4, -2
1503515199416,-2, 18, 13, 2, -1, -1, 0, 0
1503515199447,6, -1, -2, 0, -2, -2, 2, 1
1503515199462,-2, -3, 0, -1, -1, 1, -1, 2
1503515199484,0, 1, 0, 1, -2, 1, -1, -1
1503515199506,0, 1, 1, 2, 0, -1, -3, -3
1503515199522,12, -1, -5, -2, 1, 0, -2, 2
1503515199545,-14, -8, 1, 2, -2, -1, 0, -5
1503515199567,-1, -3, 1, 2, 0, 0, 1, -1
1503515199582,0, -1, -1, 0, -2, 0, -1, 1
1503515199607,-3, 4, 6, 11, 3, 0, -2, 0
1503515199628,-14, -11, -6, -5, 0, 0, 0, -2
1503515199642,-24, -3, 3, -2, -2, -1, 2, 0
1503515199665,9, 8, 0, 0, 0, 0, 1, 2
1503515199686,13, 8, -2, -3, -1, 0, 1, -2
1503515199702,-1, -16, -4, -3, -1, -1, 0, 0
1503515199724,-4, 1, -2, -2, 2, -2, -3, 0
1503515199746,-2, 3, -4, -2, -4, -2, -2, -2
1503515199763,8, -2, -3, -3, -1, 1, -1, 1
1503515199784,4, 7, 6, 2, 0, 0, 0, 0
1503515199806,-3, -4, -4, -1, 1, -1, -2, 1
1503515199822,-2, -1, 1, 1, -1, -1, -4, -5
1503515199844,6, -1, -4, -2, -1, 0, -1, -1
1503515199867,3, 2, 3, 1, -1, -4, 0, -1
1503515199882,-13, -3, 0, -2, -1, 0, -3, -6
1503515199905,-1, 0, -2, -2, -1, 0, 1, 1
1503515199926,-1, 0, 3, 1, -1, -1, 1, 1
1503515199942,-2, -6, -1, -1, -2, -1, -2, 0
1503515199964,-4, -1, -2, -3, -1, 0, -2, 0
1503515199986,17, 8, -2, 0, -1, -2, -2, 0
1503515200002,1, -7, -6, -3, -5, -6, -3, -6
1503515200024,-5, -3, -1, -3, -1, 1, 1, 1
1503515200046,0, -4, -5, 0, 0, 1, 0, 1
1503515200064,-2, 3, 2, -1, 1, 1, 0, 1
1503515200084,-2, -1, 1, 0, -2, -1, 1, 0
1503515200107,-3, -6, 0, 0, 2, 1, 0, -2
1503515200129,0, 0, -1, -1, -1, 0, 1, -1
1503515200144,-5, 9, 11, 4, 1, 0, -2, -1
1503515200166,-3, -3, -3, -2, -1, 0, -2, -2
1503515200189,8, 6, 0, 0, -1, -2, -1, 1
1503515200204,0, 2, -3, -2, 0, -1, 0, 0
1503515200227,0, -3, -3, -2, 0, -3, -3, -3
1503515200249,1, -3, -5, -2, -2, -1, 0, 1
1503515200266,1, 0, -1, -1, -2, -1, 0, -1
1503515200287,-1, -1, -2, -1, -3, -2, -3, -2
1503515200309,1, -7, -1, 0, 1, -1, 1, -1
1503515200324,-7, -4, -2, -4, -4, -2, -1, 0
1503515200346,-2, -1, -2, 1, 9, 0, 1, -2
1503515200369,-2, 2, 3, -1, 1, 2, -1, -1
1503515200384,0, 0, 1, 0, -3, 0, 2, 3
1503515200406,2, -3, -5, 0, -2, -1, -2, 0
1503515200429,11, 9, 2, -2, 0, 0, -1, -1
1503515200444,-9, -10, -5, -2, -4, 0, -2, -4
1503515200468,3, -1, 0, -4, -18, -2, 0, 1
1503515200489,-2, 1, 0, 4, 10, 5, 1, -3
1503515200504,0, 4, 9, 4, 0, -2, -2, -4
1503515200526,5, 0, -3, -3, 1, -2, 0, 2
1503515200550,-3, 0, 0, 2, 6, 1, 0, 2
1503515200564,6, 1, -3, 0, -5, 0, -1, 4
1503515200593,-6, -18, -9, -2, -2, -2, -2, -3
1503515200609,-5, 0, -6, -3, -1, -1, 0, -1
1503515200625,-6, 2, 3, 2, 0, -1, -8, -1
1503515200646,4, 1, 1, -1, 3, 1, 0, 1
1503515200654,-4, 8, 1, 1, -1, -1, -2, 2
1503515200677,-11, -12, 1, 0, 0, 0, 3, -2
1503515200698,5, 10, 5, -5, 0, -1, 0, 2
1503515200720,2, -2, 0, -1, -2, 1, 0, -1
1503515200736,-4, -23, -11, -4, -1, 0, -1, 3
1503515200759,3, 9, 10, 3, 0, 0, -2, 0
1503515200774,-1, -3, -7, 0, 0, -1, 1, -2
1503515200796,1, 7, 2, -1, -2, -1, 1, 0
1503515200819,-2, -2, -1, -3, -1, -2, -2, -1
1503515200834,2, 6, 2, 1, 2, -2, -9, 0
1503515200859,-1, -10, -11, -7, -6, -3, -1, -3
1503515200901,-4, 0, 2, 2, 1, 0, 0, -2
1503515200916,-2, -15, -7, -3, -2, -1, -2, -1
1503515200925,-2, -1, -3, -3, -1, -2, 0, -3
1503515200948,2, 0, -4, -2, 3, 0, 0, 2
1503515200971,-4, -6, -4, 1, 0, 0, -2, -3
1503515200988,-7, 5, 5, -1, -3, -2, -2, -2
1503515201007,6, -14, -7, -2, -1, 0, -1, -2
1503515201029,-7, -5, 3, 0, -1, -1, -1, -2
1503515201051,3, 5, -4, -3, -1, 1, -2, -2
1503515201067,6, 6, -3, 0, -1, 0, 2, 1
1503515201089,2, 15, 8, 0, 0, 0, -2, 1
1503515201112,-7, -11, -7, -3, -2, -3, -2, -3
1503515201127,-5, -11, 3, 2, -3, -1, -2, 0
1503515201149,4, 1, 2, -1, -2, 1, 2, 1
1503515201172,2, 7, -1, 0, 0, -2, 1, 1
1503515201187,-3, -8, -11, -4, 0, -2, 0, -1
1503515201209,-4, 5, -4, -2, 0, -1, -2, -4
1503515201231,8, 6, -1, 1, 0, -2, -1, -1
1503515201248,-8, -2, 4, 2, -1, -1, -3, -1
1503515201269,-13, -6, -2, -1, -1, -1, -1, -4
1503515201291,-16, -14, -10, -5, -4, -3, -2, -7
1503515201307,9, -1, 2, 0, -4, -1, -2, -2
1503515201329,-6, -7, 0, 1, 5, -1, 7, 2
1503515201351,-1, -4, 2, 6, 32, 5, 2, 1
1503515201367,3, -3, -8, -6, -12, -1, -3, 2
1503515201390,0, -10, 0, 0, -5, 0, -2, 0
1503515201411,1, -1, -6, -3, -5, -3, -4, -1
1503515201427,-2, 4, -2, -2, -2, 1, 0, 2
1503515201449,-1, 10, 10, 7, -4, 2, 0, 0
1503515201471,2, 0, -2, -5, -5, 0, -1, -2
1503515201487,-11, -16, -10, -2, 1, 0, -1, -1
1503515201509,12, -23, 0, 0, -8, -6, -1, 0
1503515201531,0, 7, 3, 0, 29, 0, -1, 0
1503515201547,1, 7, 3, -3, -12, -1, 2, 1
1503515201561,-1, -1, -3, -2, 1, -1, -4, 0
1503515201577,-6, -4, 1, 1, -3, 0, 1, -1
1503515201599,17, 29, 17, 2, 0, -1, 0, -1
1503515201621,-14, -13, -8, -5, 7, 0, -1, -2
1503515201636,0, -4, -2, 2, -3, -1, -1, 1
1503515201659,-1, 0, -4, -2, -1, 0, -1, -4
1503515201680,7, 9, 32, 10, 5, 2, 2, 8
1503515201696,-16, -10, -16, -6, -4, -2, -4, -9
1503515201719,0, -3, -3, 0, -2, -2, 1, -1
1503515201741,-6, -18, -8, -1, 0, -2, 0, -6
1503515201749,0, 6, 3, -1, -3, 4, -3, -2
1503515201771,-9, 20, 7, 0, 0, 2, 1, 4
1503515201787,5, 5, 6, 2, 0, -3, -1, 4
1503515201811,1, 5, -4, -1, 5, -3, -3, -2
1503515201831,-5, -4, -5, -5, -8, -7, 0, -3
1503515201847,-5, 4, 0, 2, 7, -1, -1, -4
1503515201869,-3, -2, 0, 0, -1, 0, 0, 0
1503515201891,5, 7, -2, 0, 0, -1, -1, 1
1503515201907,3, 17, 20, 3, 0, 0, -4, -1
1503515201929,-11, -19, -3, 2, -2, 0, 0, 0
1503515201951,-7, -17, -10, -2, -2, -4, -4, -8
1503515201974,11, 8, 1, 0, 13, 2, -1, 0
1503515201989,-8, -10, -3, -1, 0, -3, 0, -2
1503515202012,2, -4, -6, -3, -14, 0, 3, -1
1503515202034,-1, 8, 0, 2, 0, 0, 5, 2
1503515202051,-1, -2, -3, -3, -3, 0, -3, -2
1503515202071,0, 0, 0, 2, 15, 2, 0, -1
1503515202094,-4, 1, 4, 4, -13, -1, -1, 1
1503515202108,6, 7, 5, 1, 0, 0, -2, 2
1503515202131,2, -5, -6, -5, -6, -1, -1, 0
1503515202154,-7, -4, -4, -2, -9, 1, 0, -4
1503515202169,-1, -1, 1, -3, -7, 2, -3, -1
1503515202191,-14, -13, -7, -11, -59, -20, -5, -3
1503515202214,0, -2, -3, -5, -15, -3, -1, 2
1503515202229,5, 3, -1, 0, 18, 11, 4, 8
1503515202251,0, -2, -2, 4, 8, 2, -1, -1
1503515202274,2, 0, 0, 1, 9, -2, -1, 0
1503515202289,-5, -1, 0, 0, 20, 1, -5, -8
1503515202313,-3, -1, -3, -1, 2, -2, 0, -6
1503515202334,7, 2, -10, 2, 9, 2, -3, 0
1503515202349,-1, -6, 0, -2, 4, -2, 0, -1
1503515202371,4, 19, 3, 0, 4, 0, 1, 6
1503515202394,-5, -7, -8, -2, 5, 0, 0, -1
1503515202409,6, -5, -4, -1, -2, -2, -3, 1
1503515202431,-7, -4, -2, -2, 1, -2, -3, -10
1503515202454,4, -2, -1, -2, -4, -5, -2, -3
1503515202469,2, 7, 11, 3, 2, 3, -2, 2
1503515202491,1, 1, -2, -2, 0, 0, -1, 2
1503515202514,-4, -22, -12, -2, -1, -1, 0, -2
1503515202529,-2, 3, 5, 1, 0, 1, 3, 2
1503515202551,1, -2, -2, -2, -2, -1, -1, -2
1503515202574,-4, 6, 7, 1, 0, 1, -3, -4
1503515202603,2, 18, 7, 1, 1, 1, 0, 1
1503515202619,-5, -7, -2, -4, -1, -4, -2, 1
1503515202640,1, -2, -2, 1, -1, 0, -3, -4
1503515202663,-1, -6, -2, -2, -3, 0, 1, 2
1503515202679,2, 2, 1, 0, -1, 0, -1, -1
1503515202700,-6, 1, -1, -2, -1, -1, -3, -3
1503515202723,1, 10, 16, 0, 2, 0, 2, 2
1503515202739,4, -15, -11, -3, -1, -1, 0, 2
1503515202760,-4, -9, -3, -3, -4, -2, -4, -2
1503515202769,-2, -4, -1, -3, 1, 0, 0, -2
1503515202792,2, 10, 4, 0, 0, 1, -1, -1
1503515202814,0, -5, -6, -3, 0, 1, -2, 1
1503515202828,2, 11, 8, -1, -2, -1, -4, -2
1503515202851,-1, 1, 1, -1, -3, -2, -2, 2
1503515202874,0, -1, -2, -1, -2, -1, 2, 0
1503515202889,-3, -1, 0, 2, 0, 0, 1, -3
1503515202911,2, 6, -3, -2, 1, -3, -2, 1
1503515202934,4, 11, 3, 2, 0, -1, -7, -3
1503515202957,0, -6, 0, -9, -1, 1, 1, 0
1503515202964,0, 0, -1, 0, -1, -1, 1, 2
1503515202987,-5, 2, 2, 1, -3, -1, -1, -3
1503515203001,0, -2, -5, 2, 0, -1, -1, 0
1503515203023,-1, -10, -8, -2, -2, -2, -2, -2
1503515203046,-1, 5, 1, -4, -2, -1, 2, -3
1503515203061,-1, -5, -1, 0, 0, 0, -4, -2
1503515203086,0, 0, -3, 0, 1, -1, -1, -2
1503515203105,1, 23, 12, 5, 0, 0, -3, 2
1503515203123,-4, -9, -2, -3, -2, -1, -1, -1
1503515203143,4, -3, -4, -2, -1, -2, -1, 3
1503515203167,-2, 0, 1, 0, -1, 0, -2, -3
1503515203182,0, -3, 0, -1, -2, -1, 1, -4
1503515203204,1, 12, 13, 3, 0, 0, -2, 3
1503515203227,0, -10, -8, -3, -1, -2, 1, -1
1503515203249,10, 8, -3, 2, 0, -1, 1, 0
1503515203271,-3, -3, 1, -1, -2, 0, -3, -3
1503515203290,-2, -7, -5, -2, 0, 0, 1, -2
1503515203309,-1, -17, 0, -1, -1, -1, -1, 0
1503515203325,0, -5, -5, -1, -2, -2, -3, -2
1503515203347,-6, -9, -6, -1, -2, 2, 1, 1
1503515203368,-1, 3, 2, 3, 0, -1, 1, -1
1503515203384,2, 1, -1, -2, 0, -1, 1, -2
1503515203407,-6, 1, -5, 0, -1, 0, -3, -5
1503515203414,3, -12, -7, -2, -1, 1, 0, 1
1503515203436,0, -8, -4, 1, -2, -3, -3, -6
1503515203451,4, 10, 10, 1, -2, 1, 0, 3
1503515203474,0, 6, 1, -2, 0, 0, 0, 1
1503515203498,1, -1, 2, 2, -1, -2, -2, 0
1503515203511,0, 15, -1, -2, -1, -1, -2, -1
1503515203527,-6, -22, -7, -2, -2, -1, -3, -2
1503515203549,4, 6, -2, -5, 0, -1, -1, 1
1503515203564,3, -1, -4, 1, 1, -1, -1, -3
1503515203589,7, 9, -2, -1, -2, 0, 1, 1
1503515203595,-5, -1, -1, -2, -3, -1, -3, -4
1503515203616,-3, -5, -5, -3, -2, 0, -3, 0
1503515203632,-1, 7, -2, -2, -1, -1, 0, 0
1503515203656,-3, -7, -4, 1, -1, -1, 0, -1
1503515203676,4, 2, 1, -1, 0, -1, -1, 0
1503515203692,-1, -1, 3, -2, 0, -1, -2, -1
1503515203714,-4, -15, -5, -1, 0, 0, -2, -1
1503515203736,0, 27, 7, -1, -1, -1, 1, -1
1503515203751,-1, -6, -2, 0, -1, 0, -4, -1
1503515203774,1, 4, 3, 1, -1, -1, -2, 0
1503515203798,-6, -2, -2, -3, -3, -2, 1, -1
1503515203811,4, -4, 0, 2, -2, 1, 0, -1
1503515203834,1, -10, -7, 0, 0, 0, -3, 0
1503515203858,2, -1, 1, 0, 0, 0, 0, 2
1503515203879,-4, -10, -5, -3, -1, -1, 1, -2
1503515203896,-1, 4, -2, -2, -1, -1, -2, -3
1503515203916,0, 0, -4, -1, -1, -1, -2, -1
1503515203939,0, -2, -2, -1, 1, -2, 1, 1
1503515203953,8, 9, 2, 1, -2, -1, 1, 0
1503515203976,-2, -2, 1, 0, -1, 1, 0, 0
1503515203999,0, -5, -2, -2, -1, -2, 0, 2
1503515204013,-3, -10, -6, -2, -3, -1, -2, 1
1503515204029,1, 0, 0, -1, -1, -2, -2, -2
1503515204044,2, -4, -3, 0, -2, -2, -2, 1
1503515204067,2, -9, -5, -3, 0, 0, 0, 1
1503515204088,-1, -11, 0, -1, -4, 2, -2, -7
1503515204104,2, 7, 1, 0, 1, -2, 1, 2
1503515204127,-2, 1, 1, 0, 1, 0, -2, 0
1503515204149,2, 11, 3, -1, -1, 0, 1, -1
1503515204164,-11, -8, -5, 0, -2, 0, -4, -6
1503515204186,5, 21, 9, 3, 0, 2, 2, 2
1503515204194,3, 3, 1, 0, -3, -2, -2, -2
1503515204216,4, 5, 2, 0, 0, 0, -1, -2
1503515204239,-1, 0, 0, -4, -1, -3, 0, 0
1503515204253,-4, -3, -2, -3, -2, -2, -2, -7
1503515204283,1, 0, 1, 0, -1, -2, 0, -3
1503515204299,-5, -7, -6, 0, 1, -1, -2, 0
1503515204307,0, 1, 0, -1, -1, 0, -1, -2
1503515204329,-1, 1, 2, 0, 1, 0, 0, -1
1503515204344,1, 6, 3, 2, 0, 0, 0, 0
1503515204366,-1, 0, 4, 1, 1, 0, 0, -2
1503515204389,1, -6, -6, -1, -2, -1, -1, -4
1503515204404,-2, -7, -7, -3, -2, -3, -2, -3
1503515204429,2, 4, 0, -1, 0, -1, 0, 2
1503515204449,-2, 5, 3, 0, -2, 0, -2, -1
1503515204466,-2, -11, -7, -2, 1, 1, -1, 1
1503515204487,2, 2, 0, -2, 0, -1, 0, 3
1503515204509,-4, 3, -1, -2, -2, 0, -1, -4
1503515204536,-1, -4, -3, -1, -1, 0, 1, 0
1503515204553,-1, -5, -2, -1, -1, -2, -1, -4
1503515204569,-3, -12, -6, -3, 0, -3, 0, -1
1503515204584,1, 1, -1, -3, -2, -2, -1, -2
1503515204607,2, -1, 0, 1, -2, -1, -2, 2
1503515204630,-1, 0, -2, 1, 0, -1, -1, -2
1503515204644,0, 6, 4, -1, 0, -1, 0, 1
1503515204667,1, -16, -9, -2, -1, -1, -1, 1
1503515204689,-3, 10, 13, 2, -1, 0, -3, -5
1503515204705,-5, -1, -3, -2, -1, 0, -1, -2
1503515204727,1, 6, 3, 0, -1, -2, -2, -1
1503515204749,0, 5, 0, 0, -1, -2, 1, 2
1503515204773,-2, 1, 0, -2, 0, 1, 0, -3
1503515204787,-4, -20, -6, -1, 0, 1, 0, -2
1503515204809,1, 1, 0, 1, 0, 0, -2, -1
1503515204835,1, 7, 1, 1, 1, -2, 0, 0
1503515204847,2, 6, 1, 1, -1, 0, -3, 1
1503515204869,0, -3, 0, 0, 1, -1, -1, 1
1503515204891,3, 7, 0, -1, -2, 0, 0, 0
1503515204907,1, 0, -2, 0, 0, -1, 1, 0
1503515204933,-6, -11, -3, -3, -1, -1, -3, -1
1503515204952,1, 2, -1, -2, -1, 0, -1, 0
1503515204967,-1, -1, -2, 2, -2, -3, -1, -2
1503515204989,-2, 3, -2, -3, -1, -1, 0, -1
1503515205012,2, -3, -1, 0, 0, -2, -1, -1
1503515205027,3, 6, 9, 0, -1, -1, 0, -1
1503515205049,-2, -1, -5, -3, -1, -1, -1, -1
1503515205075,-1, -3, -7, -1, 0, -1, 1, 0
1503515205091,-1, -4, -3, 0, -2, 0, -1, -2
1503515205109,-1, 7, -1, -2, -1, 0, -1, 1
1503515205133,-3, -10, -6, -1, -1, -1, -3, -2
1503515205147,-1, 5, 5, 2, 0, 1, 1, 1
1503515205169,2, 7, 2, -1, -1, 0, 0, -2
1503515205191,-1, 3, 0, -2, -2, -1, -1, -1
1503515205207,2, -3, -1, -3, -2, -1, -1, 2
1503515205229,-3, -9, -4, -2, 0, -1, -2, -2
1503515205251,-4, -15, -3, 0, 0, -1, -1, 0
1503515205270,3, 11, 11, 1, 0, 1, -3, 0
1503515205289,-1, -3, -5, 2, 1, 1, 0, -1
1503515205311,-4, 10, 3, -1, -1, -1, 1, -3
1503515205327,-2, -8, -6, -3, -4, -1, -1, 0
1503515205349,-2, -2, -3, -1, -2, 0, -1, -1
1503515205372,3, 12, 12, 2, 0, -2, -1, 2
1503515205387,-1, -6, -8, -1, -3, -2, -2, -2
1503515205410,-1, -6, -1, -1, 1, 1, 2, -2
1503515205432,-2, -4, -5, -2, -1, -1, 0, 0
1503515205446,-1, -2, 1, -1, -2, -1, -2, -2
1503515205469,3, -16, -10, 0, 1, 0, -1, 2
1503515205491,0, -4, -2, -3, -2, -3, -2, -1
1503515205507,-1, 3, 2, 0, -2, 0, -1, 0
1503515205530,-1, 3, 2, 0, -1, 1, 0, -2
1503515205551,-1, 0, -3, -3, -1, 0, -1, 1
1503515205566,-4, -7, -4, -2, 0, -1, -1, -4
1503515205589,3, -11, -1, -1, -1, -1, -2, 1
1503515205612,-1, 6, 0, -1, -2, -2, -2, -1
1503515205626,0, -4, -2, -2, 1, -1, -1, -2
1503515205641,0, 1, -2, -1, -1, 1, -1, -2
1503515205656,-4, -1, 1, 0, 0, 1, -2, -2
1503515205679,-6, -6, -4, -3, -3, -2, -1, -5
1503515205704,2, 4, -3, 0, -1, -2, 0, 2
1503515205723,0, -5, -6, -2, -1, -1, 0, -1
1503515205746,-1, 3, 4, 1, 0, 0, 1, 0
1503515205761,0, -3, 0, -3, 0, -1, -2, -1
1503515205770,-2, -7, 1, 0, -2, -1, 0, 0
1503515205791,1, -1, 2, 1, 1, -2, -1, -1
1503515205814,4, 9, 8, -2, 1, 0, 2, 3
1503515205838,-1, -2, -7, 0, -1, -2, -3, -3
1503515205851,-2, -5, -6, -3, -2, -1, 1, -2
1503515205874,0, 6, 2, 0, -1, -2, -2, -2
1503515205889,-2, -4, -6, -2, -1, -1, -1, 0
1503515205911,-3, -13, -2, 1, 0, 0, 0, -3
1503515205933,2, -4, -3, -2, -1, 0, 1, -2
1503515205941,-1, 3, 3, 0, 0, -1, -1, 1
1503515205963,-2, 4, 1, -3, -1, 0, -1, -4
1503515205979,-1, 7, 1, 1, 0, -2, -3, -3
1503515206001,-5, 8, 9, 3, 1, 0, -1, -3
1503515206023,-5, -9, -5, -3, -1, -2, 0, -1
1503515206040,2, -3, -2, 0, 0, -1, 0, 1
1503515206061,0, 0, -4, -2, -1, -1, -3, -2
1503515206083,1, -1, -3, -2, -2, -1, 0, 0
1503515206098,2, 2, -2, 0, -1, 1, -1, 0
1503515206121,-6, -4, -5, -3, 0, -1, -2, -1
1503515206143,-4, -5, -1, 0, -1, 0, -2, -1
1503515206158,-2, -3, -1, -1, 1, 0, 2, 1
1503515206181,-7, 0, 7, 0, -1, 1, -1, 0
1503515206203,-1, -7, -5, -3, -2, -1, 0, -3
1503515206218,2, 0, -5, -1, -1, -2, 0, -2
1503515206241,2, 2, 0, -2, 0, -2, -1, 0
1503515206263,1, -10, 2, -1, -1, 1, -1, -2
1503515206281,0, 6, -1, -1, 0, -1, -1, -1
1503515206301,2, 5, 3, -1, 0, -1, 0, -1
1503515206323,0, -4, -3, 0, -1, 0, 0, -1
1503515206338,3, 11, 16, 3, 1, 0, 2, -1
1503515206361,-2, 12, 6, -1, -3, -3, -1, -3
1503515206384,-2, -3, -3, 0, -2, -2, -2, -1
1503515206398,0, 14, 6, 0, 0, -1, 1, 2
1503515206414,-2, -6, 2, 3, 0, -18, 1, -2
1503515206429,2, 23, 14, 3, 0, 6, 0, 1
1503515206453,3, -16, -4, -1, 1, 3, 1, 3
1503515206482,-5, -3, -12, -4, -2, -1, -2, 0
1503515206503,-3, -2, -7, -4, -1, 0, 1, 0
1503515206520,-6, -2, 1, 3, 0, -1, 0, -2
1503515206534,-7, -10, -2, -1, -1, 4, -2, -4
1503515206549,1, -23, -7, -2, -1, 0, 1, 3
1503515206571,-2, -14, -6, -2, -1, -2, -3, -3
1503515206580,-7, -22, -6, -3, -2, 3, 1, 4
1503515206601,26, 15, 3, 1, 0, -1, 0, 0
1503515206623,-5, 4, -3, -3, -2, -2, -1, -3
1503515206645,4, 9, 8, 3, 1, -3, -1, 0
1503515206661,-4, -14, -17, -4, 0, 0, -2, -2
1503515206683,0, -6, -6, -3, -3, -1, 0, -3
1503515206705,2, 1, 0, 0, 1, -1, -1, -1
1503515206721,-2, 16, 5, 1, -1, 0, -1, 1
1503515206744,-1, 2, 2, -4, -2, -1, 0, 2
1503515206765,10, -11, 5, 2, 0, -3, -1, 1
1503515206782,-17, -9, -5, -3, -1, 1, -1, -3
1503515206803,-14, -21, -5, -5, -4, -2, -3, -4
1503515206825,15, -3, 0, 3, -3, -3, -3, -2
1503515206841,-12, 8, 6, -3, 1, 0, -1, 1
1503515206864,2, 21, -6, -2, 0, 0, 1, 0
1503515206888,14, 7, 2, 2, 0, 0, -1, 4
1503515206902,-8, -2, -4, -4, -1, -1, -2, -7
1503515206917,5, -2, 4, -3, 0, -4, -2, 0
1503515206932,-15, -6, -7, -1, 0, -3, 2, 2
1503515206955,-4, -16, -10, -4, -2, -1, 1, 0
1503515206976,-3, 2, -1, 0, 1, -1, -2, -2
1503515206992,2, 5, -1, -3, 0, -1, 0, 0
1503515207016,-4, 23, 9, 4, 0, -2, 0, -3
1503515207036,4, -35, -21, -3, 0, -3, -2, -1
1503515207052,7, 5, 5, -4, -3, -24, -3, 2
1503515207073,-1, 12, 16, 9, 1, 5, -2, 1
1503515207096,-7, -18, -11, -3, -2, 1, -4, -1
1503515207114,-6, -4, -1, -8, -5, 0, -1, -3
1503515207134,4, -29, -9, -3, 0, 2, 2, 0
1503515207158,3, 1, 0, 0, 0, 14, -1, -1
1503515207172,-5, 25, -3, -3, 0, -1, 1, -3
1503515207194,-1, 10, 21, 8, 2, -1, 0, -1
1503515207216,-8, -5, -10, -6, -1, -4, -2, 0
1503515207232,23, -2, 5, 5, -1, -4, -1, -3
1503515207254,-4, 2, -1, -3, -1, -3, -1, 3
1503515207276,-6, -8, 5, 9, 4, 7, -2, 3
1503515207292,-2, 3, 1, 2, -1, 0, 0, 5
1503515207316,-12, -11, -11, -10, -3, -1, 0, -7
1503515207336,2, -5, -1, -4, -2, -2, -1, -5
1503515207353,-2, -1, 0, 1, 1, -2, 0, -4
1503515207374,-2, 9, 5, -1, -2, -3, -1, -3
1503515207396,-1, 5, -5, -1, -2, -1, 1, -1
1503515207411,7, 4, 4, 0, 0, 0, 0, 1
1503515207433,0, -6, -1, 3, 1, -3, -2, -3
1503515207456,0, 0, -1, -4, -3, -1, 1, 3
1503515207471,-3, -2, -1, -4, 1, -1, -1, 1
1503515207493,-3, -10, -3, -3, -3, 0, 2, -2
1503515207501,-2, 8, 10, 4, 3, 0, 2, -2
1503515207523,-4, -2, -6, -5, 1, 0, 0, -3
1503515207531,5, -14, 0, -1, -3, 1, 2, 1
1503515207553,-5, 1, -9, -1, 0, -1, -1, -4
1503515207576,-5, 2, -5, -4, 0, -2, -2, -4
1503515207598,3, -1, 3, 1, -2, 0, 1, -4
1503515207613,2, 13, -1, -8, -1, 0, -4, -4
1503515207636,-1, 4, 0, 0, -1, 1, -1, 6
1503515207659,0, 0, 3, -3, 0, -2, -2, 4
1503515207674,1, -6, -15, -20, -5, -1, 0, 3
1503515207696,-1, 8, 5, 4, -1, -2, 0, -5
1503515207719,-1, -3, -7, -6, -2, -1, 6, -1
1503515207726,0, -9, 4, 4, 0, -1, -3, -2
1503515207748,-1, 11, 9, 0, -2, -1, -1, 1
1503515207763,0, -1, -3, -3, 0, -1, -3, 0
1503515207786,1, -7, -7, 9, -2, -1, 0, 0
1503515207808,-3, 11, 6, -8, -3, -2, -3, -4
1503515207823,4, -7, -1, 1, 2, 0, -2, 0
1503515207845,-3, 25, 6, 0, -1, -2, -1, -1
1503515207868,-6, -9, -8, -1, -1, -2, -3, -7
1503515207885,-13, 0, 5, -3, 1, 0, 1, 0
1503515207905,29, 9, 5, 3, 0, -1, -1, 3
1503515207928,-7, -25, -11, -6, -2, 0, 1, -2
1503515207944,-5, -27, -17, -4, -3, 0, -1, 1
1503515207965,2, 4, -3, -3, -1, 0, -1, 1
1503515207988,-1, 0, -6, -3, -1, -2, -4, -4
1503515208003,-5, 0, -2, 0, 0, 2, 1, 1
1503515208026,-2, 4, 1, -1, -1, -1, 1, -2
1503515208048,-1, 0, 9, -1, 0, -1, 5, 0
1503515208063,-3, 7, 1, 1, -2, -2, -1, 1
1503515208087,-2, 14, 1, 0, -1, -2, 2, 1
1503515208094,-7, 6, 11, -1, -2, -1, -1, 0
1503515208116,4, 12, -8, -6, -1, 1, 1, 1
1503515208138,0, -6, 0, -1, 1, 0, 1, 0
1503515208154,3, -1, 5, 0, 0, 0, 2, 1
1503515208168,-9, -6, -11, -1, -1, -2, 1, -1
1503515208183,-2, 0, 0, -1, -2, 0, -1, -4
1503515208205,6, 13, 7, 4, 2, 0, 2, 1
1503515208228,5, 3, 2, -2, -1, -1, -2, 0
1503515208243,6, 5, 1, 2, 3, -1, 0, 0
1503515208265,-2, 7, 3, -1, -1, 1, 2, 3
1503515208289,-1, -7, 0, 2, -1, -1, 0, 1
1503515208312,2, 3, 8, 2, -1, -4, -1, 0
1503515208327,-7, -2, -7, -4, -3, 0, -2, -2
1503515208349,-3, -1, -1, 1, -4, -1, 0, -2
1503515208371,-4, -3, -2, -1, 0, -2, -1, -2
1503515208393,-1, -4, -2, 0, 1, 0, -1, -1
1503515208409,-14, -8, -5, -2, 0, -2, -4, -8
1503515208432,0, 0, -2, -1, -1, -1, 0, 0
1503515208447,3, 3, 1, 0, -1, 1, -1, 0
1503515208469,2, -3, 3, -1, -1, -1, -1, 1
1503515208492,0, -1, -5, -3, -3, 0, 1, 0
1503515208506,3, -8, -12, -4, -1, -3, -1, -5
1503515208529,-9, -11, 2, -1, 0, -1, 0, -1
1503515208551,11, 8, 1, -3, -1, -1, -2, 0
1503515208567,-9, 2, 2, 0, 1, -1, -1, 1
1503515208591,1, 4, -2, -3, -2, 0, 1, -1
1503515208611,1, 2, -1, -1, 0, -1, 0, -2
1503515208626,6, 3, 2, 0, 0, 1, -1, 1
1503515208649,-6, -4, -1, 2, -1, -3, -2, -4
1503515208671,-2, 2, 7, -1, 1, -1, 1, 1
1503515208686,-2, -3, -3, -2, -2, -1, 0, 0
1503515208709,-10, -16, -1, -2, -1, 0, -1, 0
1503515208733,-3, 23, 12, 8, -1, 1, -1, -2
1503515208746,-1, -2, -5, -1, -1, -2, -2, -2
1503515208769,1, -2, -1, -2, -1, 1, -1, 2
1503515208793,3, 0, 1, -1, 0, -1, 1, -1
1503515208806,6, 2, -3, -1, -3, -1, -1, 0
1503515208829,19, 20, 1, -3, 1, -1, 1, 4
1503515208851,-9, -8, -2, 0, -2, 1, -1, -3
1503515208866,0, 1, 0, 2, 0, -1, -1, 0
1503515208889,-2, -5, -1, -2, -2, -1, -2, 0
1503515208911,-2, -10, -6, -2, -4, -2, -2, 0
1503515208927,-7, -2, -6, -1, 0, 0, 0, -6
1503515208949,-7, -2, 5, 1, 0, -1, -1, 0
1503515208971,-6, -10, -6, -3, 0, 0, 0, -4
1503515208986,3, 5, 5, 1, 0, -1, -1, 1
1503515209009,5, 0, -1, -2, -1, 0, 0, 2
1503515209031,6, -1, 0, 1, 0, -1, 2, 1
1503515209046,-4, 9, -7, -2, -2, 0, -2, -4
1503515209069,9, 12, 2, 0, 0, 0, 0, 3
1503515209105,-4, -4, 0, -2, 0, 0, 0, 0
1503515209121,-3, -3, -3, 0, 1, -1, -2, 0
1503515209136,-8, -4, 1, 0, 0, 1, -1, -2
1503515209158,-6, -4, -2, -2, -7, -2, -2, -5
1503515209181,2, 0, -1, -3, -6, -2, -2, 1
1503515209196,-1, -3, -2, -3, 1, -1, 0, 0
1503515209218,-1, -4, 0, 0, 3, -1, -9, -3
1503515209241,-11, 0, 3, 1, -12, -18, 8, -2
1503515209256,-3, -1, -2, 0, -10, 1, -1, -1
1503515209278,6, 3, 0, 0, 4, 0, -3, 1
1503515209301,-1, -2, -2, -3, 2, 6, 1, 0
1503515209316,-11, -2, -2, 1, 6, 2, 0, -3
1503515209338,0, 1, -2, 1, 4, 3, 0, 2
1503515209363,5, 2, -1, -1, 0, 0, -1, 2
1503515209376,-5, -3, -2, -4, -1, -4, -3, -5
1503515209398,6, -7, -6, 1, -1, 1, 4, 0
1503515209421,6, 10, 3, 0, 1, 1, 2, 0
1503515209443,-4, -4, -2, -1, -1, -1, -2, -2
1503515209458,-2, 5, 18, 2, -2, -1, -3, 0
1503515209481,-1, -2, -5, -1, -2, -2, -1, 1
1503515209503,2, 7, 3, 0, -2, -4, 2, 3
1503515209518,-16, -14, -6, -1, 0, 1, -14, -8
1503515209541,3, -1, -2, -1, -1, -1, 3, 0
1503515209564,4, -1, -1, -2, -1, -1, -5, -1
1503515209578,1, 1, -5, -1, -2, -1, -1, -1
1503515209601,-6, -10, -6, 0, 0, 1, 2, 1
1503515209623,19, 14, 4, -1, 0, 2, 4, 4
1503515209639,-13, -9, -1, -1, 0, -1, 1, -3
1503515209661,-3, -4, -3, -3, -2, -2, 1, -3
1503515209683,12, 3, -2, 0, -1, 1, -2, 0
1503515209698,-1, -1, 1, -1, -3, -2, -4, 3
1503515209721,3, -2, -2, -2, 0, 0, 2, 0
1503515209743,-10, -5, 1, 2, 0, 2, 0, -3
1503515209758,-6, 1, -1, -2, 1, -2, 1, 1
1503515209781,3, -1, -2, -1, -1, 1, -4, -2
1503515209803,2, 1, 2, 0, -2, -1, 0, -1
1503515209818,-16, -12, -4, -1, -2, -2, -1, -1
1503515209841,6, 4, 0, -4, 0, 0, 0, -1
1503515209863,1, 5, 3, 2, -1, -1, -2, -1
1503515209878,1, -3, -2, -2, -1, 1, 4, -2
1503515209901,3, -4, -4, -1, 1, -3, -5, -1
1503515209923,9, 24, 17, 1, -3, -2, -1, 1
1503515209938,-2, 10, 7, 1, 1, 1, -2, 0
1503515209961,-2, -15, -12, -6, -1, -1, -2, -1
1503515209984,0, -3, -1, 4, 4, 0, -8, 1
1503515210002,0, -2, -1, -1, -2, 0, 1, -1
1503515210028,-1, -4, -7, -3, -3, -2, 0, 1
1503515210044,15, 2, -4, -2, -4, -3, -3, -2
1503515210058,-13, -6, -2, -1, -2, 0, 1, -4
1503515210081,0, -1, 0, 1, -2, 0, 8, 0
1503515210104,-5, -5, 0, 2, 4, 1, -5, -2
1503515210118,-9, -9, -4, 0, 0, -1, 1, -4
1503515210141,14, 0, 1, 0, 0, -2, 1, 5
1503515210163,-10, -4, -5, -8, -5, 0, 4, -4
1503515210178,-1, -2, -1, -7, -3, -1, 0, 3
1503515210202,1, 0, -1, -1, -4, -2, -3, -2
1503515210223,-1, -2, -2, -6, -9, 2, -4, -3
1503515210238,-7, 2, 1, 3, -15, -5, -13, -3
1503515210261,6, 2, 1, -6, -12, -3, 4, 2
1503515210283,-6, -4, -4, -3, 1, -1, 0, -3
1503515210298,6, 1, -5, 5, 12, -2, -1, 8
1503515210321,5, -5, -7, 1, 4, 0, 2, 4
1503515210344,-16, -4, 4, 4, 5, 2, -1, -2
1503515210366,-7, 3, 6, 2, 2, 1, -1, -3
1503515210381,-6, -19, -16, -2, 0, -1, -2, -3
1503515210404,5, 2, -6, -4, 1, -3, -3, 1
1503515210426,-7, 5, 12, 6, 2, 2, 1, -6
1503515210441,11, 3, 2, 1, 2, 0, -1, 0
1503515210463,-4, -17, 0, -1, -1, -2, -1, 1
1503515210486,-4, -3, -6, -6, -2, 1, 1, 2
1503515210501,-7, 12, 1, 0, 1, 1, 3, -1
1503515210523,-7, -2, 4, 5, 4, 0, 0, -1
1503515210546,2, 0, -3, -2, -1, -2, -4, -4
1503515210561,7, 5, -3, -1, -3, -1, -5, -6
1503515210583,10, 8, 1, -1, -1, 1, 0, 2
1503515210606,6, 3, 2, -1, -1, 0, 0, 2
1503515210621,1, -5, -1, -3, -1, -1, 0, -6
1503515210643,-7, -5, 0, -1, -1, -2, -1, -5
1503515210666,-4, 2, 2, -2, -3, -2, -1, -3
1503515210681,4, 5, -2, 2, -1, -2, 0, -1
1503515210705,-1, -3, 5, 1, 0, -1, -1, 1
1503515210726,-4, 4, -4, -2, -1, 0, -3, -1
1503515210741,-1, -4, -2, 0, 1, 0, 0, 1
1503515210763,-2, -15, -9, -4, 0, -2, -4, -6
1503515210785,2, 11, 8, 3, -1, -2, 2, -2
1503515210801,3, -8, -3, -3, -1, 1, 0, 1
1503515210823,-18, 3, -3, -2, 0, -2, -2, -3
1503515210846,-5, 0, -1, 1, 0, -1, 0, 3
1503515210861,7, 4, 2, -2, -1, -1, -1, 0
1503515210884,4, -11, -10, -3, -2, 0, -5, -2
1503515210907,5, 10, 0, -2, -1, 0, 0, -3
1503515210921,-2, -10, -9, -3, -4, -2, 0, 1
1503515210944,0, 4, 5, 1, 0, -1, 0, 3
1503515210966,-3, -7, -6, -1, 1, -1, 2, -5
1503515210981,1, -15, -7, -3, -3, -1, -1, 3
1503515211003,-2, -3, 3, 2, -2, -2, -3, 1
1503515211026,-1, -1, -4, 0, 0, -1, 1, -5
1503515211041,-4, 8, 8, 1, 1, 1, 14, 2
1503515211063,10, 35, 14, 4, 2, -2, -1, 0
1503515211086,1, 5, -1, -2, -2, -1, -3, -2
1503515211101,-2, -7, 4, 0, -2, 0, -8, 10
1503515211123,-5, -7, -2, -1, -2, -1, -2, -6
1503515211146,4, -7, 0, -1, -1, -2, -9, 3
1503515211161,-4, 34, 37, 9, 3, 1, -9, -19
1503515211184,-1, -13, -9, -4, 0, 1, 1, -4
1503515211206,3, -9, -10, -1, -1, -1, 1, 9
1503515211221,0, -13, -9, -3, -1, -1, 1, 3
1503515211243,-8, -30, -19, -6, -3, -2, 0, -1
1503515211266,3, -2, -8, -4, -3, -2, 3, 2
1503515211281,-1, 10, -1, 0, 0, -1, -3, -2
1503515211303,0, -4, -5, -1, -1, -1, 0, 0
1503515211326,1, -4, 3, 0, 0, -1, -2, -4
1503515211348,-1, 7, -2, -2, -2, -1, -2, -8
1503515211363,-4, 22, 12, 0, -1, 0, 3, 5
1503515211386,-3, -3, -2, 1, 0, -1, -1, -2
1503515211408,-1, -4, -1, -1, -1, 1, 1, 2
1503515211423,-5, -12, -4, -3, 2, -2, 3, 2
1503515211446,2, 0, -6, -2, -3, 0, 1, 10
1503515211468,-5, 5, -3, 0, -2, -1, -3, -9
1503515211484,-1, -15, -6, -2, -1, -2, -2, -5
1503515211506,2, 5, 3, 0, -3, -1, -3, -4
1503515211528,3, 1, 1, -1, -1, -2, -2, -1
1503515211544,-5, -11, -2, -1, -1, -1, -2, 5
1503515211566,-2, -8, 2, 0, 0, 0, -1, 2
1503515211587,2, 4, -1, 1, 0, 1, -2, -3
1503515211603,-1, -2, 2, 0, 0, -1, -3, -6
1503515211626,2, -3, -3, -3, 0, 0, 1, -1
1503515211647,-19, -26, -6, -3, -2, -1, -5, -4
1503515211656,0, -3, 5, 0, 0, -1, -1, -1
1503515211679,-2, -9, 0, 1, 0, -1, -3, -1
1503515211694,1, 9, 3, -1, -3, 1, 1, -1
1503515211716,-4, -5, -4, 0, -1, 0, 0, -2
1503515211738,-2, 3, -1, -3, 0, -1, -7, -3
1503515211754,-2, -13, -6, -4, -1, -3, 0, -1
1503515211776,-2, -7, -2, 0, 0, -3, -1, -3
1503515211799,0, 0, -2, -1, 0, 1, -2, -2
1503515211814,-2, 3, 1, -1, 0, -1, 0, -12
1503515211836,1, -4, -3, -1, 0, 1, 2, 4
1503515211859,0, 2, -5, -2, -1, -2, -3, 0
1503515211874,-1, 1, 4, 1, -1, -1, 0, 5
1503515211896,2, -1, -2, -1, -1, -1, 0, 3
1503515211918,-4, -10, -3, -2, -1, -2, -1, -6
1503515211926,-3, -2, -1, 1, 0, 0, 0, 0
1503515211948,1, -2, -1, 0, -1, -1, -1, 1
1503515211963,-4, -8, -5, -3, -3, -2, -2, -12
1503515211986,-3, -4, -2, -1, -1, 0, 5, 4
1503515212007,3, 6, 1, -1, 0, 0, 8, 4
1503515212023,-1, 3, 1, -1, -1, 0, -3, -1
1503515212046,-2, 14, 3, 1, -1, -4, -4, -2
1503515212067,0, 12, 9, 0, 0, -1, 0, 5
1503515212083,3, 4, -1, -1, -1, -1, -4, -3
1503515212106,-1, -4, -1, 0, -1, 1, 0, 1
1503515212127,-3, -7, -4, 0, -1, 1, -2, -4
1503515212143,0, -2, 2, -1, -1, -2, -1, 2
1503515212166,-2, -10, -4, -2, 1, 0, 0, 0
1503515212187,-1, -8, -4, -1, -2, -2, -2, 3
1503515212195,-2, -5, -3, -1, 0, -2, 2, -2
1503515212233,-2, -8, -2, -4, -1, -2, -1, -1
1503515212250,-8, -26, -10, -2, -3, 0, -1, 0
1503515212270,2, 4, 2, -1, 0, 0, 0, -4
1503515212286,1, 2, 0, -2, 0, -3, -4, 0
1503515212307,1, 4, -2, 0, -2, -2, 0, 1
1503515212330,-1, -1, -1, -2, -1, -1, 2, 7
1503515212346,-2, -15, -7, -2, -2, -1, 0, -1
1503515212367,-4, -4, -6, -2, 0, 0, -2, -3
1503515212390,-1, 0, -4, -3, -2, -1, -2, -2
1503515212406,3, 6, 0, -1, 0, 0, -2, -2
1503515212427,0, 2, 6, 2, -1, 0, 2, -1
1503515212452,-2, -6, -2, -1, -1, -2, -4, -4
1503515212466,3, 1, 2, 1, 0, 1, 1, -1
1503515212488,-2, -1, -2, 1, 0, -2, 0, 0
1503515212512,1, 7, 3, 0, -1, 1, -3, -4
1503515212526,-2, 4, 0, 1, 0, -1, -1, -1
1503515212547,-1, 2, 2, -2, 1, -1, 1, -1
1503515212570,-4, -12, -6, -2, -1, -2, 1, 0
1503515212586,-3, -2, -4, -1, -2, 0, -1, 1
1503515212607,0, 0, 2, 0, 1, 0, -1, -1
1503515212630,-1, 0, -1, -1, -1, -1, -1, -2
1503515212646,4, 2, 1, -2, -2, -2, 2, 8
1503515212667,3, 2, 4, 1, -1, 0, -2, 1
1503515212690,-5, -1, 5, 1, -1, 0, 1, -3
1503515212706,-2, 0, -6, -1, 1, 0, 2, -2
1503515212728,-1, -9, -4, -1, -1, -1, 1, 0
1503515212736,0, 0, -1, 0, -1, -1, -3, 0
1503515212760,4, 3, -1, 0, 0, 0, 1, -1
1503515212781,-7, -7, -2, -2, 0, -1, -1, -2
1503515212796,2, 7, 1, -2, -1, 1, -2, 2
1503515212820,-2, -10, -7, -3, -1, -2, 4, -4
1503515212826,0, 4, -2, -1, -3, -1, -3, 1
1503515212847,1, 3, 0, -1, -2, 0, -2, 1
1503515212870,0, 2, 1, 2, -1, -2, 3, -2
1503515212887,3, 8, 10, 1, 3, 3, 0, 1
1503515212907,-4, -9, -8, -3, -1, 0, -1, -5
1503515212930,-2, 6, 2, -2, 0, -3, -2, -1
1503515212946,-1, 1, -2, 0, -1, -1, -1, -2
1503515212967,-1, -4, 1, 1, 0, 0, -1, 0
1503515212990,-3, -9, -7, -2, -2, 0, 0, -1
1503515213006,1, 1, 3, 1, -1, -1, -1, -2
1503515213027,-2, 6, 2, -2, -1, -1, 0, 1
1503515213050,0, -4, -4, 0, -2, -1, -1, 1
1503515213059,4, -2, -2, 2, 0, 2, 0, 5
1503515213081,-2, -4, -3, 1, -1, -1, -2, -1
1503515213096,-3, -13, -5, -2, -1, 0, -2, -7
1503515213118,-1, 0, -2, 0, 0, 0, -3, -1
1503515213141,-1, -9, -7, -2, -1, -1, -1, -2
1503515213164,0, 5, 0, -3, 0, -1, 0, 1
1503515213178,1, -1, 1, 0, -2, 0, -2, -2
1503515213201,0, -2, -1, -1, -4, -2, -1, -1
1503515213223,0, -5, -3, -1, -2, 1, -3, 3
1503515213238,-1, -4, -1, 0, -1, 0, 3, -1
1503515213261,0, 1, 0, 1, 0, -1, 0, 3
1503515213283,-3, 3, 0, -4, -1, -1, 1, -4
1503515213300,3, 19, 4, -1, 1, 1, 1, 1
1503515213321,-3, -3, -2, -1, -2, -1, -4, -1
1503515213327,1, 11, 4, 0, -2, -1, -1, -4
1503515213350,-1, -10, -5, -1, 0, 0, -1, -3
1503515213372,0, 1, -1, 0, 1, -1, 2, 1
1503515213387,-1, -9, -7, -5, -1, -2, -9, -1
1503515213410,0, 2, 0, -1, 1, -1, 0, 5
1503515213433,0, -12, -7, 0, -1, -2, 1, -1
1503515213458,-1, -7, -2, 0, 0, -2, 1, -1
1503515213471,-1, 3, 2, 0, -2, 0, 4, -1
1503515213494,-3, -10, -5, -1, 1, -1, -6, -5
1503515213518,-2, -12, -10, -2, -1, -2, -1, 0
1503515213532,-1, -1, 1, -2, -1, 0, 0, -1
1503515213554,-2, 1, -5, 0, -2, 0, -3, 1
1503515213575,1, 3, 2, -3, -1, -1, 3, 1
1503515213593,1, 14, 3, 0, 0, -1, -2, 0
1503515213614,1, 2, 2, -2, 0, 1, 2, 0
1503515213636,1, -6, -1, 1, 0, 0, 4, -3
1503515213651,-3, -1, 0, 1, -2, -1, -2, -4
1503515213674,2, 2, -1, 0, 0, 0, -2, 0
1503515213696,2, 3, 1, 1, -1, 1, -1, 0
1503515213711,-2, -22, -12, -4, -1, -1, -2, -1
1503515213734,-1, -4, -2, 1, -1, -2, -1, -2
1503515213756,1, 6, 1, -1, -1, -3, 0, 2
1503515213771,-5, -3, 1, -2, 1, -1, -2, -4
1503515213794,1, 5, 1, 0, -2, -2, 0, 4
1503515213816,-4, 6, 3, 0, 0, -1, -2, -1
1503515213832,2, -4, -2, -1, 0, 0, 0, 2
1503515213854,0, -1, -1, -1, -1, 0, 0, -1
1503515213876,2, 6, 2, -2, -1, 0, -3, -2
1503515213891,-2, -3, -2, -1, 0, 0, -3, -5
1503515213914,0, 6, 3, 1, -1, -1, 0, -1
1503515213936,0, -1, -1, 0, 0, 1, 0, -1
1503515213951,-6, -7, -6, -2, -2, -3, 0, -6
1503515213974,2, -5, 2, 0, -1, -1, 0, 2
1503515213996,-2, -2, -3, -2, -2, -1, 0, 1
1503515214011,-1, 1, 3, -1, -1, -1, -1, 1
1503515214034,1, 7, 2, -2, -2, -1, 3, 1
1503515214056,3, 9, 3, 0, 1, 0, -2, 1
1503515214066,3, -11, -9, -4, 0, 0, -1, -2
1503515214078,0, -4, -1, -1, 0, -1, 0, 1
1503515214101,-3, -3, 0, -1, -1, -1, 0, 3
1503515214123,3, -1, 0, 0, -1, -1, 1, 2
1503515214146,1, 4, -1, -3, -1, -1, -1, -2
1503515214164,6, 13, -2, -2, -1, -1, 1, 2
1503515214183,-6, -7, -5, -2, 0, -1, -2, -6
1503515214206,-2, -8, -4, -2, -2, -2, -1, -6
1503515214221,-3, -3, 3, -1, -1, 1, 1, -1
1503515214243,-2, -1, 0, -1, -1, -2, -1, -1
1503515214268,2, -7, 1, 0, 0, 0, 0, 1
1503515214281,0, -1, -2, -2, -2, 0, 1, 1
1503515214310,-2, 0, 1, -1, -1, -1, -3, -1
1503515214326,-1, 2, -1, 1, -2, 0, -1, 1
1503515214341,-1, -1, -2, -1, -1, 0, 1, -2
1503515214365,2, 18, 7, 0, 1, -2, 1, 0
1503515214386,-2, -19, -8, 1, -1, -1, -2, -1
1503515214403,-2, 0, 0, 1, -1, -1, 1, -2
1503515214423,-2, 2, 2, -1, 0, -2, -2, -1
1503515214446,0, 4, 6, 2, -1, 1, 2, -1
1503515214460,-4, -7, -1, 0, -3, -1, 0, -2
1503515214476,3, 26, 20, 4, 1, 1, 1, 5
1503515214491,-4, -16, -9, -4, -1, -2, -2, -3
1503515214517,-3, -2, 1, 0, 0, -1, 2, 2
1503515214537,0, -2, -2, -1, -1, 0, -3, -1
1503515214551,-2, -10, 0, 1, 1, 0, -1, -1
1503515214574,-2, -8, -8, -1, -1, -3, -1, -1
1503515214596,1, -3, -3, -2, 0, -1, -1, 0
1503515214611,0, -6, -5, 0, -1, -1, -4, -2
1503515214634,1, 5, 1, -1, -1, -2, -3, -2
1503515214656,-1, -17, -1, 0, 1, -1, -1, 0
1503515214671,-4, 4, 2, -1, 0, -2, 1, -2
1503515214693,1, 7, -2, -2, -1, 0, -2, 3
1503515214716,-2, 0, -1, 1, 1, 0, 3, -2
1503515214733,1, 6, -2, -1, -2, 0, 3, 0
1503515214753,-2, 1, 0, -1, -2, 0, -5, -1
1503515214776,-3, -4, 5, -1, -2, 3, 3, 0
1503515214801,2, -3, -3, -2, 0, -3, -1, -1
1503515214814,-2, -4, -2, -2, 0, 1, 0, 1
1503515214837,-1, 2, 1, 0, -2, -1, 0, 1
1503515214851,3, 4, 3, 0, 0, 0, -4, -2
1503515214870,-6, -8, -7, -3, -3, 0, 0, -3
1503515214881,-1, 6, 6, 3, 1, 1, 2, -1
1503515214903,-5, -15, -2, -2, -2, -1, -2, -5
1503515214925,1, 1, 1, 1, -1, 0, 1, 0
1503515214941,-12, -16, -2, 0, 1, -1, -4, -6
1503515214963,5, 5, 4, 1, -2, -2, -2, -1
1503515214986,1, 5, -4, -4, 0, -1, -1, 0
1503515215002,2, 0, -4, -1, -1, -1, 0, 2
1503515215023,3, 0, 5, 1, 1, -1, -1, 2
1503515215045,-2, -7, -8, -3, -3, 0, 0, 0
1503515215070,0, 12, 0, 0, -1, 0, 0, 2
1503515215083,-2, -5, -3, -2, -1, -1, -1, 1
1503515215106,-1, -3, -1, -1, 0, 0, -4, -1
1503515215128,0, 8, 5, 2, -2, -1, 2, 1
1503515215143,3, 3, -2, -3, -2, -1, -4, -1
1503515215166,0, -9, -3, -1, 0, -1, 0, -1
1503515215188,-1, -5, 0, -2, -1, 0, 1, -1
1503515215205,2, 1, -2, 1, -2, -1, 0, -2
1503515215226,-2, -3, -2, 0, -1, -1, -1, 0
1503515215248,-1, -9, 1, 2, 2, 0, -1, -2
1503515215263,-3, -6, -4, -3, -1, 0, -1, -1
1503515215286,1, -2, -1, -1, -1, -1, 0, -3
1503515215308,-1, 0, 3, 1, -2, 1, -1, 0
1503515215323,-2, 0, -1, -3, -2, -3, -1, 0
1503515215347,1, -7, -1, 1, -1, 0, 1, 0
1503515215368,0, 13, 2, 0, -2, -2, -2, -4
1503515215383,2, 5, 4, -1, 1, 0, 2, 1
1503515215406,-2, -2, -4, -1, -2, -2, 2, -2
1503515215414,0, 4, -2, -1, -2, -1, -1, 1
1503515215437,-3, -8, 1, -2, -1, 0, -5, -1
1503515215458,-1, -4, -5, -1, 0, -2, -2, -2
1503515215473,2, 21, 3, -1, 1, -1, 0, -1
1503515215496,-3, -3, -1, -2, -1, -1, -2, -1
1503515215518,0, 1, 4, 3, -1, -1, 1, -2
1503515215533,-2, 1, -1, 0, -1, 1, 1, 0
1503515215556,3, 8, -2, -3, -1, -2, -1, -1
1503515215578,-2, -5, -1, -1, -1, 0, -2, 0
1503515215594,-1, -6, -2, -1, 0, -1, 0, -3
1503515215616,4, 12, 2, -1, 0, 0, 4, 0
1503515215640,-4, -16, -5, -1, -1, -2, -1, -2
1503515215653,0, 4, 5, -3, 0, -3, -1, 2
1503515215676,0, -4, -2, 2, 2, -1, -6, 1
1503515215698,-1, 3, -2, 0, 0, 1, -6, -1
1503515215715,-11, -18, -9, -2, -1, -1, -2, -1
1503515215741,2, 0, -1, -1, 0, 0, 1, 1
1503515215759,-1, 3, -2, -1, -2, 0, 3, -4
1503515215776,-1, 1, 1, -1, 0, -1, -4, -3
1503515215796,-1, -4, 0, -1, 0, 0, 1, -1
1503515215818,2, -1, -3, -2, 0, -2, -6, -2
1503515215834,0, -2, 0, -1, -2, -1, 1, 0
1503515215856,1, -2, -2, -1, 0, 0, -2, 2
1503515215878,0, -2, -2, 2, -3, 1, 3, 1
1503515215894,-1, 2, 1, -3, -2, -1, 1, 2
1503515215917,-2, -1, -4, -1, -2, -1, 0, -1
1503515215938,1, -1, -2, -1, -1, -1, -1, -4
1503515215960,-1, 2, 1, -1, 1, 0, -2, 0
1503515215976,-1, 2, 0, 0, -1, -2, -1, -3
1503515215999,-4, -11, -2, -2, -3, -1, -4, -4
1503515216006,0, 0, 6, 0, 1, 0, -1, -1
1503515216028,-1, -4, -5, -4, -1, -2, 4, -2
1503515216051,0, 3, 1, -1, -1, 0, -1, 0
1503515216065,0, -6, -2, -1, -1, -2, -2, -5
1503515216088,-4, -16, -11, -4, -2, -3, -5, -2
1503515216110,2, -2, -4, -2, 0, -1, 1, 1
1503515216125,0, 2, 1, 0, -2, 0, -9, 0
1503515216148,-3, 5, 3, 0, -1, -2, -3, -1
1503515216170,-2, 3, 2, 1, -1, 1, 4, 0
1503515216185,5, 8, 0, 0, -1, 0, 0, 0
1503515216210,-3, -2, -5, -3, 0, 0, 6, -2
1503515216230,2, 7, 0, -1, -1, -2, -3, -2
1503515216246,-2, -1, 2, -1, -1, 0, -5, -1
1503515216268,-7, -12, -2, -3, 2, 0, 0, 0
1503515216290,1, 0, 2, 1, -1, -1, -3, -2
1503515216306,2, 10, 6, 2, 1, -1, 2, 0
1503515216328,-1, -3, -3, -3, -1, -1, -6, -2
1503515216350,-3, -4, -1, 2, 1, 0, 1, 2
1503515216366,1, 3, 4, 0, -4, 1, 3, 1
1503515216388,-8, 2, -2, -3, -2, -3, 0, -2
1503515216412,0, 6, -2, 1, -4, -1, -2, -1
1503515216425,-5, -9, -4, 0, -1, -2, -3, -4
1503515216440,1, -2, -3, -3, -1, -1, 6, 1
1503515216456,-5, -9, -5, -2, -1, -1, 0, -3
1503515216479,-2, -3, -3, 0, -1, 0, 0, -3
1503515216500,-1, -5, -2, -2, -1, -1, -2, 0
1503515216518,5, 7, -2, -1, 2, -1, -1, -2
1503515216538,0, -7, -2, 0, 0, -1, -3, -2
1503515216560,1, 3, -1, 0, -2, -2, 1, 1
1503515216576,-7, 0, -4, -3, -1, -1, -7, 3
1503515216598,4, -9, 0, 0, -1, 2, 1, -1
1503515216621,1, 10, 4, -4, -1, -1, 1, 1
1503515216636,3, -9, -1, 0, 0, 0, 0, -1
1503515216658,-1, -4, -2, -2, -1, -1, -3, 1
1503515216681,-6, -28, -9, -1, 1, -1, 1, -3
1503515216696,-2, 13, 2, 1, 0, -2, -1, 2
1503515216718,1, 6, 5, 2, 1, -1, 0, 1
1503515216740,-3, 0, -4, -4, -1, -1, -2, -4
1503515216756,1, 3, -8, -2, -3, 0, 1, 1
1503515216778,0, 11, 0, 1, 0, -1, 0, -2
1503515216800,-6, -5, 3, 0, -2, -1, 0, -2
1503515216816,-4, -12, -3, -2, -2, 0, -3, -2
1503515216838,1, -3, 0, 0, 0, 0, -1, 1
1503515216846,0, 8, 4, 2, 0, 0, -2, 0
1503515216868,5, 12, 1, -1, 1, 14, 1, 1
1503515216892,-1, -1, 3, -2, -2, 0, 1, 1
1503515216912,1, 6, 3, 1, -2, -5, -4, -1
1503515216928,2, -1, -1, 0, -1, -4, 2, 0
1503515216950,-3, 10, 1, 0, -2, -3, -1, 0
1503515216972,7, 5, -3, -3, -1, -3, -4, 0
1503515216988,-1, 21, 6, -1, -1, 1, 0, -2
1503515217010,-3, -9, -2, 0, -2, -4, -2, 2
1503515217034,-5, -12, -11, -4, 0, -1, 0, 0
1503515217050,-4, -8, -9, -7, -3, -1, -2, -1
1503515217070,3, -3, -2, 1, 0, -4, -1, -5
1503515217092,-7, -7, -2, -2, 0, -2, -2, -6
1503515217108,0, -9, 0, -1, -2, 3, -1, 3
1503515217131,8, 2, 3, 3, 1, -4, -2, -4
1503515217154,-5, -3, -3, 0, -1, 3, 0, -3
1503515217168,7, -4, -7, 0, 2, -2, 0, 2
1503515217185,0, -14, -6, -3, 0, -2, 1, 0
1503515217198,-3, 9, 7, -2, -2, 1, -3, -1
1503515217222,2, 9, -1, -3, -1, 1, -3, -5
1503515217243,1, 6, 4, 3, -2, -2, -2, -1
1503515217259,-3, 38, 11, 5, 1, -1, -1, 2
1503515217281,0, -10, -6, 5, -4, -4, 4, -1
1503515217303,0, -6, -1, -2, 0, 1, 0, 0
1503515217319,-1, -4, 4, 2, -1, -23, -2, 2
1503515217341,-4, 2, -3, -5, -3, 6, -1, 2
1503515217363,3, 9, 0, -4, -2, 3, -4, -2
1503515217379,6, -1, 5, 3, 2, 2, 3, -3
1503515217401,-4, -1, -3, -1, 0, 1, -2, -1
1503515217425,5, -2, 1, 0, 1, 1, -2, 3
1503515217438,1, -19, -11, -6, -1, 1, 0, -2
1503515217461,-11, -9, -9, -4, 0, 2, 2, -5
1503515217483,-8, -10, -6, 1, 0, -2, -2, 1
1503515217499,4, -5, 0, -5, -5, -2, -1, 3
1503515217522,0, 25, 16, 8, 2, 0, -5, -4
1503515217543,1, 4, -2, -1, -3, -1, -5, -2
1503515217559,-1, -2, 6, 1, -1, -2, 2, 0
1503515217581,-2, -5, -3, -3, 2, 0, -2, -3
1503515217603,-3, -4, 1, 1, -2, 0, -1, -1
1503515217622,3, 21, -1, -3, -1, 0, 1, 1
1503515217641,2, 7, 1, 0, -1, -2, -3, -2
1503515217663,-2, -6, -4, -5, -2, 0, 1, 0
1503515217679,0, -9, 2, 0, -1, -2, -1, -2
1503515217701,-2, -5, 0, 4, 1, -1, 0, 1
1503515217723,-3, -8, -8, -6, 0, 0, 0, 1
1503515217738,-3, -8, -1, 0, -1, 0, 0, -1
1503515217761,1, 27, 6, -1, -2, -1, -7, -5
1503515217783,-4, -10, -9, -3, -1, -1, -1, -1
1503515217798,-1, -11, -10, -5, 0, -1, 3, -1
1503515217822,-2, -1, -2, 0, -2, -1, -2, 1
1503515217843,-1, -3, 1, 1, 0, 1, 1, 0
1503515217866,-6, -7, 0, -1, -2, -2, 1, -2
1503515217881,3, 3, 3, -3, -1, -1, 1, 1
1503515217903,1, 1, 3, 4, 1, 1, -1, -2
1503515217926,-1, -7, -3, 1, 1, -1, 1, -1
1503515217940,0, -2, 2, -1, -2, -1, 2, -2
1503515217970,-5, 0, 11, 1, -2, 0, -2, -20
1503515217985,6, 1, 0, 13, 0, 0, -2, 16
1503515218000,-3, -8, -2, -8, -3, -1, -2, 7
1503515218024,-2, -6, -5, -1, -2, 1, 0, 2
1503515218032,2, 2, -2, 0, 0, -1, 1, 0
1503515218052,0, 3, 0, -3, -2, -1, 0, -4
1503515218075,-6, -4, 3, 1, -3, 0, 0, -3
1503515218090,-5, -1, 2, 2, 0, -1, -4, -1
1503515218112,-19, -29, -16, -4, 0, -1, -2, -4
1503515218135,0, -2, -9, -2, -2, 0, 1, 1
1503515218150,6, 9, 5, -1, 1, 1, 0, 1
1503515218172,-1, 1, 7, 0, -2, 0, -2, 0
1503515218195,-2, -1, -1, -1, -1, -2, -1, 0
1503515218210,4, -17, -4, 3, 0, -4, -3, -1
1503515218233,-2, -11, -9, -4, -3, 1, 1, -3
1503515218255,2, 11, 7, 1, 0, -1, 0, 1
1503515218270,0, 0, -5, -8, -1, -2, -1, 2
1503515218292,7, 11, -1, -1, 0, -1, 0, 2
1503515218315,-5, -10, -3, 1, -1, 1, -3, -4
1503515218330,-2, 9, -2, 3, 1, -1, 1, -3
1503515218352,-3, 10, 4, 0, -1, -1, -3, 0
1503515218382,6, 6, 1, -1, -1, 1, 1, 1
1503515218392,-6, 6, 0, -3, -2, 0, 1, -2
1503515218412,0, -8, -3, -1, -1, 0, -1, -2
1503515218435,1, -13, -4, 0, -1, -1, -1, 2
1503515218450,-5, 9, 10, 3, 0, 0, -2, -2
1503515218472,3, 5, 1, 2, 0, 0, 0, -1
1503515218495,-1, -6, -7, -3, -1, -3, -3, -1
1503515218510,-6, -9, 2, 1, -1, 1, 0, -4
1503515218533,5, 15, 4, 2, 0, -2, -1, 2
1503515218555,6, 2, 0, -3, -1, -1, 1, 1
1503515218570,-1, -1, 2, 2, 1, 0, -2, -1
1503515218586,1, 0, -1, 0, -1, -2, 0, 2
1503515218600,-2, -4, 2, 4, -1, 0, 1, 0
1503515218623,-4, -15, -3, -3, -1, -1, -2, -1
1503515218645,-1, -1, -5, -4, -2, -1, -1, 2
1503515218661,-1, 9, 6, 2, 0, 0, -2, 1
1503515218684,-2, 1, 3, 0, 0, -2, 0, 1
1503515218706,0, -4, -3, 10, 1, -1, -2, -1
1503515218721,-1, 21, 15, 1, -1, -1, 0, 1
1503515218743,4, 13, 26, 13, 2, 1, 1, 2
1503515218768,-6, -8, -10, -4, -1, -2, 0, -4
1503515218790,-1, -4, -4, -3, 0, -1, -2, -3
1503515218804,3, 0, -4, -4, 0, -3, 0, -1
1503515218825,-1, -7, -6, -4, 0, -1, -2, 0
1503515218848,2, -11, -7, -5, -3, 0, -2, 0
1503515218864,-3, -7, -13, -10, -2, -2, 0, -3
1503515218885,-1, -5, -9, -3, -2, 0, -1, 0
1503515218908,0, 3, 1, 2, 2, 0, -2, 0
1503515218923,-5, -18, -4, -3, -1, -1, -1, -3
1503515218945,1, -2, -5, 2, 1, 1, 0, 0
1503515218968,-4, 8, 9, 1, 0, 0, 1, -1
1503515218983,-2, -7, -16, -11, -3, -2, -2, -1
1503515219005,-1, 2, 2, -1, -1, -1, -3, -1
1503515219030,-3, 8, 6, 4, -2, 0, -2, -4
1503515219043,4, 19, 30, 7, 1, -1, 0, 3
1503515219065,4, 3, -2, 2, 0, -2, 1, 0
1503515219088,-6, -10, -5, -2, -1, 1, 2, -2
1503515219097,4, 6, -1, 0, -1, -2, -3, -2
1503515219118,-6, -12, 3, 2, 0, 1, 0, -3
1503515219140,0, -3, -6, -2, -2, -2, -2, -2
1503515219156,-3, -5, 7, -1, 1, -1, 0, -3
1503515219178,-3, -5, -7, -2, -2, -1, -2, -3
1503515219193,-2, 0, -1, -1, 1, -1, 0, 1
1503515219216,2, 2, -1, -1, 0, 1, 2, 0
1503515219239,-5, -7, -4, -2, -3, -1, -3, -5
1503515219253,2, -7, -5, -1, 1, -1, -3, 0
1503515219276,6, -6, 3, 2, 0, -1, 0, 2
1503515219304,-1, 6, -3, -2, -1, -1, -1, 0
1503515219313,-2, -3, 0, -2, -1, -1, 1, -3
1503515219337,-6, 2, 1, 0, -1, -2, -1, -1
1503515219358,1, 0, 0, 4, -1, -1, -1, 0
1503515219374,-2, -13, -8, -3, -1, -1, -1, 0
1503515219396,5, 16, 3, -3, -3, -1, -2, 0
1503515219418,1, 6, -2, -1, -2, -1, -1, -2
1503515219434,-8, -6, -1, -1, -1, 0, 0, -1
1503515219456,-1, -8, -2, -3, 0, -1, 1, 0
1503515219478,0, -5, -3, -2, -1, -3, -1, -1
1503515219502,-1, -2, -3, -1, 0, 0, -1, 0
1503515219517,2, 2, 0, 0, -1, 0, -1, 1
1503515219547,-1, 0, 2, 0, 0, -1, 0, -1
1503515219553,0, -9, -5, -1, -2, -2, -2, -3
1503515219576,-1, -2, -6, -2, -2, 0, -2, -1
1503515219601,-4, -2, 0, -1, -1, 0, -2, -2
1503515219613,1, 5, 3, 0, -1, 0, 0, 0
1503515219643,6, 0, 0, -1, -1, -1, 0, 1
1503515219667,1, -7, -4, 0, -1, -1, 0, 1
1503515219688,-4, -5, -2, -2, -2, 1, 1, -1
1503515219710,-4, 2, -1, 0, 0, -1, -2, -2
1503515219725,1, 3, 2, 1, 2, -1, -1, 0
1503515219748,0, -5, 2, 1, -1, 0, -1, 0
1503515219771,-5, 6, -1, -1, 0, -1, 0, -3
1503515219785,-2, 0, 1, -2, -2, -1, -2, -3
1503515219808,4, 2, 2, 0, -1, 1, 0, 2
1503515219830,-1, -6, -4, -2, 1, -1, -1, -1
1503515219845,-4, -1, 0, -2, -1, -2, -2, 0
1503515219870,4, 25, 1, 0, -1, 1, -1, -1
1503515219890,1, -11, 5, 3, -1, -2, -1, 0
1503515219906,1, 0, -3, -2, -1, 0, 0, 1
1503515219928,-4, -11, -4, 0, 0, 0, -3, -4
1503515219950,1, -3, -3, -2, -2, -1, -2, -1
1503515219965,-5, -10, -2, -1, 0, 0, -1, 1
1503515219981,-6, -19, -12, -5, -3, -1, 1, 3
1503515219996,-2, -4, -1, 1, 2, 3, -1, -1
1503515220018,-1, -9, 3, 2, -2, -1, 1, -1
1503515220042,8, 10, 2, -3, -1, -1, -2, -1
1503515220057,-4, 3, 7, 0, -1, 0, -1, -2
1503515220079,-1, 11, 3, 0, 0, 0, -1, 0
1503515220100,0, -12, -8, -4, -2, -1, -2, -2
1503515220116,-2, -5, -5, -3, 0, -2, 1, -1
1503515220144,-1, 10, 6, 1, 0, -1, 1, 0
1503515220160,0, 5, -2, -1, -2, -1, -2, -1
1503515220176,1, 4, -3, 0, 0, 0, -2, -2
1503515220198,-4, -5, -1, -1, -1, -1, 0, 0
1503515220220,-2, 3, 6, -1, -2, -2, -1, -2
1503515220238,-4, 2, -1, -1, -1, -1, -1, -2
1503515220258,-4, -11, -8, -3, -2, -1, 0, 0
1503515220280,2, -1, -2, 0, -1, 0, 3, -1
1503515220296,1, -4, -3, 1, 1, 1, 0, -1
1503515220318,0, -3, 8, 2, 0, -1, -1, 1
1503515220342,0, -5, -6, -3, -1, 0, -1, -1
1503515220356,-4, -1, -2, -3, -1, 0, -1, 1
1503515220378,-2, -2, -1, -2, -1, -1, -1, -2
1503515220400,3, 3, 0, -1, -1, -1, -2, -1
1503515220416,1, -3, -2, 0, -1, -2, -2, -2
1503515220440,-6, -1, 7, 1, -2, -1, 1, 0
1503515220460,1, -3, -3, -1, -2, 1, 0, 0
1503515220476,-3, -4, -5, -5, -2, -2, -2, 1
1503515220498,-2, -1, 2, 1, 3, 0, -2, -2
1503515220520,1, -7, -7, -2, -2, 0, 0, -2
1503515220536,1, 9, 8, 0, 0, 0, -1, -1
1503515220558,-4, -4, -5, -2, -1, 0, -2, 0
1503515220581,3, 1, -1, -1, 0, -2, 1, -1
1503515220596,2, 3, -1, 2, -1, -3, -1, -2
1503515220618,-9, -5, -6, -2, 1, -2, 0, -4
1503515220642,-1, -14, -12, -4, -2, -2, 0, 0
1503515220663,4, 5, -1, -2, 0, -2, -1, 0
1503515220678,1, 0, 1, 0, -2, 0, -2, 0
1503515220700,2, 4, 5, 2, -1, -1, -1, 0
1503515220723,0, 2, 7, 3, -1, 0, -1, 1
1503515220738,1, 7, 4, 1, -1, -1, 0, -3
1503515220760,-1, 4, -1, -3, -1, -1, -1, -3
1503515220784,0, -1, -1, -1, 0, 1, -1, -1
1503515220799,-2, -9, -4, -1, 0, -1, -1, -1
1503515220821,0, -3, 0, 2, -1, -1, -2, -1
1503515220849,-4, -13, 1, -1, 0, 1, -1, 2
1503515220858,-1, -3, -4, 0, 0, -1, 0, -1
1503515220881,-1, 3, 0, -1, -1, -1, -1, 0
1503515220912,-5, -10, -6, -1, -1, -1, -3, -2
1503515220933,-1, -1, 3, 0, -1, -1, -1, 0
1503515220948,1, 2, -3, 0, 1, -3, -1, -4
1503515220970,-3, -10, 0, -1, -1, 0, -1, 1
1503515220992,0, 5, 0, -2, -1, 0, 1, -2
1503515221008,-4, 0, -1, -1, -2, -1, -2, 0
1503515221030,-5, -1, 2, 0, -1, -2, 0, -4
1503515221052,4, 17, 6, -3, -2, 0, -1, -1
1503515221068,-3, -6, -3, -4, 0, 0, -3, -2
1503515221090,4, 10, 2, 2, -2, -1, 1, 1
1503515221113,-4, -3, -3, -3, -2, -1, 0, -3
1503515221128,1, -2, -6, -1, -1, -1, 0, 1
1503515221150,-3, -6, -3, -1, -1, -2, -1, 3
1503515221173,3, 5, 8, 3, 1, 1, 1, -2
1503515221188,-7, -5, -3, 1, 0, -1, -2, -3
1503515221212,3, 1, 1, 0, 0, -2, 1, 1
1503515221233,-8, -9, -2, 1, -1, -2, 1, 1
1503515221248,0, -5, -2, 0, 2, 3, -2, -1
1503515221270,-6, -3, -1, -1, -2, -3, -3, -2
1503515221293,1, -3, -4, -4, -2, 1, 2, 0
1503515221309,-9, -17, 0, -2, -1, -2, -2, -5
1503515221330,8, 7, 0, -3, 0, 1, 0, 3
1503515221353,-5, 1, -1, 0, -1, -4, -2, -5
1503515221368,1, 2, -2, -1, -2, 0, -1, 2
1503515221390,15, 9, 9, 0, 1, -1, 0, -1
1503515221398,-12, -5, -1, -2, 2, 1, -1, -3
1503515221422,1, -1, -3, -1, -1, 0, -2, 1
1503515221443,-8, -6, -3, -3, -1, -2, -12, -2
1503515221458,3, 4, 1, -2, -1, 1, 2, 0
1503515221482,-3, -2, 2, 0, 0, -2, -1, -3
1503515221503,4, 0, 4, 2, -1, -1, 1, -1
1503515221520,8, 1, -2, -3, 0, -1, 0, 1
1503515221543,-2, -7, -5, -2, 0, 1, 2, -3
1503515221555,1, 0, -4, -2, -1, -1, 0, 1
1503515221570,1, 2, 0, 0, -2, -1, -1, -2
1503515221593,-2, -2, 2, 1, -1, 1, -1, 2
1503515221615,0, 1, -1, 0, 1, -1, 0, 0
1503515221630,0, -3, -2, -2, 0, -1, -2, -3
1503515221653,2, 5, 4, 3, 1, -1, 0, 2
1503515221674,2, 3, 1, -2, -3, -3, -4, -2
1503515221690,-2, -2, 2, 1, -2, 1, 1, -3
1503515221713,4, -2, -2, -2, -6, -1, -2, -1
1503515221734,0, 0, 1, 0, -1, 0, 3, 2
1503515221743,7, 1, -1, -1, -1, -1, -5, 1
1503515221765,-11, -6, -2, -2, 1, -3, -2, -2
1503515221783,2, 4, 6, 1, -2, 0, 2, 1
1503515221803,-1, -4, -10, -4, -3, -2, 0, 1
1503515221830,-6, -6, -1, -1, -2, 0, 0, -3
1503515221841,1, 3, 1, 0, 0, 1, 2, 2
1503515221863,2, -1, 0, 1, 1, 0, 1, 0
1503515221888,14, 6, -2, -1, -2, -1, -1, 1
1503515221901,-12, -5, -4, -2, 0, -1, -1, -3
1503515221923,1, -10, -10, -4, -1, -2, -1, 1
1503515221945,0, -1, 0, -2, 1, -1, 1, 1
1503515221961,3, 1, -1, -1, -7, 1, -5, 1
1503515221975,-8, -6, 0, 2, 13, 1, 1, -6
1503515221990,9, 0, 1, -5, -8, -2, -1, 4
1503515222013,4, -4, -3, 2, -2, 0, 1, 1
1503515222034,5, -11, -8, -4, -2, -4, -2, 2
1503515222051,-5, -7, -5, -2, 1, -1, -1, 1
1503515222073,-3, 2, 1, -2, -93, -20, -3, -2
1503515222094,-3, 1, 2, -3, 0, -3, -8, 1
1503515222110,-8, -6, -2, -3, 6, 6, 3, -3
1503515222132,-4, -1, 0, -3, -21, -4, -1, 0
1503515222148,-7, -1, -1, 1, -13, -6, -4, 1
1503515222163,14, 7, -3, -2, -7, 1, -3, 2
1503515222185,-8, 1, 7, 3, -14, -2, 1, -3
1503515222201,-2, -4, -4, -2, 2, -5, -3, -2
1503515222223,2, 2, -1, -1, 0, 1, 2, -4
1503515222253,14, 3, 4, 2, 6, -1, 1, 0
1503515222275,-19, -6, -5, 0, 3, 2, 5, -5
1503515222290,-5, -12, -9, -2, -2, -1, 2, -3
1503515222313,-2, -7, -6, -4, 4, 0, -6, 1
1503515222334,2, -2, 2, 4, -3, -1, -3, 1
1503515222355,-22, -10, -2, -1, 51, 13, 5, -2
1503515222373,4, 6, -2, -6, -9, -2, -1, -4
1503515222395,1, 4, 1, -3, -12, -4, -2, 4
1503515222410,2, 2, -1, -9, -14, -10, -3, 3
1503515222426,-3, -1, -1, -2, 5, 1, 0, -7
1503515222448,-9, -1, -1, -3, 1, -1, 1, 2
1503515222463,4, -2, 2, 6, 10, -1, 2, -2
1503515222488,5, 10, 5, -1, -3, -2, 0, -3
1503515222508,-9, -17, -21, -4, -17, -4, -5, -17
1503515222524,4, -7, 0, -1, 2, 0, 5, 11
1503515222545,3, 28, 1, 1, 1, 0, 1, -6
1503515222568,-12, -12, 0, -1, -10, -4, -7, -1
1503515222583,7, -1, 10, 2, 11, -4, -1, -3
1503515222605,-5, -22, -9, -6, -8, -6, -1, 15
1503515222628,-2, 6, -3, 0, 2, 2, 0, -6
1503515222643,-2, 4, 4, -2, -3, 0, -5, -4
1503515222665,1, -8, -1, 11, 56, 9, 8, 0
1503515222689,1, 7, -1, -2, -18, -5, -6, -1
1503515222695,-16, -11, -4, -3, -3, 0, 0, -3
1503515222718,1, -12, 0, -3, -12, -3, -2, -3
1503515222733,-13, -20, -3, -1, -3, -4, -12, -3
1503515222756,1, 0, -8, -3, -5, -6, 2, 0
1503515222777,-7, 5, -1, -2, 1, 2, 7, 0
1503515222793,6, 0, 0, -1, 0, -5, -4, -3
1503515222814,-4, -20, -5, -2, -2, 2, 1, -4
1503515222837,9, 28, 7, 2, 0, 2, -1, -7
1503515222853,1, -7, -5, -2, -1, -6, 0, 6
1503515222874,-25, 7, -2, 0, -1, 2, -7, -4
1503515222897,-1, 0, 2, 6, 7, 0, 3, 3
1503515222913,-1, 22, 0, -3, -5, -4, 0, 1
1503515222934,-2, 71, 63, 16, 3, 3, 0, 1
1503515222966,16, -23, -17, -10, -6, -1, -3, 2
1503515222975,6, -13, -5, -8, -42, 32, 11, 4
1503515222995,7, -3, -6, -4, -6, 0, 3, -1
1503515223017,0, -8, -7, -2, 6, -11, -6, -2
1503515223033,7, 5, 6, 0, 13, -7, -5, -3
1503515223054,-13, -25, -12, -2, 7, -1, -3, 1
1503515223077,4, 5, -4, 0, 8, -7, -1, 1
1503515223093,-2, -2, -3, 7, 9, 11, 4, -1
1503515223114,0, -3, -1, 1, -6, 0, 6, -1
1503515223137,-6, -36, -22, -8, -5, -7, -1, -3
1503515223153,6, -5, 12, 5, 4, -1, -2, 1
1503515223174,-4, -3, -8, -4, 1, -5, -4, -2
1503515223201,3, 9, 3, -3, -3, -3, -3, -1
1503515223213,2, 10, 3, 2, 0, -1, -3, 1
1503515223235,-1, 0, -4, -6, -1, -4, -3, -2
1503515223266,26, 7, 4, 3, 2, 0, 6, 4
1503515223273,9, 38, 10, 2, -4, 1, -1, 1
1503515223295,4, -12, -9, -2, 0, -2, 0, -3
1503515223317,-8, -2, -1, -1, 0, -6, -3, 1
1503515223333,-10, -7, -1, -1, 3, -2, -4, -5
1503515223354,-9, -10, -7, -5, -2, 2, -3, -4
1503515223377,-14, -16, -10, -3, -2, -3, -1, -3
1503515223394,-6, -15, -5, 0, -1, -1, -4, 2
1503515223414,-2, 18, 22, 5, 1, 0, 2, -5
1503515223437,5, 4, -2, 1, 3, -2, -4, 2
1503515223462,16, 15, 0, -2, -6, -1, 1, 0
1503515223474,-5, -21, -8, -1, 0, 2, 0, 1
1503515223498,-7, -2, -4, -2, -4, -3, -2, -1
1503515223520,-8, -13, -9, -2, 2, 2, 1, 1
1503515223534,-7, 1, 0, 3, 5, 0, 1, -2
1503515223557,11, 9, 0, -7, -5, -1, -4, -2
1503515223579,-1, -12, 2, 1, -1, -2, 0, 0
1503515223595,-10, 1, -2, -2, 3, -3, -1, -7
1503515223617,8, 5, -2, -4, -6, 0, -1, 2
1503515223639,-6, -7, -2, 0, 4, -1, -2, 1
1503515223655,41, 17, -4, -4, -8, 0, -3, 3
1503515223677,-7, 1, 0, 1, -1, -2, 7, -1
1503515223700,-7, 5, 5, -1, -8, -4, -4, -3
1503515223716,0, -4, 3, 3, 4, 1, -2, 1
1503515223739,-9, -10, 3, 4, -3, 0, -2, -7
1503515223763,12, 40, 13, -1, -3, -4, -4, -4
1503515223783,-19, -28, -12, -4, 0, 1, 1, 0
1503515223799,-8, -6, -4, -3, -4, 2, -5, -4
1503515223821,-5, -11, -5, -2, 8, -1, -2, 3
1503515223844,-6, -25, -3, 1, -3, 4, 3, 4
1503515223858,-5, 5, 0, 3, 8, -1, 0, -3
1503515223881,-1, -12, -4, 2, 1, 0, 5, 2
1503515223903,-3, 0, -4, 0, -1, 3, -1, -4
1503515223918,2, -3, 0, -2, 0, -5, -2, 3
1503515223941,3, 7, 5, -1, -5, -2, -2, 1
1503515223966,1, -41, -24, -4, -3, -1, 0, 0
1503515223978,-2, 13, 6, -2, -2, -2, 2, -5
1503515224001,-4, 4, -7, -4, -1, 10, 2, -4
1503515224023,6, 10, 0, 1, 0, 1, -3, -5
1503515224038,5, 12, 6, 1, 0, -3, -1, 3
1503515224061,5, 3, -2, -2, -2, -2, 4, 5
1503515224083,4, 3, 0, 3, 4, -1, 0, 7
1503515224101,-8, -6, 0, -1, 1, -4, -3, -1
1503515224121,17, 22, 4, -2, -4, -1, -2, -3
1503515224143,-14, -7, 0, 0, -5, -2, 0, -3
1503515224158,0, 10, 6, 3, 10, -1, -4, -6
1503515224181,3, 8, 8, -4, 21, -3, 0, 4
1503515224204,-8, -5, 0, -2, -3, 3, 3, 0
1503515224219,22, 60, 53, 16, -2, -4, -3, -1
1503515224241,-17, -13, 2, -4, -13, 3, -1, 0
1503515224248,-1, 3, 5, 0, 0, -2, -1, 0
1503515224270,-5, -12, -6, 1, 7, 0, -2, -2
1503515224285,13, 22, 1, 0, -2, 1, -4, 1
1503515224309,-7, 11, 30, 5, 4, -1, 1, -8
1503515224338,13, 10, 2, 2, 7, 0, -1, 16
1503515224353,-19, -17, -11, -8, -17, -1, -13, -2
1503515224368,-5, -15, -8, -1, -6, -4, 4, -8
1503515224390,0, -8, -6, 0, 11, 2, 2, -2
1503515224413,13, -24, -17, -6, -4, -3, 1, 4
1503515224428,-2, 8, 4, -5, 0, 3, 4, -1
1503515224450,-10, -8, -3, -1, 2, -1, -4, 3
1503515224473,-7, -6, -7, -1, 4, 2, 3, -5
1503515224488,17, 9, -3, 0, -2, -6, -2, -2
1503515224512,-6, 14, -7, -1, -2, -1, -1, -2
1503515224533,8, -14, 2, 2, 3, 0, -4, -1
1503515224548,-2, -9, -3, -5, -4, 0, 3, -2
1503515224571,-7, 4, 4, -9, -56, -5, -1, -3
1503515224593,-1, 3, 3, -1, -3, 0, -2, -9
1503515224608,29, 12, 8, 3, 12, -3, 1, -6
1503515224630,-5, 5, -15, -7, -9, -4, -7, -13
1503515224638,5, 4, 1, -3, -14, -1, 2, -1
1503515224661,-3, -3, -2, -4, -8, -4, -3, -5
1503515224683,2, 14, 4, 1, -1, 4, 3, -6
1503515224698,-14, -13, -2, 2, 8, -2, -3, 2
1503515224721,2, 7, 0, -3, 0, -1, -1, 2
1503515224744,-3, -4, -2, -2, -11, 4, -4, -11
1503515224759,7, 4, 2, 5, 17, 10, 1, 5
1503515224774,-5, -6, -9, -4, 2, -2, -6, -2
1503515224787,0, 21, 19, 7, -1, 3, 3, 3
1503515224812,8, 7, 0, -6, -5, -3, 0, -2
1503515224833,15, 18, -6, 0, 2, 1, 3, 6
1503515224848,-1, 0, 1, 2, 1, 2, -2, -4
1503515224871,-4, -18, -6, -3, -2, -4, -2, -2
1503515224893,-7, 8, 8, -1, -2, -2, 1, 0
1503515224908,-5, -16, 1, 0, -3, -1, -7, -3
1503515224930,-5, 1, 0, -2, 3, 2, 5, -3
1503515224953,9, 7, -5, 2, 0, -2, 2, 2
1503515224967,22, 20, -5, -4, -4, -3, 0, 5
1503515224990,-8, -4, 2, -1, 1, 0, -5, -6
1503515225013,-10, -14, -4, -3, -5, -2, -3, -5
1503515225027,-16, -16, -4, -1, -1, -1, 0, -1
1503515225050,-8, 8, 1, 1, 2, 1, -1, -5
1503515225073,-4, -11, -4, 0, -2, 3, 6, 2
1503515225087,9, 3, -4, -3, -1, -2, -3, 0
1503515225104,5, -5, 0, 0, -1, 2, 0, -1
1503515225118,-5, -5, 6, 1, 1, -1, -1, 3
1503515225141,-2, 11, -1, 2, 1, 1, 3, -4
1503515225163,-3, -4, -2, 4, 3, -1, -4, 3
1503515225179,1, 1, -1, -3, 0, -1, -1, 2
1503515225201,-6, 14, 21, 5, 1, 1, 2, -1
1503515225223,-17, -7, -9, -2, -1, -1, -1, -4
1503515225240,-1, -10, -5, -4, 10, -1, -1, -2
1503515225261,9, -3, 1, -2, -5, 0, -1, 1
1503515225283,13, 10, -1, -1, 3, -1, 1, 3
1503515225307,8, -3, -7, -5, -2, -2, -2, -2
1503515225321,-5, -14, -7, 1, -4, 1, 4, -4
1503515225344,-6, 6, 0, 2, -10, -2, -5, -7
1503515225365,-4, -5, 3, 2, 13, -6, -3, -6
1503515225381,1, -5, -4, -4, -13, -6, -8, 2
1503515225403,-7, 4, 2, -3, -6, 0, 4, -1
1503515225425,21, -2, -4, -1, -1, 4, 1, 4
1503515225441,-7, 13, 7, -1, 3, 4, 0, -2
1503515225463,-1, -10, -4, -5, 16, -2, 1, 2
1503515225486,-16, -10, -3, 0, -39, -6, -6, -11
1503515225501,-16, -13, -1, 1, -2, -2, 1, 1
1503515225523,2, 1, 0, 0, 5, 0, -1, -4
1503515225546,0, 1, -3, -2, 3, 0, 0, 4
1503515225560,5, 12, 5, -4, -7, -2, 1, -1
1503515225575,-5, 2, -2, -5, -3, -5, -2, -4
1503515225584,9, 13, 3, 17, 99, 1, 7, -3
1503515225605,18, 17, 1, -8, -51, -3, 1, 3
1503515225621,-13, -7, -1, -5, -10, 1, 0, 2
1503515225644,3, -7, -2, -3, -12, -2, 0, -3
1503515225665,-7, -4, -4, -1, 4, 3, 1, 4
1503515225681,-11, -9, -2, -1, 0, 3, 0, 0
1503515225704,-5, -3, -5, -5, 1, -4, -10, -5
1503515225725,-8, -6, -2, 0, 32, -2, -3, 1
1503515225748,-12, -8, -6, -3, -29, -10, -3, -9
1503515225763,15, 7, 2, 2, 24, 1, 2, 4
1503515225786,6, 6, 3, 5, 70, 8, 6, 4
1503515225801,1, -6, -5, -8, -24, -3, -2, -2
1503515225823,5, 8, 4, 7, 0, 25, 5, 10
1503515225846,-18, -2, 2, 9, 1, -3, -3, -4
1503515225861,-5, -5, -5, -4, -60, -14, -5, -5
1503515225883,-9, -3, -2, -5, -25, -5, -7, -17
1503515225905,-2, -1, -1, 0, 54, 9, -5, -1
1503515225921,-2, -2, -3, -14, -50, -6, -1, -12
1503515225946,11, 8, 8, 19, 24, -6, -1, 6
1503515225965,7, 2, -1, -7, -36, 2, 7, -5
1503515225981,11, -15, -9, -1, -6, -7, 0, 15
1503515226003,-21, -11, 22, 0, -7, 3, 0, -46
1503515226025,0, 40, 50, 3, -7, -8, -4, 8
1503515226041,3, 8, -17, -7, -6, -1, 3, 16
1503515226063,10, -26, -14, -1, -3, -11, -8, 24
1503515226085,4, -5, 0, -1, -3, -3, -5, -34
1503515226093,-21, 1, -6, -8, -3, -18, -10, -13
1503515226116,7, 19, 8, -2, -13, 8, 2, -4
1503515226130,10, 14, 11, 5, 7, 6, 5, 14
1503515226153,5, 17, 3, 4, 8, 3, -2, 12
1503515226175,13, -1, 0, -2, -2, 0, -2, 4
1503515226190,-26, -4, -5, -5, -10, -17, 12, -2
1503515226214,10, -5, -1, -1, 0, 6, 0, 3
1503515226228,-5, -3, -3, -3, -2, -6, -9, -4
1503515226243,3, 5, -3, 0, 0, 4, 3, -1
1503515226265,-5, 12, 5, -2, -2, 0, 15, -27
1503515226289,-9, -17, -12, -5, -4, -2, -2, -2
1503515226311,17, 12, 4, 1, 0, 0, 1, -2
1503515226325,16, 10, 1, 1, 0, -3, -1, 2
1503515226348,-11, -12, 0, -1, -3, 2, -6, 4
1503515226363,-3, 19, -9, -1, -1, -1, -4, 11
1503515226385,-28, -33, -15, -7, -3, -3, -2, -2
1503515226407,1, 2, 2, 2, -1, -1, -2, -12
1503515226430,17, 2, 3, 0, 2, 15, 0, 5
1503515226445,4, -17, -18, -5, -3, 0, -7, -4
1503515226468,-27, -12, -7, -1, 1, -4, -20, -19
1503515226483,1, 1, 6, 1, -2, -5, 5, -2
1503515226505,8, -1, 7, 1, 1, -8, 0, 1
1503515226528,-1, 5, 2, -1, -1, -1, 2, 6
1503515226546,-2, 4, 13, 6, 3, 4, 4, 5
1503515226565,-13, 3, -4, -2, -1, -3, -2, 10
1503515226588,-3, -17, -12, -4, -2, -2, 3, -3
1503515226603,15, 5, 6, 3, 1, 1, 5, 15
1503515226625,-5, 1, 3, -2, -2, 15, -2, -4
1503515226650,4, 9, -8, 1, 1, 3, -21, -4
1503515226663,15, -5, 8, -1, 0, -6, 8, 1
1503515226685,-15, -9, -8, -2, -3, -5, 5, -6
1503515226707,1, 1, -1, -4, -5, -3, 3, 5
1503515226723,-2, 9, 3, 0, 8, 3, 7, -4
1503515226745,0, 2, 3, 1, 0, -5, -5, -5
1503515226767,10, 5, 4, 1, -2, -1, -1, -3
1503515226786,-15, -6, -2, -6, -3, -3, 5, -1
1503515226805,-6, -17, -12, -5, -5, -2, 4, 3
1503515226828,-6, -5, -1, 3, 0, -2, -5, -6
1503515226843,24, 15, 4, 3, 1, -3, -5, 3
1503515226865,6, 4, 5, -1, -2, -2, 1, -1
1503515226887,-3, -1, 1, 1, -1, -1, -1, -3
1503515226895,2, -3, 3, -1, -3, -2, -3, 3
1503515226919,24, 6, -5, -2, 3, -1, 0, 4
1503515226940,-6, -2, -1, 0, -38, -7, -5, -4
1503515226955,3, -2, 3, 0, -3, 0, -7, -13
1503515226977,-5, -18, -5, -2, 7, -3, -5, 1
1503515226993,11, 1, -2, -1, 17, -20, -1, 3
1503515227015,-4, -12, -7, -6, 2, 2, -5, -4
1503515227037,-2, 1, -11, -4, 1, 1, 8, 1
1503515227053,-3, -2, -3, 0, -2, 3, 5, 2
1503515227075,8, 19, 2, -3, 31, -1, -11, 3
1503515227098,-3, -4, 3, 0, -14, 1, -5, -1
1503515227112,9, 6, 7, 0, -4, -18, 2, 0
1503515227135,-6, -1, 3, 0, -1, 6, 7, -3
1503515227158,-3, -6, -2, 1, 1, 4, 1, -3
1503515227179,-2, 0, -3, -2, -2, 0, -1, 3
1503515227195,1, 6, 0, 1, -17, 33, -1, -5
1503515227218,5, 4, 0, -2, -18, 36, 4, 2
1503515227239,3, 2, 2, -2, 1, -15, -7, 0
1503515227248,-17, -10, -6, -3, -2, 0, 28, -3
1503515227270,-8, 0, -2, 0, 0, -23, -8, -1
1503515227287,4, -10, -1, 2, 56, 19, -9, 3
1503515227307,-12, -4, 0, 0, -12, 3, -26, -9
1503515227331,0, 0, -1, 0, -10, -3, 11, -2
1503515227346,-7, -15, 6, 0, -8, -9, 7, -3
1503515227368,-6, -13, -16, -8, -4, 17, 0, -7
1503515227390,-16, 3, 8, 4, -5, -10, -16, -27
1503515227405,21, 18, -4, -4, 4, 37, 27, 6
1503515227432,11, 12, 5, 2, 6, 0, -8, 9
1503515227452,-19, -18, -3, -2, -32, 0, 2, -3
