1503701139784,-4, -13, -1, -3, -1, -3, -4, 2, 0
1503701139800,-1, 2, 1, 0, 0, -6, -14, -2, 0
1503701139891,-7, 0, -2, 0, 0, 1, 11, -1, 0
1503701139904,-9, -11, -3, -2, 0, 4, 12, -7, 0
1503701139921,4, 4, -1, -1, 0, 1, 4, -1, 0
1503701139942,-4, -6, -3, -1, -1, -1, -6, -3, 0
1503701139965,-4, 1, 2, 0, -2, -2, -6, 3, 0
1503701139983,6, 0, 0, -1, -3, -23, -58, 1, 0
1503701140002,-6, -7, -2, -1, 2, 11, 14, -7, 0
1503701140024,5, 4, 1, 0, -1, 5, 14, 2, 0
1503701140040,-10, -11, -3, -1, -1, -2, 1, -4, 0
1503701140076,4, 10, 1, -1, -1, 2, 2, -2, 0
1503701140093,1, 5, 2, -1, 0, 2, -10, 3, 0
1503701140115,3, 18, 1, 0, -1, -3, 2, 4, 0
1503701140130,10, 7, 2, 1, 0, 2, 8, 3, 0
1503701140155,2, 1, -2, 0, -1, 3, 3, 5, 0
1503701140175,-1, 3, -3, -1, -1, -1, 3, -3, 0
1503701140190,-3, -3, 0, 0, 0, 0, 7, 2, 0
1503701140213,-15, -23, -3, -1, -2, -1, -4, -6, 0
1503701140236,3, 10, 0, 1, 0, 2, 16, 1, 0
1503701140250,-8, 0, 2, 0, 1, -1, -6, -4, 0
1503701140273,0, 6, 2, -1, 0, 0, -2, 0, 0
1503701140297,6, 2, 0, -1, -2, -6, -17, -1, 0
1503701140311,8, 8, -1, 0, -3, -14, -29, 1, 0
1503701140333,5, 2, 1, -1, -2, 4, 6, 2, 0
1503701140356,4, 6, -1, -1, 1, 1, 7, 3, 0
1503701140375,2, -6, -3, 0, 0, -1, 3, -1, 0
1503701140393,-4, -6, -1, 2, -1, 0, -2, -3, 0
1503701140415,-5, -4, -1, -3, -1, 3, 5, 1, 0
1503701140431,1, 0, 0, 0, 0, 0, 5, -3, 0
1503701140453,-4, 1, -4, -2, 0, 0, -3, -7, 0
1503701140475,-7, -11, -1, -1, 0, 5, 8, -2, 0
1503701140491,-1, 1, 0, 0, -1, 2, 3, -1, 0
1503701140513,-10, -8, -2, -1, 0, 0, 13, 0, 0
1503701140535,6, 9, 1, -2, -1, 0, -1, -2, 0
1503701140551,12, 2, -1, 0, -1, 0, 0, 4, 0
1503701140573,-13, -20, -4, -2, -1, -9, -5, -2, 0
1503701140595,3, -1, -1, 2, 1, 7, 10, 1, 0
1503701140610,-7, -2, -2, -1, 0, 0, -7, -2, 0
1503701140633,-10, -3, -3, -4, -4, -3, -13, -5, 0
1503701140655,12, -6, -1, -1, -1, -3, -6, -2, 0
1503701140677,-3, -3, -2, -3, 1, 3, 20, -4, 0
1503701140692,1, 4, 1, -1, -1, -2, 4, -4, 0
1503701140708,-7, -2, -2, -1, -1, 0, 1, -1, 0
1503701140723,6, 1, 0, 0, -1, -3, -7, 1, 0
1503701140744,-8, -9, -2, 0, 0, -11, -24, -3, 0
1503701140767,-4, -3, 2, -1, 0, 4, 5, 0, 0
1503701140782,-3, -4, -2, -1, -1, -1, -1, -1, 0
1503701140804,0, 2, 0, -1, 0, -4, -3, -1, 0
1503701140827,-1, 1, 0, -1, -1, -1, 0, -1, 0
1503701140843,14, 7, 1, 1, -1, 1, 5, 3, 0
1503701140865,4, 3, -2, -1, 0, 0, -2, 0, 0
1503701140887,-6, 4, -3, -2, 0, 4, 4, -2, 0
1503701140904,-12, -8, -6, -2, -4, -4, -6, -3, 0
1503701140924,-3, -1, 2, 1, 1, 1, -18, 1, 0
1503701140935,-6, -7, -2, -2, -1, -3, -6, -1, 0
1503701140955,3, -1, 1, 0, -3, -2, -4, -1, 0
1503701140977,13, 18, 0, -1, 0, 0, 0, 1, 0
1503701140984,14, 7, 2, -1, 1, 1, 8, 5, 0
1503701141007,2, -3, -2, 1, 0, 2, 6, 2, 0
1503701141023,-2, -2, -2, -1, -3, -1, -2, 1, 0
1503701141044,-3, -7, 0, -3, -1, -1, -2, -3, 0
1503701141068,2, 8, 1, 2, 2, -1, -5, -3, 0
1503701141082,1, 1, -1, 0, -2, -2, 0, 2, 0
1503701141098,-13, -2, -2, -2, -2, 2, 10, -7, 0
1503701141113,-2, -17, -3, -2, -1, -10, -14, -1, 0
1503701141136,0, 1, 0, 0, 0, 10, 26, 0, 0
1503701141158,-6, -8, -4, -2, -2, 5, 23, 0, 0
1503701141173,12, 5, -1, -1, 0, 0, 1, 1, 0
1503701141195,-2, 9, 1, 0, 0, -1, -6, 0, 0
1503701141217,0, -5, -1, 1, -2, 2, 8, 4, 0
1503701141224,-2, 3, -1, -1, -1, 6, 19, 0, 0
1503701141247,3, -7, -2, -2, -1, 4, 8, -1, 0
1503701141263,9, 10, 0, 1, 0, 2, 6, 4, 0
1503701141284,3, -4, -1, 0, -1, 4, 6, 0, 0
1503701141307,-13, -23, -3, -1, -2, -8, -19, -2, 0
1503701141323,10, 4, 0, 0, 1, 5, 18, 4, 0
1503701141352,-18, -12, -3, -4, -3, -10, -33, -7, 0
1503701141367,-2, -24, -3, -1, -2, 3, 16, -2, 0
1503701141376,-9, -7, -2, 0, -1, -3, -4, -4, 0
1503701141398,-3, 1, 0, -1, 0, 4, 16, -1, 0
1503701141413,-10, 3, 0, -2, -1, -3, -12, -7, 0
1503701141435,-9, -24, -6, -2, -4, -2, -7, -5, 0
1503701141458,-1, -11, -1, -1, 0, -8, -24, 2, 0
1503701141473,4, 5, 0, -1, -1, -6, -19, -1, 0
1503701141495,17, 15, 0, 0, -1, 3, 12, -1, 0
1503701141518,-17, -5, 0, 1, -1, 1, 4, -4, 0
1503701141533,7, 7, 2, 0, 2, 0, 9, 4, 0
1503701141555,9, 7, 0, -1, -2, 2, 6, 3, 0
1503701141578,5, -1, 1, 0, 0, 1, 3, 0, 0
1503701141600,-3, 2, 1, -1, -1, 2, 2, -1, 0
1503701141615,2, 2, -1, 0, 0, 2, 2, -1, 0
1503701141640,-3, 0, -2, 0, 1, -2, -2, 0, 0
1503701141661,2, 4, 1, 0, -2, -1, 5, 2, 0
1503701141675,1, -4, -1, 0, -2, -7, -17, 0, 0
1503701141691,-4, -7, 2, -1, 0, 1, 4, 0, 0
1503701141707,13, 13, -1, -1, -1, 2, 4, 3, 0
1503701141729,4, 1, -1, 1, 0, 4, 1, -2, 0
1503701141750,-2, 1, 0, -2, -1, 3, 6, 1, 0
1503701141766,1, 6, -1, -1, -1, -4, -2, -3, 0
1503701141789,4, -7, -2, -2, 0, 2, 2, -4, 0
1503701141810,-4, 6, -1, 0, -1, 1, 7, -2, 0
1503701141825,-1, -6, -3, -1, -1, 3, 17, 1, 0
1503701141849,5, 4, 0, -1, -1, -6, -6, 1, 0
1503701141856,-16, -10, -3, -1, -1, -2, 3, -10, 0
1503701141878,11, -8, -1, -1, 0, -9, -17, 2, 0
1503701141886,-15, -14, -3, -1, 1, 0, 0, -6, 0
1503701141911,0, 6, -1, 2, -1, -6, -10, 2, 0
1503701141930,-2, -3, 0, -2, 0, 0, -2, -1, 0
1503701141946,1, -3, -1, -1, -1, 3, -2, -3, 0
1503701141968,6, 3, 1, 0, -1, -2, -4, 4, 0
1503701141991,-13, -5, -2, -1, -1, 1, 4, -3, 0
1503701142013,7, 11, -2, -2, 0, -1, 1, -3, 0
1503701142028,5, -2, -3, -1, -1, -6, -8, -2, 0
1503701142051,1, -3, 1, 0, -1, 1, 10, 8, 0
1503701142065,0, 6, 2, -2, 0, 1, -6, -2, 0
1503701142088,-6, 1, -3, 0, -2, -2, -2, -3, 0
1503701142111,-10, -2, -1, 0, -1, -4, 0, -1, 0
1503701142118,0, 4, 1, -1, -2, -1, -3, 0, 0
1503701142140,-20, -7, -3, -1, -3, -1, -3, -7, 0
1503701142155,9, 2, 0, -1, -1, -4, -10, 3, 0
1503701142178,-4, -2, 0, -1, 1, 1, 5, -3, 0
1503701142200,16, -6, -2, -2, -3, -3, -10, 1, 0
1503701142215,1, 9, 2, 2, -2, 0, 2, 1, 0
1503701142237,-4, -4, -2, -2, 1, 1, 6, 1, 0
1503701142260,-3, -7, -3, 1, 0, 3, 5, -1, 0
1503701142269,-22, -12, -3, -2, -2, -2, -12, -2, 0
1503701142292,3, 4, -2, -1, -2, -4, -4, -3, 0
1503701142306,-1, -1, 2, 1, 1, -4, -5, -4, 0
1503701142328,1, -18, -2, -3, 0, 0, 6, 4, 0
1503701142350,-3, -2, 0, 1, 1, 0, -6, -1, 0
1503701142357,-4, -16, -3, -3, -1, -1, -6, 0, 0
1503701142380,8, 13, 1, 0, -2, -3, 1, -1, 0
1503701142395,-7, 1, 0, -1, -2, 1, 7, 0, 0
1503701142418,4, 6, -1, 0, 0, 0, 3, 0, 0
1503701142441,1, 2, -2, 0, 0, 4, 8, 1, 0
1503701142455,-9, -8, -3, -2, -1, -4, -8, -4, 0
1503701142478,5, 0, 1, 1, -2, -3, -11, 3, 0
1503701142500,-7, -6, -2, 0, 1, 0, -2, 0, 0
1503701142523,-2, -37, -3, -1, -1, 0, 3, -1, 0
1503701142537,1, 10, 1, -2, -1, -7, -21, -3, 0
1503701142560,10, 12, 3, 0, 0, 0, 0, 1, 0
1503701142582,1, 0, -2, -2, -2, 3, 8, -2, 0
1503701142597,-7, 7, -1, -1, 0, -4, -9, -2, 0
1503701142627,3, 17, 1, 0, 0, 0, 1, -5, 0
1503701142642,-1, 0, -2, 0, -1, 0, 1, -2, 0
1503701142657,-17, -19, -4, -4, -2, 3, 11, -2, 0
1503701142680,-3, -6, 1, 0, 1, 2, 3, 1, 0
1503701142702,-6, -7, -2, -1, -2, -4, -3, -4, 0
1503701142710,0, 2, -1, -1, -1, -13, -33, -1, 0
1503701142718,8, 4, -2, -2, -1, 0, 1, 2, 0
1503701142740,-4, -19, -3, -1, -2, -5, 1, 1, 0
1503701142763,-1, 2, 0, -4, 0, 3, 7, -1, 0
1503701142777,2, 0, -1, 0, 0, 0, -3, -2, 0
1503701142800,12, 1, -2, -1, -1, -5, -12, -1, 0
1503701142823,-3, 4, -1, 0, -1, 4, 11, 1, 0
1503701142837,4, 10, -1, -1, 1, -3, -14, 2, 0
1503701142860,-5, 0, -2, 0, -1, -1, 8, 0, 0
1503701142885,-4, -1, -2, -1, -2, -1, -4, 1, 0
1503701142898,-3, -4, -1, -1, 1, 1, -2, 0, 0
1503701142932,-11, 1, 0, -1, -1, -3, -4, 0, 0
1503701142953,-2, -5, -1, 0, 1, 1, -5, -3, 0
1503701142973,6, 10, -1, -2, -2, -2, 1, 1, 0
1503701142988,-3, -8, -2, 0, 1, 1, 1, -3, 0
1503701143010,-8, -2, -2, 0, -1, 1, 5, 0, 0
1503701143018,-1, 2, -1, -2, -1, 1, 11, -4, 0
1503701143040,11, 2, 1, 0, 1, -1, -5, 1, 0
1503701143071,4, 1, -1, 1, -1, 1, 6, 2, 0
1503701143078,11, 11, -1, -1, 0, -2, -7, 1, 0
1503701143100,-1, -4, -1, -1, -3, 0, 11, -1, 0
1503701143123,3, -2, -1, -1, -1, -1, -11, 3, 0
1503701143137,-3, 2, -1, -1, 0, -3, -11, -3, 0
1503701143160,-1, 4, -2, -1, -1, 0, -1, -4, 0
1503701143183,-4, -1, -2, 0, 1, -3, -3, -1, 0
1503701143197,-8, 3, -1, -1, 0, 2, 5, -3, 0
1503701143220,-6, -4, -1, 0, 0, -1, 1, -4, 0
1503701143242,-16, -27, -1, -1, -3, -16, -53, -1, 0
1503701143251,2, -1, -2, 2, -1, -3, -5, 2, 0
1503701143273,12, 11, 1, -1, -1, -1, 4, 1, 0
1503701143288,-7, -18, -4, 0, 0, 1, 10, 0, 0
1503701143310,9, 6, 0, -1, 0, -5, -22, 0, 0
1503701143332,-6, -1, 0, 0, 0, -4, -11, 2, 0
1503701143348,-2, -10, 0, -3, -1, -4, -4, -4, 0
1503701143370,-8, -4, -2, -2, -1, -1, 5, -4, 0
1503701143393,-3, 0, 0, -1, -1, -2, -5, -1, 0
1503701143408,11, -8, -1, 0, -2, -1, -1, -1, 0
1503701143431,-1, 1, 0, -1, 0, 0, 1, 1, 0
1503701143453,-6, -3, -3, -2, 0, 8, 29, 0, 0
1503701143475,0, 2, -2, 1, -1, 2, 6, -1, 0
1503701143491,-11, 1, -2, -2, -1, -4, -9, -4, 0
1503701143513,2, -1, -2, -1, -1, -2, -7, -1, 0
1503701143535,-1, -10, -2, -1, -2, -3, -4, 6, 0
1503701143551,-13, -32, -4, -3, 0, -2, -5, -4, 0
1503701143573,5, 9, 1, -1, -2, -1, 5, 2, 0
1503701143595,-3, 10, 2, 2, 0, -1, 0, 1, 0
1503701143603,0, 8, -3, -5, -1, -1, -1, -7, 0
1503701143625,-6, -11, -1, -1, 0, -5, -18, -5, 0
1503701143640,-2, 1, -1, 1, -1, -3, 3, 4, 0
1503701143663,7, 5, -3, -2, -3, -16, -44, -4, 0
1503701143688,0, -1, 0, 0, 1, 6, 7, 1, 0
1503701143700,5, 3, 0, 1, -2, -2, -12, 3, 0
1503701143723,3, 7, 0, -1, 0, 2, 14, -1, 0
1503701143745,-8, -7, -2, -2, -1, -2, -6, -4, 0
1503701143760,-8, -3, -3, 0, -1, -7, -8, -2, 0
1503701143782,-3, 0, 1, -3, -1, 2, 6, -4, 0
1503701143805,-5, -2, -5, -2, -1, 0, 9, -3, 0
1503701143821,8, 7, 0, 1, -1, -1, -10, 0, 0
1503701143842,0, -3, 1, 1, 0, 6, 18, 4, 0
1503701143865,-6, -4, 0, -1, 0, 2, 5, -4, 0
1503701143880,-6, 3, -1, -1, -1, -5, -2, -4, 0
1503701143909,6, 2, -1, 0, -1, 0, -1, 4, 0
1503701143925,0, -5, -2, -2, -2, 4, 6, -3, 0
1503701143940,2, 10, 0, -1, 1, -3, -5, -3, 0
1503701143963,-4, 2, 1, -1, 0, 2, 9, -2, 0
1503701143985,-1, -2, -3, -1, -2, -8, -21, 1, 0
1503701144001,-3, -3, -2, -3, -1, -4, -5, 0, 0
1503701144023,1, -5, 2, 0, 1, 2, 1, 3, 0
1503701144045,-8, -17, -6, -2, -3, 0, 0, -6, 0
1503701144060,1, 2, 0, 0, 0, 1, 6, -3, 0
1503701144082,-7, -10, -2, -1, -1, 1, 5, -2, 0
1503701144105,-2, -3, 0, 0, 0, -3, 8, 0, 0
1503701144120,4, 2, 1, -2, -1, 3, 2, 0, 0
1503701144142,3, -1, -3, -1, -2, -2, -7, -3, 0
1503701144165,7, 11, 2, 1, 0, 3, 8, 5, 0
1503701144180,4, 6, -1, 0, -1, 0, 7, 3, 0
1503701144202,-4, 4, 0, 1, 0, -3, -7, -2, 0
1503701144226,-9, -12, -1, 0, 0, 0, -4, -1, 0
1503701144240,0, -2, -1, 0, -1, 2, 11, 4, 0
1503701144263,-12, -5, 2, 1, -2, -2, -12, -1, 0
1503701144285,10, 7, -2, -2, 0, -1, 15, -4, 0
1503701144300,6, -1, 1, 1, 0, 1, -2, 1, 0
1503701144326,-4, -10, -2, -2, -1, -7, -32, 0, 0
1503701144345,-15, -24, -5, -1, -1, 0, 0, -5, 0
1503701144367,6, 8, -1, -1, 0, -1, -1, -4, 0
1503701144382,2, 2, -2, -1, -1, 1, 8, 1, 0
1503701144405,-5, -10, -2, -2, 0, 3, 1, -3, 0
1503701144427,1, 4, 0, -3, -3, -11, -14, -2, 0
1503701144442,2, 10, -1, 2, 0, 4, 8, 0, 0
1503701144465,-1, -19, -1, 0, 0, 5, 11, 8, 0
1503701144486,-2, -3, -3, -3, -1, -2, -6, -3, 0
1503701144495,-3, 0, -1, -2, 0, 0, 4, 1, 0
1503701144521,-14, -28, -6, -5, -2, -7, -19, -7, 0
1503701144533,0, 1, 1, -1, -1, 4, 14, 1, 0
1503701144555,3, 4, -3, -2, -1, -9, -15, -3, 0
1503701144577,-3, -1, 0, -1, 0, -1, 0, 0, 0
1503701144596,6, 1, 1, -2, -1, -6, -20, 1, 0
1503701144615,-2, 13, 0, 0, 0, 3, 9, -3, 0
1503701144637,6, 5, -2, 0, -1, 2, 7, 0, 0
1503701144653,3, -6, -1, 2, 1, 3, 11, 0, 0
1503701144675,1, 9, 1, 0, -1, -1, -3, 2, 0
1503701144698,6, -4, 0, -4, 1, 3, 7, 2, 0
1503701144713,1, -2, 1, 0, 0, 12, 42, 4, 0
1503701144736,8, 7, -1, -1, -1, 0, -4, 3, 0
1503701144757,-7, -6, 0, -2, -1, 1, 1, -5, 0
1503701144773,-5, -5, -2, -1, -3, -5, -17, -2, 0
1503701144795,1, 1, -2, -3, -1, 1, 3, 0, 0
1503701144817,-11, -15, -1, 1, -2, -5, -11, -3, 0
1503701144833,1, 1, -2, 1, -2, -3, -2, -2, 0
1503701144855,-1, 4, 1, 0, 0, 3, 1, -7, 0
1503701144863,1, -2, -1, 0, 0, -9, -29, -1, 0
1503701144885,-9, -5, -1, -1, 0, 2, 6, 2, 0
1503701144907,6, -3, -2, 0, 0, -3, -5, 1, 0
1503701144922,9, 10, 1, 0, -2, -5, -11, 3, 0
1503701144945,-5, -15, -3, 1, 0, -2, -2, -1, 0
1503701144974,7, 9, 1, 1, 0, 3, 7, -3, 0
1503701144982,-9, -6, -2, -2, -3, -8, -28, -3, 0
1503701145005,5, 4, 0, -1, 0, 2, 8, 0, 0
1503701145030,-9, -29, -2, -1, -2, -8, -28, 0, 0
1503701145043,-1, 3, 0, 0, -1, 3, 12, -2, 0
1503701145065,-16, 0, -3, -2, -1, 1, 1, -6, 0
1503701145087,13, 12, 0, 0, 1, -1, 1, 2, 0
1503701145102,-4, -5, 0, 0, -1, -7, -13, 0, 0
1503701145125,11, 15, 1, 1, 0, 7, 23, 7, 0
1503701145147,5, 3, 0, -3, -1, -2, 0, -3, 0
1503701145164,-6, -9, -6, -3, -2, 0, 0, -4, 0
1503701145192,5, 2, 0, 0, -1, 0, -2, 4, 0
1503701145207,-3, -1, 0, 0, -1, 0, 10, 0, 0
1503701145222,4, 2, 1, 1, 1, -6, -13, 1, 0
1503701145245,-12, -8, -5, -2, 0, 0, 11, -5, 0
1503701145268,5, 2, 0, 2, 0, 4, 15, 2, 0
1503701145283,-9, -8, -2, -1, 0, 3, 2, -5, 0
1503701145305,-1, 3, 0, 0, 0, -4, -11, 0, 0
1503701145327,-3, -7, -2, -1, -1, 1, 2, 1, 0
1503701145350,3, 1, 0, -1, -2, -9, -36, -6, 0
1503701145358,-5, -7, -2, -1, -1, -4, 7, -3, 0
1503701145380,2, 4, -1, -2, 2, -2, 1, 1, 0
1503701145395,-4, -5, -3, -2, 0, 5, 12, 5, 0
1503701145417,-6, -1, 1, 0, -3, -12, -34, -6, 0
1503701145441,-6, -24, -4, -1, 1, 7, 15, -2, 0
1503701145455,5, 3, 0, 0, -2, -5, -11, 1, 0
1503701145477,-2, 2, 0, -2, 0, 1, 10, 2, 0
1503701145501,-7, -8, 0, 1, -1, 3, 4, -2, 0
1503701145515,2, 1, 0, 1, 2, 3, 6, 0, 0
1503701145538,6, 10, 0, -1, -2, -2, 5, 2, 0
1503701145560,4, 9, -1, -1, 0, -2, -3, 1, 0
1503701145575,6, -5, -1, -1, 0, 1, 7, -1, 0
1503701145597,0, 2, 1, -1, -1, -2, 4, 0, 0
1503701145620,3, 9, 0, -1, -1, 3, 0, -2, 0
1503701145635,-7, -5, -1, -2, 0, -6, -6, 0, 0
1503701145657,-5, -8, -3, -4, -3, -6, -11, -7, 0
1503701145680,3, 2, 1, -1, -1, -6, -16, -4, 0
1503701145695,3, 1, -1, -2, -2, 2, 7, -1, 0
1503701145717,10, 2, -1, 0, 0, -1, -12, 2, 0
1503701145740,-1, 9, -2, -2, -2, 3, 4, -5, 0
1503701145755,-6, -1, -1, -2, 0, 2, 4, -6, 0
1503701145777,-2, -5, -2, -2, 0, 4, 14, -1, 0
1503701145802,6, 3, 0, -2, 0, -7, -9, 2, 0
1503701145815,2, -3, -1, -2, 0, 6, 12, 1, 0
1503701145838,-4, -7, -1, -1, -1, -6, -4, 3, 0
1503701145860,-6, 2, 1, 1, 0, -1, -1, 2, 0
1503701145875,-15, -24, -4, -2, -1, 1, 1, -2, 0
1503701145890,1, -2, 1, 0, 0, 0, 1, 2, 0
1503701145905,0, -4, -1, -2, -2, -2, -5, 1, 0
1503701145928,-2, -1, -1, -1, 0, 4, 20, 1, 0
1503701145949,10, 6, 0, -1, 0, -1, -6, -1, 0
1503701145965,2, -5, -1, 0, -2, 0, 3, 2, 0
1503701145987,-2, 0, 1, 0, 0, -1, -1, -2, 0
1503701146009,0, -3, 0, -2, 0, -5, -7, 0, 0
1503701146018,1, -1, -1, -2, 1, 4, 14, -2, 0
1503701146041,-2, -1, 0, -1, -1, 2, 13, -1, 0
1503701146055,-16, -9, -3, -2, -3, -7, -4, -2, 0
1503701146079,6, 2, -1, 0, 0, 0, -8, -4, 0
1503701146100,-3, 10, 1, 0, -1, -1, -8, 0, 0
1503701146115,1, 4, 2, 0, 1, -2, -2, -2, 0
1503701146138,4, -7, -1, -1, -1, 1, 6, 1, 0
1503701146160,-13, -32, -5, -2, -3, -12, -28, -2, 0
1503701146175,-3, -5, -1, -1, 1, 2, -1, 3, 0
1503701146197,6, 2, 0, -1, -1, 3, 4, 3, 0
1503701146220,-1, 6, 0, 0, 0, -2, -4, 1, 0
1503701146242,-5, 0, -2, -1, -1, 1, 6, -7, 0
1503701146257,1, 11, 1, -1, -1, -6, -23, -3, 0
1503701146280,2, 4, -1, 0, 0, 2, 8, 0, 0
1503701146302,6, 3, -3, -1, -1, -8, -16, 2, 0
1503701146317,3, -3, 2, 1, 0, 2, 8, 1, 0
1503701146340,0, -8, 0, -1, -2, 2, 8, -1, 0
1503701146362,3, 0, -1, 0, -3, -19, -55, -2, 0
1503701146377,-8, -7, -4, -1, 1, 6, 21, -3, 0
1503701146400,-4, -1, -3, -1, -3, 1, 6, -5, 0
1503701146422,-5, -11, -3, -2, -1, 1, 4, 0, 0
1503701146440,-8, -4, -1, 0, 1, 2, 9, 2, 0
1503701146460,1, -1, 0, 0, -1, 3, 12, -2, 0
1503701146482,1, 5, 0, 1, -1, 1, 5, 2, 0
1503701146498,7, -2, 0, -2, -2, -5, -20, 3, 0
1503701146512,8, 7, 0, 1, 0, 0, 6, 0, 0
1503701146527,-3, -8, -5, -2, -2, 1, 4, -6, 0
1503701146551,-9, 0, -3, -2, -2, 0, 2, -4, 0
1503701146574,0, 6, -2, -2, 1, 4, 10, -1, 0
1503701146587,-10, -1, -1, -1, 0, 1, 7, 0, 0
1503701146609,6, 3, 3, 0, 0, 1, 4, 4, 0
1503701146632,1, 1, -2, 0, -1, 0, 2, -2, 0
1503701146647,-1, -5, -2, -1, -1, -3, 0, 0, 0
1503701146669,4, 4, -1, -1, 0, 0, 1, -1, 0
1503701146692,-2, -2, 1, -2, 0, -1, -1, 0, 0
1503701146708,-4, -12, 0, -1, -3, 0, -2, -2, 0
1503701146729,5, 5, 0, 2, 0, 2, 4, -2, 0
1503701146753,3, 1, -2, -1, -2, -1, 4, -3, 0
1503701146776,-9, -5, -3, -2, 0, -1, 0, 1, 0
1503701146790,3, 2, 1, 1, -2, 0, 2, 0, 0
1503701146813,-6, -20, -3, -2, 1, -2, -2, 0, 0
1503701146835,1, 1, 0, -2, -2, -3, -8, 0, 0
1503701146851,4, 1, -1, 1, -3, -3, -7, 3, 0
1503701146873,-1, 4, -2, -1, 1, 0, -2, 1, 0
1503701146895,-4, 0, 0, -1, 0, 1, 1, -1, 0
1503701146916,3, 5, 1, 0, 0, -1, 1, 1, 0
1503701146933,5, 9, 0, -1, -2, -1, -3, -3, 0
1503701146955,1, -3, -3, -1, 0, -2, 1, -1, 0
1503701146970,2, 11, 1, 1, 0, 3, 6, 0, 0
1503701146978,0, 0, -1, -2, -1, 0, -2, -2, 0
1503701147000,5, 0, -1, 1, 0, -1, -2, 1, 0
1503701147023,2, 0, -1, -1, 1, 0, -4, 1, 0
1503701147037,5, 3, 1, -1, 0, -3, -11, 1, 0
1503701147060,5, 7, 1, 0, 1, 3, 6, 0, 0
1503701147082,-7, -4, -3, -2, 0, -3, -3, -1, 0
1503701147097,-2, -4, -3, -2, 0, -1, 2, -1, 0
1503701147120,8, 6, -1, -1, -1, -4, -8, 0, 0
1503701147146,-8, -20, -3, -1, -2, -1, 12, 1, 0
1503701147165,3, -2, -1, -1, 0, 3, 6, -3, 0
1503701147180,2, -1, -3, -2, -1, -2, -14, -3, 0
1503701147202,1, 1, 0, 0, -2, -4, -6, 0, 0
1503701147225,5, 4, 4, 2, 1, 0, 0, 1, 0
1503701147240,-7, 0, -3, -1, -3, 7, 29, -6, 0
1503701147262,4, 0, 0, -1, 1, 4, 13, 4, 0
1503701147285,-7, -23, 0, 1, 0, -2, -9, 3, 0
1503701147300,-9, -5, -2, -3, -2, -5, -8, -1, 0
1503701147322,-14, -2, -4, -3, -2, -4, -6, -5, 0
1503701147335,-9, 1, -1, -1, -1, -3, -4, -4, 0
1503701147353,-6, -14, -2, 1, -2, -1, -6, -3, 0
1503701147375,20, 2, -2, -1, -2, -2, -6, -2, 0
1503701147391,-6, -4, -1, 0, 0, 1, 2, -4, 0
1503701147415,-3, 3, -1, 0, -2, -2, 2, 2, 0
1503701147435,2, 5, 1, 1, 0, 0, -3, 4, 0
1503701147451,-5, -9, -3, -3, -1, -3, -5, -5, 0
1503701147473,-1, 4, 2, 0, -3, 0, 2, 1, 0
1503701147495,5, 4, 1, 0, -1, -2, -1, 5, 0
1503701147510,-3, -4, -4, -6, 0, 0, 2, -1, 0
1503701147533,5, 21, 0, -1, -1, -2, -2, 0, 0
1503701147556,1, 4, 2, 3, 0, -2, -1, 2, 0
1503701147570,2, -7, -2, -1, 2, 1, 1, -1, 0
1503701147593,-4, -1, -6, -8, -3, -1, -2, -2, 0
1503701147615,-4, -4, -3, -3, -1, -1, 0, -4, 0
1503701147630,-2, 1, 3, 1, 0, 1, -2, 0, 0
1503701147654,-1, -1, -9, -7, -6, -2, -3, 0, 0
1503701147675,-3, -8, -11, 0, 0, -1, -1, -3, 0
1503701147691,2, -3, -1, -3, 8, 2, 0, -4, 0
1503701147715,2, 1, -1, -11, -6, -2, 0, 1, 0
1503701147735,-2, 1, -13, -32, -3, 0, -2, 2, 0
1503701147758,5, 3, 67, -88, -8, -5, 1, 2, 0
1503701147782,2, -5, -16, -30, -8, 1, 1, 2, 0
1503701147802,3, 3, 1, 33, 9, 0, -1, -2, 0
1503701147825,0, -7, -35, -9, -31, -17, -1, -1, 0
1503701147840,-2, 9, 32, -10, 1, 9, 1, 0, 0
1503701147862,-3, -9, -43, -46, 2, 1, 0, 2, 0
1503701147885,-3, -11, -15, -40, -3, -4, -4, -5, 0
1503701147900,2, -5, -31, 4, 13, 5, 0, -2, 0
1503701147922,-3, 6, 3, 17, 7, 2, 0, 1, 0
1503701147946,-3, 12, 49, 23, 1, 4, 0, 0, 0
1503701147960,-2, -6, -6, -2, -2, -7, -2, -3, 0
1503701147983,7, -1, -7, 0, 16, 5, 1, -2, 0
1503701148005,-16, -3, -4, 14, 13, 0, -1, -1, 0
1503701148020,-49, -22, -5, -13, -54, -5, 6, -4, 0
1503701148042,-23, -6, -15, -14, -3, -1, -2, -12, 0
1503701148065,13, -5, -4, -2, 6, -1, -2, 2, 0
1503701148080,5, 17, -7, -2, 6, -4, -4, 2, 0
1503701148102,30, 0, -14, -8, 7, 3, -6, 2, 0
1503701148125,-4, 0, -5, -1, 8, 4, -2, 0, 0
1503701148147,6, 7, 7, 8, 1, 1, 1, 1, 0
1503701148162,0, -2, 9, 18, -2, -2, -2, 1, 0
1503701148185,10, -2, 15, -16, -37, -8, -2, -1, 0
1503701148208,4, 0, 15, 42, 100, 13, -2, -1, 0
1503701148223,14, 12, -3, -13, -13, 4, 16, 4, 0
1503701148245,-13, 2, 7, 1, -1, 7, 6, -2, 0
1503701148268,0, -4, -36, -26, -27, -2, -1, 1, 0
1503701148282,9, 0, -13, -11, -1, -1, -2, -2, 0
1503701148305,-16, -1, -11, -7, -6, -4, -5, 1, 0
1503701148329,11, -27, -19, -22, -18, -11, -3, 0, 0
1503701148343,11, 21, 18, 5, -3, -4, -2, 0, 0
1503701148365,10, -17, 1, 6, -2, 1, 0, -13, 0
1503701148388,-17, 6, 4, 8, 12, 27, 6, -2, 0
1503701148402,15, -55, -6, -4, -24, -33, -15, 0, 0
1503701148425,-8, 96, 1, 9, 7, 89, 16, -13, 0
1503701148447,-34, 64, 5, 1, 3, -24, 17, 20, 0
1503701148462,64, -13, -75, 17, 73, 102, 74, 63, 0
1503701148479,-62, 79, -7, 40, 105, 46, 92, 34, 0
1503701148493,-29, -10, 12, 19, 39, 45, -2, -46, 0
1503701148515,46, 24, 19, 19, 29, 30, 23, 63, 0
1503701148537,51, 19, -15, -19, -76, -25, -1, -23, 0
1503701148554,-34, 15, -4, -3, -26, 12, -23, -10, 0
1503701148575,-27, -72, -50, -20, -24, -57, -18, -16, 0
1503701148597,5, 21, 3, 6, 13, 17, 2, 4, 0
1503701148613,16, 6, 1, 10, 20, 45, 13, 21, 0
1503701148635,-26, 29, 13, -8, -23, -81, -15, -37, 0
1503701148658,1, 5, 1, 4, 17, 55, 0, -2, 0
1503701148673,8, 10, 12, 5, -9, -28, -3, -19, 0
1503701148696,10, -2, -12, -12, -17, -40, -5, 2, 0
1503701148717,8, -8, 3, 2, 28, 15, 3, 4, 0
1503701148733,9, 11, 16, 6, 8, 26, 5, 7, 0
1503701148757,-15, 5, -4, -9, -10, 8, 1, -4, 0
1503701148777,-1, -6, -4, 2, 20, -30, -2, 2, 0
1503701148793,4, -2, -4, -1, -5, -4, -2, -1, 0
1503701148815,14, -4, -6, 0, -3, 0, -3, -13, 0
1503701148844,-14, 14, -3, 0, -2, 12, 0, 2, 0
1503701148853,-4, -1, -4, -2, 1, 6, 1, 0, 0
1503701148875,-1, -4, 2, 0, -16, -1, -1, 2, 0
1503701148899,5, 2, -1, -6, -31, -3, -5, -1, 0
1503701148913,6, -4, -4, -4, -14, 0, 0, 7, 0
1503701148935,-2, -2, 1, 2, 14, 0, -1, -3, 0
1503701148963,-4, -8, -2, 3, 13, 2, -2, -3, 0
1503701148973,-1, -1, -4, -2, 7, 1, 1, 2, 0
1503701148996,2, 1, 1, 2, 5, 0, -1, -1, 0
1503701149018,3, 1, 0, -3, -9, -3, 0, -4, 0
1503701149041,1, -1, -2, -5, -8, 0, -1, -3, 0
1503701149063,-4, 1, 0, -6, 13, 4, -1, 0, 0
1503701149078,0, -1, 0, 0, 12, 5, 3, -9, 0
1503701149100,1, 3, 0, 1, -8, -5, -2, -2, 0
1503701149115,-4, -2, 1, 2, -3, -4, -3, 3, 0
1503701149138,-1, -4, -2, 2, 2, 2, 1, -1, 0
1503701149160,-1, 1, 3, 4, 3, 1, -2, 0, 0
1503701149175,1, 1, 0, 1, 3, -1, 0, -8, 0
1503701149198,0, -2, -1, 0, -3, -2, -1, 5, 0
1503701149220,-4, -1, -5, 1, -5, -1, -1, 3, 0
1503701149235,0, -1, -1, -1, 1, 7, 6, 2, 0
1503701149260,-4, -1, -3, -1, 1, -1, 0, 0, 0
1503701149280,-1, 2, -2, -1, 2, 2, 2, 0, 0
1503701149295,3, 2, 1, 0, -3, -5, -3, 0, 0
1503701149318,-4, -3, -2, -1, 2, -2, 2, 4, 0
1503701149340,1, 0, 0, 1, 6, 7, 0, -4, 0
1503701149355,-2, -2, -1, -2, -7, 5, 6, 3, 0
1503701149378,0, -3, 0, -1, 0, -2, 0, -2, 0
1503701149400,-2, -3, -2, -4, -8, -1, 5, 1, 0
1503701149415,-1, 0, -1, 1, 1, -24, -22, -8, 0
1503701149438,4, 2, 0, 0, 1, 1, 6, 5, 0
1503701149461,-6, -10, -9, -2, -3, -2, -5, 3, 0
1503701149475,5, 2, 1, 3, 4, 12, 16, 5, 0
1503701149498,-8, -2, -5, -4, 3, 0, -10, 7, 0
1503701149520,-3, -1, 17, 4, 0, 3, -1, 8, 0
1503701149537,2, 3, -5, -3, 2, -23, -2, -4, 0
1503701149558,25, -3, -4, -2, -6, 2, 27, 6, 0
1503701149580,-5, 0, -2, 0, -1, 10, 5, 1, 0
1503701149597,-16, -10, -11, -6, 4, 2, -33, -23, 0
1503701149618,-14, -4, -1, 1, 0, -44, -27, -2, 0
1503701149640,-13, -12, 3, 2, -5, -9, -19, -13, 0
1503701149655,39, 10, 3, -12, -71, 5, -13, 6, 0
1503701149678,24, 3, 2, 0, -3, 6, -56, 5, 0
1503701149700,14, -7, -9, -8, -22, -26, -36, 8, 0
1503701149715,-11, -1, 2, 3, 22, 32, 45, -20, 0
1503701149738,13, 7, 5, 9, 24, 34, 19, -9, 0
1503701149760,-15, 2, 0, 3, 11, -3, 18, 4, 0
1503701149775,-20, 2, -3, -5, 3, -5, 18, 12, 0
1503701149798,-23, 2, 0, 4, 31, 11, 17, -1, 0
1503701149820,-6, -5, -4, -4, -7, -22, 30, 4, 0
1503701149835,-6, -1, 1, 3, 7, 33, -5, -7, 0
1503701149858,13, 2, 1, 1, -25, -1, 15, 8, 0
1503701149880,24, 2, 0, -3, 2, -7, -5, 8, 0
1503701149896,-7, 1, 0, 1, 5, -5, -11, -20, 0
1503701149917,-15, -9, -1, 2, 4, -4, -4, 9, 0
1503701149940,-11, -4, -1, -3, -4, -2, -11, -4, 0
1503701149964,9, -1, -6, -6, -3, -1, -7, 1, 0
1503701149978,7, -2, 3, 2, 3, -3, -2, 3, 0
1503701150000,-1, 8, 0, 0, -2, 0, 24, 5, 0
1503701150022,9, 4, -4, -2, -7, -2, 1, 8, 0
1503701150037,-13, -2, -2, -1, -2, -9, -13, 3, 0
1503701150060,2, 3, -1, -2, 3, 3, -3, 1, 0
1503701150089,58, 20, 22, 6, 2, 0, -2, 14, 0
1503701150099,-18, 5, -9, -3, -1, 1, -4, -5, 0
1503701150120,-25, -5, 0, -1, 3, -1, 3, -15, 0
1503701150142,4, -27, -6, -2, -1, 0, -4, -8, 0
1503701150158,12, -32, -13, -8, -1, -17, -9, 22, 0
1503701150180,-95, -2, 2, -1, -2, 4, 0, -35, 0
1503701150203,18, 4, 1, 2, -1, 1, -3, -10, 0
1503701150218,20, 31, -4, -6, -4, -2, -3, -3, 0
1503701150240,0, -3, 1, 1, 1, 2, -1, -9, 0
1503701150263,-14, 24, -8, -2, -1, 2, 0, 9, 0
1503701150278,-16, -19, -2, 0, -1, -1, 0, 5, 0
1503701150300,2, -11, -1, 3, 3, 1, -2, -2, 0
1503701150322,1, -18, -13, -3, -2, -2, -3, 6, 0
1503701150338,2, -9, -4, -6, -18, -8, -5, -9, 0
1503701150360,3, -8, 1, 0, 0, 0, 1, -1, 0
1503701150382,5, 17, 7, 0, 2, -4, -3, -7, 0
1503701150398,-2, -4, -2, 2, 0, 1, -5, -1, 0
1503701150419,5, 6, 5, -4, -1, 3, 5, -7, 0
1503701150442,-5, 0, -1, 3, 6, 4, 2, 4, 0
1503701150458,3, 2, 5, 4, -7, 10, 9, 0, 0
1503701150480,2, 1, -2, -3, -3, -1, 0, 6, 0
1503701150502,20, 10, -1, -1, -6, -1, -4, -4, 0
1503701150518,8, 20, 10, 4, 1, -3, 0, -1, 0
1503701150540,-15, 0, 0, -1, 5, 0, -3, 2, 1
1503701150562,8, 2, 0, -6, -7, -6, -7, -14, 1
1503701150578,-8, -6, 3, 1, 3, 1, -5, -19, 1
1503701150600,20, 14, 0, -3, -1, -2, -3, -3, 1
1503701150608,1, 13, -6, -2, 2, -1, -4, 12, 1
1503701150630,21, -10, -7, -3, -6, 0, -4, 13, 1
1503701150651,-18, -11, -2, -3, -1, -3, -7, -9, 1
1503701150670,-15, -5, -4, -3, -5, 2, 1, -1, 1
1503701150682,4, 0, -4, -2, -2, -1, 1, 4, 1
1503701150698,-26, -17, -3, -2, 6, -1, -3, -4, 1
1503701150720,21, 20, 2, -3, 0, 12, 7, -9, 1
1503701150742,-10, -41, -4, -2, -4, -3, -16, 3, 1
1503701150758,3, 2, 0, -1, 2, 5, 6, 14, 1
1503701150780,10, 1, 1, 2, -3, -5, -3, -1, 1
1503701150804,7, 3, 1, 1, -4, 1, 4, 9, 1
1503701150818,-5, 6, 10, 9, -3, -1, 2, -1, 1
1503701150841,-3, -1, -5, -5, -2, -6, -5, -3, 1
1503701150862,6, -13, -4, -3, -3, -4, 1, 5, 1
1503701150878,-1, 0, -8, -6, 0, -3, -5, 9, 1
1503701150900,1, 4, -3, 1, 0, -1, 1, -9, 1
1503701150922,-2, 4, -6, -3, -5, -4, -8, -23, 1
1503701150945,-1, -3, -7, -4, -2, 0, 5, -2, 1
1503701150960,10, -2, 2, 6, 4, 5, -2, -3, 1
1503701150982,-9, 2, 3, -4, 7, -1, 2, 21, 1
1503701151005,19, 13, 1, 1, -1, 0, 12, 9, 1
1503701151020,27, 4, 4, 7, 7, -1, -3, -23, 1
1503701151043,1, -3, -8, -4, -2, -8, -14, -7, 1
1503701151065,15, 11, 1, 3, 21, 3, 3, 6, 1
1503701151080,-25, 2, 1, 2, 4, -4, 4, -11, 1
1503701151102,3, -4, -3, -6, -13, -5, -14, -16, 1
1503701151125,0, -3, -1, 1, 0, 2, 1, 8, 1
1503701151141,-3, -5, 0, -6, -14, 0, -13, 12, 1
1503701151162,-15, -11, -1, -5, -11, 0, 12, 14, 1
1503701151185,-9, -14, -7, -1, 1, -2, -5, -18, 1
1503701151200,2, 5, -5, -1, 1, -1, -1, -2, 1
1503701151222,1, -2, -7, -6, -7, -4, -4, -3, 1
1503701151245,14, 5, 10, 6, 18, 2, 0, 8, 1
1503701151260,-19, 2, 6, -1, -6, -2, 2, -7, 1
1503701151282,-16, -9, -8, -2, -1, 1, -4, 6, 1
1503701151306,26, 15, 7, 3, 3, -15, 0, 15, 1
1503701151320,4, -4, -2, 1, 11, 7, 6, 23, 0
1503701151343,5, 6, 2, -4, -9, -3, -4, -29, 0
1503701151365,19, 6, 3, 2, -4, 0, 2, 13, 0
1503701151380,-25, -3, -2, 2, 13, 6, 1, -3, 0
1503701151402,17, -6, -4, -5, -18, -10, -7, -9, 0
1503701151425,-10, 5, 10, -1, -8, 0, 0, -4, 0
1503701151441,5, 7, -2, 2, 2, 6, 1, 4, 0
1503701151462,-1, 3, 0, 0, 1, -3, -8, -17, 0
1503701151485,8, -1, -3, -5, -4, -2, 4, 7, 0
1503701151500,15, 12, 2, -7, -4, -5, 2, 14, 0
1503701151522,6, 4, 0, 0, -8, -3, -6, 2, 0
1503701151545,-16, -11, -4, 2, -1, 6, 2, 2, 0
1503701151560,-6, -11, -5, 2, -6, -2, -1, -12, 0
1503701151582,3, 5, 2, 2, 4, 1, 1, 5, 0
1503701151597,14, -1, -1, -1, 2, 4, 5, 20, 0
1503701151619,21, 29, 14, 12, 8, -1, -7, -36, 0
1503701151634,19, -7, -17, -17, -11, 6, 1, 26, 0
1503701151650,-2, -6, -9, -6, 0, -2, 0, 3, 0
1503701151671,25, 4, 20, 17, -2, 2, 2, -10, 0
1503701151694,-13, -4, 16, -6, 4, -1, -3, -6, 0
1503701151710,-41, -10, -8, 0, -2, -4, -5, -12, 0
1503701151731,-50, -11, -11, -1, 1, -1, 2, -5, 0
1503701151754,6, -16, -11, -2, 2, -2, -2, -8, 0
1503701151770,29, -17, -7, -5, -11, -2, 2, 8, 0
1503701151791,-28, -23, -10, -1, 1, -2, -2, -7, 0
1503701151814,6, 3, -6, -6, 2, -4, -6, -8, 0
1503701151836,0, -8, -4, -4, -2, 1, 4, 14, 0
1503701151852,68, 11, -5, -4, 9, 1, -1, 5, 0
1503701151882,-59, -13, -5, 0, -7, -1, -2, -8, 0
1503701151905,12, 17, 1, -1, -2, 0, -4, 6, 0
1503701151916,-122, -24, 15, 5, 2, 2, -1, -7, 0
1503701151934,7, -6, 0, 2, -19, -7, -2, -9, 0
1503701151958,18, -2, -1, 8, 7, 2, 2, -16, 0
1503701151980,-19, -8, -10, -2, -5, -5, -4, -4, 0
1503701151995,-41, -26, -7, -3, -7, -6, -2, 0, 0
1503701152018,-7, -19, -10, -7, 0, 0, 0, 14, 0
1503701152025,9, -1, -5, -5, -6, -5, 0, -1, 0
1503701152048,-16, 1, -5, -6, -8, -8, -2, -3, 0
1503701152062,6, 0, -2, -1, 0, 0, -3, -27, 0
1503701152085,-11, -3, 9, 15, 9, 2, 2, 16, 0
1503701152107,-4, -29, -6, -1, 0, -1, -1, -2, 0
1503701152122,-18, 1, 1, 3, 21, 0, -1, -1, 0
1503701152146,-1, 22, 0, -5, -8, -2, 1, 6, 0
1503701152167,20, 17, 3, 7, 16, 6, -3, -14, 0
1503701152182,7, 3, -4, -3, 10, -1, 0, -2, 0
1503701152198,-20, -17, -4, 0, 3, 3, 0, 8, 0
1503701152220,-22, -9, -5, -1, 0, 1, -1, 7, 0
1503701152235,20, 13, -3, -1, 7, 1, 1, 2, 0
1503701152257,12, 9, -3, 0, 0, -1, 0, 0, 0
1503701152280,1, -3, -3, -4, -4, 0, -3, -6, 0
1503701152295,-6, -1, -1, 8, 12, -21, -13, 1, 0
1503701152318,-4, 2, -2, -5, -6, 6, 5, 9, 0
1503701152325,2, -4, -4, -10, -8, -7, -4, -4, 0
1503701152347,6, 6, 1, 0, -12, 2, 0, 2, 0
1503701152356,3, -8, -5, -7, -6, -1, -2, -5, 0
1503701152377,-10, -1, -5, 0, -3, -1, 0, -4, 0
1503701152400,1, -1, -3, -4, -5, 2, 2, -6, 0
1503701152416,-2, -15, -1, 2, 4, 2, -1, 6, 0
1503701152438,-7, 7, -2, 0, 2, 0, 2, -3, 0
1503701152460,6, 0, 4, 3, 1, 0, 2, -4, 0
1503701152475,16, 3, -5, -4, -6, -3, -4, -1, 0
1503701152497,11, 20, -4, -1, -3, -2, 0, 2, 0
1503701152505,3, -6, 1, 0, 1, 1, 2, 0, 0
1503701152527,1, -3, -5, -5, -4, -3, 0, 4, 0
1503701152542,-5, -2, -5, -4, 4, 4, -1, 0, 0
1503701152565,-6, -8, 1, -1, -4, -5, -2, -4, 0
1503701152588,1, -7, -8, -1, -12, -2, -2, 2, 0
1503701152602,-2, 12, 10, 3, -3, 0, 0, 2, 0
1503701152625,-7, -1, 1, 6, 30, 8, -3, 1, 0
1503701152653,49, 17, -8, -5, -8, -7, -2, 2, 0
1503701152662,-13, -1, 8, -5, -8, -6, 2, 2, 0
1503701152685,21, 11, 5, 2, 10, 2, 1, 1, 0
1503701152700,6, 3, 3, -2, -4, -6, -2, -3, 0
1503701152717,-8, 0, -7, -4, 0, -2, 0, 4, 0
1503701152738,12, 3, 1, -1, -4, 5, 1, -1, 0
1503701152760,-3, -1, -1, -2, 2, -2, -1, -5, 0
1503701152775,3, 4, 3, 6, 12, 2, -1, 3, 0
1503701152798,0, 8, -1, -2, 8, 10, 2, -2, 0
1503701152821,-3, -5, -3, -3, -8, -5, -1, 4, 0
1503701152835,3, -6, 0, 2, 13, 4, -1, -2, 0
1503701152859,-3, 15, 19, 8, -2, -3, -4, -22, 0
1503701152880,7, -2, -1, 4, 18, 6, 2, 3, 0
1503701152903,4, 9, 4, -4, -33, -22, 0, 8, 0
1503701152919,-1, -4, -13, -8, -6, -3, 0, 6, 0
1503701152940,5, -10, -8, -5, -5, -6, -2, -11, 0
1503701152956,-14, -16, -10, -2, 2, 7, 1, -3, 0
1503701152978,-3, -3, -1, -5, -14, -4, -1, -5, 0
1503701153000,11, 2, 1, 2, 11, -12, -12, -6, 0
1503701153015,2, -6, 2, 1, -6, 1, -13, -2, 0
1503701153037,9, 6, -1, -7, -3, 2, -5, -2, 0
1503701153045,-8, 3, 10, 6, 11, -1, 0, -2, 0
1503701153067,-15, -9, -8, -4, -2, -9, -2, 2, 0
1503701153090,-25, 2, -1, 6, 0, -10, -4, -5, 0
1503701153104,9, 15, 2, -6, -4, 1, 2, 4, 0
1503701153128,2, 2, -4, -2, -1, -1, -4, 0, 0
1503701153150,4, 1, 1, 7, 28, 21, 6, -1, 0
1503701153164,-16, -6, -1, -4, -19, -12, -3, -8, 1
1503701153187,3, -5, -1, -6, 0, 0, -2, 12, 1
1503701153210,13, -15, -10, -6, -9, -12, -2, 7, 1
1503701153225,19, 1, -5, 0, -1, 0, -1, -1, 1
1503701153247,-2, 11, 1, -2, -2, -3, -1, 10, 1
1503701153264,-1, 4, 0, 0, 0, -6, -1, 1, 1
1503701153278,-2, 8, -2, -3, 0, 11, 3, -12, 1
1503701153300,6, -1, 0, 1, 9, -5, -3, -16, 1
1503701153315,-15, 1, 3, 1, -2, 0, -2, 0, 1
1503701153338,2, -4, -3, -4, -1, -3, -3, -7, 1
1503701153361,0, -9, -1, 0, -3, -9, -13, 2, 1
1503701153375,16, 4, -1, -2, 0, -4, -3, -16, 1
1503701153399,28, 7, -1, 0, -5, -1, 1, 3, 1
1503701153423,-12, -1, 2, -2, 28, 21, 6, 12, 1
1503701153435,-13, 0, 3, 3, 1, 4, 7, 24, 1
1503701153458,2, -8, -5, -1, -10, -9, -4, -5, 1
1503701153480,-16, -1, -1, -3, -10, -3, 2, -1, 1
1503701153495,-4, -4, -1, -4, -11, -7, -1, -7, 1
1503701153517,6, 10, 1, -2, -9, -10, -4, 4, 1
1503701153540,20, 16, 0, -3, -1, 0, 0, 9, 1
1503701153557,1, -11, 6, 8, 8, 7, 9, 10, 1
1503701153577,5, -9, -4, 0, -5, 0, -4, 0, 1
1503701153600,7, 22, 0, 3, 1, -1, 7, -9, 1
1503701153615,-14, -17, -3, -1, -1, 3, 2, -14, 1
1503701153637,-19, 2, -3, -3, -11, -9, -4, -12, 1
1503701153660,-2, 1, 0, -2, 4, -1, -2, -1, 1
1503701153675,7, -18, -4, -5, 1, -13, -10, 7, 1
1503701153698,-9, -3, -8, -2, -4, 3, -3, 0, 1
1503701153720,-3, 1, -1, 1, 6, 7, -2, -4, 1
1503701153742,5, 0, -3, 2, 6, 3, -1, -8, 1
1503701153758,9, 0, 9, 7, 6, 1, -2, 6, 1
1503701153780,-1, -1, -1, -6, -15, -5, -1, -11, 1
1503701153802,-2, 2, 5, -1, -4, -1, 0, 11, 1
1503701153818,5, 7, -2, -3, -4, -4, -2, 0, 1
1503701153840,1, 3, -8, 0, -1, -4, -7, -3, 0
1503701153862,-8, -8, -4, -2, 1, 6, 6, -1, 0
1503701153878,-15, -2, -1, -2, 0, 0, 3, 8, 0
1503701153900,-1, -8, 1, 0, 3, 0, 3, 7, 0
1503701153922,2, -12, -1, 2, 1, -2, -4, -2, 0
1503701153930,11, 8, -5, -7, -9, -4, -3, -4, 0
1503701153938,10, 0, -2, -4, 1, -4, -7, -7, 0
1503701153961,-12, -5, -2, 1, -7, -9, 0, -1, 0
1503701153982,4, -3, -5, -4, 3, 3, 4, -3, 0
1503701153998,-8, -7, -7, -2, -4, 1, 4, -4, 0
1503701154020,-1, -1, 2, 1, -1, -5, -10, -2, 0
1503701154042,-15, -4, -6, -4, -2, 1, 1, 4, 0
1503701154059,-16, 40, 20, 4, 4, 4, -1, 2, 0
1503701154080,13, -4, -3, 1, 8, 3, -2, -11, 0
1503701154102,-1, -4, -5, -2, -6, -2, 1, 13, 0
1503701154117,-18, -6, 10, 4, 3, 0, -4, -2, 0
1503701154147,10, -2, 0, -1, -5, -5, -2, -3, 0
1503701154163,25, -9, -6, -2, 7, 1, -4, -9, 0
1503701154177,-5, -4, -5, -8, 5, 5, 2, -3, 0
1503701154202,0, 4, 1, -2, -9, -4, -2, 1, 0
1503701154222,-4, 0, 0, 8, -1, 1, 2, 2, 0
1503701154237,18, 10, 11, -4, -5, -1, 0, -5, 0
1503701154261,-2, -10, -8, -1, 8, 0, -1, 0, 0
1503701154282,-3, -3, -5, 8, -9, 7, -1, -6, 0
1503701154297,0, -1, -2, -13, -8, -2, 0, -2, 0
1503701154320,4, 16, 16, 1, 0, -4, -3, -10, 0
1503701154342,-4, -6, 3, 2, 12, -3, 2, -1, 0
1503701154357,-5, 0, 8, 5, -1, -3, 0, 7, 0
1503701154380,-4, -8, -11, 0, 8, 0, -1, -3, 0
1503701154402,-16, -19, -5, 2, 4, 1, 0, -5, 0
1503701154417,-8, -7, -17, -19, -9, -5, -3, -5, 0
1503701154440,12, 6, -10, -7, -11, -4, 0, 1, 0
1503701154462,-3, -6, -3, -1, -8, -1, -4, -3, 0
1503701154470,9, 11, -5, -4, -11, -4, 1, 5, 0
1503701154492,6, -2, -5, -4, 1, 0, -2, -4, 0
1503701154507,1, -3, -2, 7, 4, 2, 1, -1, 0
1503701154531,-1, 0, -4, -5, -2, -4, -2, -11, 0
1503701154552,21, 12, 7, 2, 5, 3, -1, -1, 0
1503701154567,-8, 8, 6, 7, 11, 8, 3, 6, 0
1503701154589,3, -5, -4, -1, 3, -3, -1, 10, 0
1503701154612,-1, -2, -4, 0, -2, 0, -1, -5, 0
1503701154634,4, 9, -8, -5, -6, -2, -1, -3, 0
1503701154650,15, 12, -1, -9, -9, -2, 0, 10, 0
1503701154664,9, -2, 6, 5, 6, -3, 0, -6, 0
1503701154680,8, 4, 1, -3, -10, -5, 0, 8, 0
1503701154702,-2, -2, -12, -15, 1, 2, -2, -5, 0
1503701154725,-7, -20, -1, -1, -2, -2, -3, -2, 0
1503701154740,3, 2, 4, 1, 1, -2, -2, 1, 0
1503701154763,1, -4, -12, -3, -1, -3, 1, 7, 0
1503701154784,14, 13, 2, 3, 2, 1, 1, 0, 0
1503701154800,-8, -14, -2, 1, -15, -5, 0, 0, 0
1503701154822,18, 13, -10, -2, 3, 0, 0, -3, 0
1503701154844,-1, -1, -9, -4, 1, -1, -1, -5, 0
1503701154860,1, 6, 6, 1, 1, 3, 0, 3, 0
1503701154882,-8, 13, 12, 8, 4, 1, -2, -6, 0
1503701154904,-7, -11, -7, -4, -2, -1, 1, 2, 0
1503701154920,3, 3, -2, -3, 4, -1, -1, 7, 0
1503701154942,2, 3, 3, -1, -5, -2, -2, -8, 0
1503701154965,-10, -3, -2, -2, 5, -2, -1, -2, 0
1503701154980,11, 11, -2, -5, -10, -2, -1, -1, 0
1503701155004,-2, 10, 14, 32, 57, 9, -1, -4, 0
1503701155024,-2, -7, -3, -8, -7, -1, 0, 1, 0
1503701155041,6, 8, -2, -8, -13, -3, -3, -12, 0
1503701155062,-10, 3, 7, 7, 10, 0, -2, -2, 0
1503701155084,15, 2, -3, -8, -24, -1, 0, 2, 0
1503701155102,-7, 2, 1, -7, -17, -3, -1, 2, 0
1503701155122,-1, -8, -1, 0, 3, 0, -1, -1, 0
1503701155144,0, -4, -8, -3, -11, -4, -1, 2, 0
1503701155160,5, 1, -7, -2, -4, -1, -2, -3, 0
1503701155182,-2, 1, -1, -2, 2, 0, 0, 4, 0
1503701155204,-7, -3, 10, 2, 1, 2, -1, 0, 0
1503701155220,-10, -9, -6, -1, 1, -1, -3, -14, 0
1503701155242,-8, -7, -6, -1, 0, 0, 0, -4, 0
1503701155265,-5, 0, 1, 0, -2, -1, 0, 4, 0
1503701155280,-2, -9, -1, 0, -4, 0, 2, 6, 0
1503701155302,-3, 0, -4, -7, -5, 0, 0, -12, 0
1503701155324,8, 4, 2, 3, 3, 0, -1, 8, 0
1503701155342,-4, -10, -2, -3, 0, -1, 0, -2, 0
1503701155362,3, -4, 0, -2, 1, -1, 0, 0, 0
1503701155384,-9, 0, -5, 1, 7, -3, -3, -1, 0
1503701155402,5, -12, 2, 3, 1, 2, -2, 4, 0
1503701155422,1, 7, 6, 0, -2, 0, 0, -4, 0
1503701155444,6, -9, -8, -1, 8, 1, -3, 7, 0
1503701155460,16, -5, -2, -6, -3, -2, 0, 2, 0
1503701155475,5, -2, -10, -3, 2, 3, 1, 10, 0
1503701155489,-1, -19, -5, -3, 2, -1, 0, 9, 0
1503701155512,7, -4, -1, -4, -8, -1, 0, 6, 0
1503701155536,7, 13, 8, -2, -1, -1, 0, 0, 0
1503701155556,1, 6, -5, 1, 3, -3, 1, -1, 0
1503701155572,2, 2, -2, 0, -3, -3, -2, 1, 0
1503701155594,-1, -6, 1, 0, 4, 3, -1, 4, 0
1503701155616,-12, 1, 3, -3, -2, -1, -2, 3, 0
1503701155632,-5, 3, 21, 9, 4, 0, 0, -4, 0
1503701155654,-4, 4, -1, -3, 0, -3, -2, -1, 0
1503701155676,-23, -16, -5, 1, -2, -1, 0, -18, 0
1503701155692,12, -6, -9, -4, -7, -1, 1, 1, 0
1503701155714,-13, -36, -7, 2, 3, -1, -4, -6, 0
1503701155738,-2, 5, -12, -10, 0, -2, -1, 8, 0
1503701155752,7, -2, -9, -3, -1, 0, -1, 4, 0
1503701155774,0, 9, 3, 2, 8, 0, -1, 2, 0
1503701155796,-2, -3, 1, 0, -2, -1, -1, 3, 0
1503701155813,6, 12, 15, 7, -3, 0, -1, -9, 0
1503701155834,0, 0, -12, -6, -4, 0, 0, 4, 0
1503701155856,7, 6, -1, -3, -1, -2, -1, 7, 0
1503701155872,7, 13, -2, 1, -10, -7, 0, 2, 0
1503701155894,19, 0, 3, 0, 5, 2, -3, -19, 0
1503701155916,2, 3, -1, -6, 10, 3, 0, 9, 0
1503701155932,5, -4, -1, -1, -4, 0, 4, -17, 0
1503701155954,0, 2, 5, 0, -2, -1, -1, 0, 0
1503701155977,0, -10, -3, 1, 6, 1, -3, -9, 0
1503701155992,2, 6, -6, -7, -5, -4, -2, 3, 0
1503701156014,-8, 5, 4, 0, -10, 0, -1, 6, 0
1503701156036,-22, -19, -3, 2, 8, 2, -1, 3, 0
1503701156052,3, 11, 4, 0, -3, -2, -1, -2, 0
1503701156078,0, 11, 9, 4, -5, -4, -1, 0, 0
1503701156097,-7, -15, -6, 2, -4, -6, 1, 14, 0
1503701156112,-2, -7, -4, -3, -15, 0, 0, -4, 0
1503701156134,-3, 3, 12, 2, 12, 3, 0, -11, 0
1503701156156,4, -6, -9, -1, -4, -1, -1, 1, 0
1503701156174,0, 9, -7, -7, -9, 2, 2, 9, 0
1503701156194,10, 10, 4, 2, 1, 0, -1, -4, 0
1503701156216,8, 1, -7, 0, 2, -2, -2, -7, 0
1503701156232,1, 5, -4, 0, 4, 3, 3, -23, 0
1503701156262,31, 7, 0, 1, -2, -1, 1, -14, 0
1503701156284,-6, 3, 1, -1, 4, 0, 0, 3, 0
1503701156309,-28, -15, -3, -1, -2, -6, -7, 1, 0
1503701156314,2, 18, -1, 0, 1, -7, -2, 11, 0
1503701156336,-1, -3, -3, -4, -7, 0, -6, -6, 0
1503701156352,-5, -7, 0, 1, 3, -4, -4, 5, 0
1503701156376,14, -1, -1, 1, 0, -3, -4, 2, 0
1503701156396,-6, -15, -1, -1, 0, -2, 0, 5, 0
1503701156412,-14, 9, -2, -3, -8, -3, 1, 7, 0
1503701156434,11, 0, -1, -1, 1, 0, -6, -8, 0
1503701156456,1, -13, 6, 2, 5, 3, 3, 3, 0
1503701156472,7, 13, -4, -2, -3, -5, -5, -6, 0
1503701156494,-18, 19, 12, 1, -1, 0, 0, -1, 0
1503701156516,4, -5, -9, -2, 1, 0, 3, 0, 0
1503701156539,-10, -10, -3, -2, 7, -3, -15, 2, 0
1503701156554,-8, -6, 4, 1, 12, 12, 5, -6, 1
1503701156577,-2, -8, -8, -8, -8, -2, 2, 10, 1
1503701156586,-8, 1, 1, 5, 30, 6, 2, 6, 1
1503701156607,8, -6, -2, -3, -7, -12, -8, -8, 1
1503701156629,-26, -8, 3, -2, -6, 6, 6, 7, 1
1503701156645,4, 12, -6, -2, -10, -2, -1, 11, 1
1503701156667,4, -11, -7, -1, -3, -4, -3, -10, 1
1503701156689,-14, -18, -8, -4, -4, -3, -1, 0, 1
1503701156704,6, -1, -1, -2, 0, 2, -1, 2, 1
1503701156727,-15, -6, 6, 3, 0, -2, -2, -5, 1
1503701156750,7, 3, 6, 6, 25, 17, 0, 4, 1
1503701156764,7, -6, -2, -4, -12, -6, -2, -7, 1
1503701156787,-7, 5, -4, -2, -5, -2, 6, 11, 1
1503701156810,12, 10, 0, -2, -7, -8, -1, 13, 1
1503701156824,17, 5, -5, -2, 0, 8, -1, -4, 1
1503701156848,2, 2, 2, -3, -7, -4, -4, -16, 1
1503701156869,7, -10, -8, -2, -9, -1, 4, -4, 1
1503701156884,23, 4, 5, -2, -2, -4, -5, 2, 1
1503701156907,-20, -14, 1, 2, 2, -2, -2, 2, 1
1503701156929,-15, -1, 2, -2, -1, -26, -11, -20, 1
1503701156946,0, -3, 0, 7, -6, 3, 3, -1, 1
1503701156967,-4, -2, -5, -1, 9, 1, -3, 4, 1
1503701156989,1, -4, -3, -2, 5, 1, -4, -6, 1
1503701157004,-9, 18, 0, -5, -7, 1, 3, 19, 1
1503701157028,-6, -9, -3, 7, 2, 3, -1, -9, 1
1503701157050,4, 12, 3, 0, -3, 3, 2, 5, 1
1503701157064,4, 1, 9, 6, 11, 1, 3, 5, 1
1503701157090,-22, -17, -5, -6, -3, -4, 3, -3, 1
1503701157109,11, -8, 4, -2, -1, -1, -2, -9, 1
1503701157124,1, 3, 1, -6, -17, 3, -9, -22, 1
1503701157149,0, 2, 7, 16, 43, 12, 4, -3, 1
1503701157169,3, 11, -5, -6, -8, 0, 2, -4, 1
1503701157185,7, 15, 4, 1, -1, -3, 1, 8, 1
1503701157207,-19, -11, -7, 7, 17, 6, 8, 6, 1
1503701157229,-14, -5, -4, -7, -14, -11, -2, 4, 1
1503701157244,-24, -15, -6, -12, -15, -2, 1, -9, 1
1503701157267,3, 17, -8, -8, -8, -8, -5, 7, 1
1503701157290,-5, -20, -6, -5, -5, -2, 0, 18, 1
1503701157304,3, -12, -2, -2, -4, -1, -9, -7, 1
1503701157327,-5, 2, -1, 9, 10, 2, 4, 11, 1
1503701157350,11, 6, 5, -3, -1, 1, 1, 2, 1
1503701157364,0, 3, 8, 2, 3, -1, 0, 4, 1
1503701157388,15, 4, 2, -9, -13, 8, 1, -30, 0
1503701157410,1, 7, 1, 1, -3, -5, -3, 4, 0
1503701157432,-2, 8, -2, -2, -6, -4, 2, 10, 0
1503701157447,-3, -10, 6, 7, -2, -1, -11, -35, 0
1503701157469,1, -6, -12, -7, -10, -7, -5, -25, 0
1503701157492,7, 4, 1, 1, 5, -2, 0, 15, 0
1503701157507,2, -6, -5, 0, 3, 0, 2, 14, 0
1503701157529,6, 5, 2, 1, -5, -1, -2, 1, 0
1503701157554,-4, 4, -2, -1, -2, -2, 1, -1, 0
1503701157567,1, 3, -2, 0, -5, -7, 2, 7, 0
1503701157590,7, -5, 1, 1, 10, -1, 1, 1, 0
1503701157612,1, 1, -4, -5, -4, -2, -2, 4, 0
1503701157627,-3, -11, -7, 0, 0, 2, 0, -4, 0
1503701157652,-4, -14, 7, 5, 6, 0, -3, -4, 0
1503701157672,1, 0, 7, -3, -5, 1, -1, 3, 0
1503701157688,2, 5, -1, 0, 7, 8, 2, 7, 0
1503701157710,-3, -1, -10, -6, -16, -5, -2, -5, 0
1503701157732,-6, -3, -10, -3, 5, -5, -2, -2, 0
1503701157747,2, 8, 12, 14, 3, 2, -2, 0, 0
1503701157769,-4, 1, 3, -4, -1, 2, 1, 3, 0
1503701157792,-8, -13, -12, -5, -9, -4, 1, 4, 0
1503701157807,13, 17, 4, 11, 0, 7, -5, 3, 0
1503701157829,-5, -2, -5, -12, -22, -4, -6, -1, 0
1503701157853,-9, 0, 1, 0, 3, -6, 1, 6, 0
1503701157867,4, -7, -3, 9, 33, -5, 2, -8, 0
1503701157890,0, 0, -1, -2, -9, 1, 2, 8, 0
1503701157912,-5, -13, -6, -9, 1, -4, -2, -12, 0
1503701157927,-9, 0, -4, -7, -5, 4, 0, -2, 0
1503701157949,6, 14, 3, 0, 4, 1, 0, 10, 0
1503701157972,-2, 2, -1, -4, -3, 2, 0, -8, 0
1503701158002,10, 5, 5, -4, -6, -3, -1, -8, 0
1503701158024,1, -4, -5, -10, -10, -2, 0, 2, 0
1503701158040,-3, -4, -6, 10, 6, -1, -2, 6, 0
1503701158063,-2, 2, 11, 3, 7, 1, -1, -8, 0
1503701158089,-14, -19, -1, -1, 13, 1, -2, 4, 0
1503701158094,0, 5, 8, -2, 31, 7, -2, -7, 0
1503701158107,8, -3, -3, 4, -1, -2, 0, -13, 0
1503701158129,-7, 1, -3, 1, -10, -2, 1, 2, 0
1503701158156,0, 7, 2, -2, 7, -1, -2, 5, 0
1503701158160,2, -3, -12, 1, 0, -3, -4, -6, 0
1503701158182,16, -7, -7, -6, -14, -3, -2, -22, 0
1503701158205,8, 23, 12, 7, 3, 3, 2, -3, 0
1503701158222,-6, -10, 0, -5, -5, -3, 2, 20, 0
1503701158242,-1, -10, -6, -6, -8, -3, -3, -13, 0
1503701158265,-4, 5, 1, -3, -1, -3, -2, -1, 0
1503701158280,-12, -2, -8, -6, -2, 2, 1, 10, 0
1503701158302,4, -4, -5, -2, -2, -1, -3, -3, 0
1503701158326,-2, -1, -3, 0, 2, 1, 1, -3, 0
1503701158340,3, -11, -3, 0, -1, -2, -5, -26, 0
1503701158363,-5, 12, 4, 1, 0, 1, 0, 10, 0
1503701158385,-3, 0, 2, 0, -3, 0, 0, 4, 0
1503701158393,-10, 2, -4, -2, 0, -1, -1, 1, 0
1503701158414,-3, 6, -7, -3, -4, -4, -2, -6, 0
1503701158430,0, -7, -4, -3, -6, -3, -5, -13, 0
1503701158452,0, -4, -2, -3, 1, 0, -1, -4, 0
1503701158474,-5, 7, 6, 4, 3, 1, 3, 10, 0
1503701158491,4, 4, 1, -1, -1, 0, 0, 1, 0
1503701158512,2, -4, 2, 0, 1, 0, 1, -4, 0
1503701158534,-4, -8, -7, 1, -17, -11, -3, -1, 0
1503701158549,5, -1, -1, -4, -2, 3, 2, 1, 0
1503701158572,-11, 3, 5, 6, 15, 0, -3, -3, 0
1503701158594,-5, 1, 0, 0, 13, 2, 2, 5, 0
1503701158609,-9, -7, -1, -6, -4, -5, -1, -3, 0
1503701158633,12, 3, -2, 1, 4, 2, -4, 0, 0
1503701158654,21, 6, -6, -8, -7, -3, 0, -4, 0
1503701158669,-9, 6, 1, 2, 5, 0, -4, -19, 1
1503701158692,-3, -2, -3, -2, -4, -3, 2, 28, 1
1503701158714,17, 12, 25, 5, -2, 1, -3, 1, 1
1503701158729,-2, -4, -10, -2, -5, 2, -4, 4, 1
1503701158752,-10, 1, 6, 12, 16, 1, 3, -8, 1
1503701158774,-1, -4, -3, -5, -8, -3, -6, -15, 1
1503701158789,-6, -3, -2, -2, 3, 1, -1, 6, 1
1503701158812,-5, -3, -5, -6, -5, 0, 1, -8, 1
1503701158834,5, -3, -3, -1, -3, -1, -1, 6, 1
1503701158849,-1, -7, 1, 0, -3, 0, -1, -5, 1
1503701158872,-2, 7, 14, 4, 0, 1, 0, 1, 1
1503701158895,-2, -14, -12, -5, -3, -2, -4, -5, 1
1503701158915,3, -2, -7, -4, -3, -1, 0, 4, 1
1503701158932,-9, -6, -4, -3, -1, 0, 0, -3, 1
1503701158955,-2, 2, 0, -2, -1, 1, 3, 7, 1
1503701158977,9, 2, -4, -2, -1, -1, -1, 0, 1
1503701158993,-4, -9, -8, 0, -1, -2, -2, -2, 1
1503701159014,-4, 1, -6, -2, -1, 0, 0, 6, 1
1503701159022,-1, -6, -3, -3, -3, -2, -1, 6, 1
1503701159045,-2, -2, -1, 1, 2, 1, -1, -3, 1
1503701159062,-2, -1, 1, 0, 0, -3, -1, 0, 1
1503701159083,3, -3, -3, -1, 0, -1, -1, 3, 1
1503701159105,-7, -1, -3, -4, -3, -3, -2, -2, 1
1503701159120,-5, -1, -6, -1, 1, -1, 0, 1, 1
1503701159143,18, 1, 2, 1, 10, 3, 2, 17, 1
1503701159165,-9, -5, -3, 1, -7, -3, 1, 3, 1
1503701159180,11, 9, 7, 5, 2, 0, -3, -36, 1
1503701159202,5, -9, -5, -4, -1, 1, -1, 0, 1
1503701159225,-12, -3, -4, -3, -6, -5, -5, -3, 1
1503701159240,11, -16, -13, -5, -1, -1, 6, 39, 1
1503701159270,-9, -3, 8, 3, -3, -1, -3, 4, 1
1503701159285,-3, -4, -1, 4, 4, 2, -9, -36, 1
1503701159307,2, 18, 6, 1, -1, -2, -3, -17, 1
1503701159322,3, 14, 6, -1, 0, -1, -1, 2, 1
1503701159345,1, 0, -1, 3, 4, 1, 0, 9, 1
1503701159367,-1, -6, 1, -7, -6, -1, 2, 9, 1
1503701159382,-9, -1, -2, 0, 1, 1, 3, 15, 1
1503701159405,3, -1, -5, -4, -2, -1, -2, -4, 1
1503701159427,-4, -4, -4, -3, -5, -2, -1, 4, 1
1503701159443,-3, -1, 0, 2, 12, 2, 1, 3, 1
1503701159466,-6, -4, -5, -2, -4, -1, -3, -7, 1
1503701159487,4, 6, 6, 5, 2, -2, -1, -7, 1
1503701159506,-3, -7, -1, 0, 10, 3, 2, 0, 1
1503701159525,-4, 12, 10, 2, -15, -6, -2, 0, 1
1503701159547,-3, -8, -5, -3, -11, -1, 6, 11, 1
1503701159564,-1, 12, 8, -2, -2, -1, -2, -10, 1
1503701159586,-11, -6, -6, -3, 1, 3, 2, -9, 1
1503701159608,2, -5, -4, -2, -2, 0, 3, 5, 1
1503701159622,-5, -2, 1, 2, 4, 2, 1, 3, 1
1503701159645,10, -6, -5, -2, -6, -3, -6, 1, 1
1503701159667,-2, 7, -2, -1, 2, -2, -4, -3, 1
1503701159682,-2, -9, -4, -2, 1, -1, -2, -16, 1
1503701159699,-1, 1, -2, -2, -3, 0, -1, -5, 1
1503701159712,-2, -7, -6, -2, -4, -1, -4, -1, 1
1503701159734,-3, -1, -1, -1, 14, 5, 2, 3, 1
1503701159757,-6, 2, 1, 1, -6, -3, -1, 0, 1
1503701159772,1, -3, -1, -1, -3, -4, -3, -2, 1
1503701159787,3, -2, -7, 0, -3, 0, -2, -2, 1
1503701159802,1, 1, -3, -1, -2, 0, 0, 7, 0
1503701159825,-11, -2, 14, -2, 0, 0, 2, -3, 0
1503701159847,3, -3, -10, 3, 0, 0, -2, -8, 0
1503701159862,0, -3, -8, -7, -14, -7, -2, -1, 0
1503701159885,5, 1, -8, -4, -4, 0, -1, -7, 0
1503701159911,-4, -7, 9, 5, 9, 2, -2, 8, 0
1503701159923,5, -1, -4, 0, 12, 3, -3, -5, 0
1503701159947,2, -2, -4, -6, -7, -4, -1, 1, 0
1503701159968,-4, 4, 4, 9, 3, 1, 0, -3, 0
1503701159982,2, 11, 4, 2, 0, 0, 4, 7, 0
1503701160009,-9, 1, -3, -6, 5, 3, 2, 7, 0
1503701160027,-6, 1, 1, -3, -22, -6, -5, -11, 0
1503701160035,-6, -3, -7, -3, -4, -1, 3, 13, 0
1503701160048,1, -13, 0, -3, -4, -3, 2, 1, 0
1503701160065,-1, 0, -4, 5, 5, 1, -1, -2, 0
1503701160088,1, -2, 0, 1, -6, -3, -4, -6, 0
1503701160102,-2, 3, -3, -5, -17, -7, -1, 7, 0
1503701160125,3, 6, 0, -3, -2, -4, -6, -12, 0
1503701160147,-10, 6, 7, 1, 1, 2, 0, 8, 0
1503701160162,4, 5, -6, -6, -4, -1, -1, -2, 0
1503701160185,3, -2, -5, 1, 4, 0, -1, 7, 0
1503701160207,-2, 2, -2, -4, 2, -1, 0, -9, 0
1503701160292,6, -4, -8, -2, -3, -3, -3, -7, 0
1503701160305,6, -4, -8, -10, -6, -3, -3, -10, 0
1503701160319,1, 3, 5, 0, -3, -1, 1, 6, 0
1503701160337,-2, 1, -1, 6, -6, -2, -1, 2, 0
1503701160349,0, -8, -11, -2, -4, -2, 0, 8, 0
1503701160365,8, -6, 3, -1, -1, 0, 0, -4, 0
1503701160391,-1, 13, -2, -11, 8, 1, -2, 0, 0
1503701160411,-11, 0, 3, 2, -4, -1, 3, 16, 0
1503701160429,0, -8, -10, 0, -2, -3, -2, -5, 0
1503701160448,2, 2, -4, -2, 12, 0, -3, -11, 0
1503701160476,0, 8, 6, 4, 2, 2, -1, 3, 0
1503701160485,-4, -15, -7, -5, -8, 0, 0, -6, 0
1503701160514,-6, -4, -6, 4, -4, 0, 1, 11, 0
1503701160529,-1, -2, -17, -8, -4, 1, 0, -3, 0
1503701160552,6, -9, -8, -6, -6, -3, -1, -10, 0
1503701160567,-2, 1, 2, 3, 0, -1, -2, -1, 0
1503701160589,3, -10, -3, -3, -2, -2, -3, -8, 0
1503701160605,-7, -1, 1, 1, 1, 0, 1, 10, 0
1503701160627,-8, 11, 16, 9, 4, 1, 1, 23, 0
1503701160649,2, -4, 2, 5, -2, 0, -1, 4, 0
1503701160665,16, -11, 2, -4, -4, -1, -4, -28, 0
1503701160687,-1, 4, -3, -3, -1, -3, -3, -2, 0
1503701160709,-9, 2, 7, 9, 5, 1, -2, 0, 0
1503701160725,9, 5, -4, -3, -2, -1, 1, 4, 0
1503701160747,1, 0, -5, -6, -1, -1, -5, -14, 0
1503701160769,8, -8, -2, -3, -4, -3, 0, -4, 0
1503701160785,-1, -1, 0, -4, -2, -2, 0, 11, 0
1503701160807,-7, -3, -6, 0, -1, -2, -2, -7, 0
1503701160829,3, -9, -9, -6, -5, -2, -2, -6, 0
1503701160845,-1, 4, 2, -1, 0, -1, 0, 3, 0
1503701160867,3, 3, 1, 0, 13, 0, 0, 0, 0
1503701160889,-1, -9, -8, -3, 0, 1, -3, 2, 0
1503701160921,2, -9, -7, -6, -6, -3, 0, 0, 0
1503701160934,6, 22, 6, -1, 0, -1, 2, -4, 0
1503701160956,7, 0, -4, 0, 0, 0, -2, -2, 0
1503701160979,3, 2, 1, 2, 2, -1, -1, -2, 0
1503701160994,4, 1, -2, 0, -1, -2, 0, -2, 0
1503701161017,-3, -3, 4, 0, -2, -1, 0, -3, 0
1503701161038,1, -8, -10, -3, -2, -2, -3, 1, 0
1503701161054,-2, 7, 3, 0, -1, -1, -2, -4, 0
1503701161077,3, 0, 3, 2, -4, -3, -3, 0, 0
1503701161098,-1, -2, -6, -7, 0, -1, 0, -4, 0
1503701161114,-6, -2, -2, -8, -7, -2, 1, 2, 0
1503701161137,2, 2, 4, 19, 45, 7, 0, 1, 0
1503701161158,-5, -7, -6, -11, -14, -3, 0, -7, 0
1503701161181,-5, 0, 1, 1, -1, 0, 0, 2, 0
1503701161197,-10, 0, -3, -4, -5, 0, -1, -1, 0
1503701161218,8, 0, 1, 4, 4, 1, 1, 1, 0
1503701161243,3, 0, -3, -2, -7, -3, -2, -1, 0
1503701161256,4, -12, 2, 3, 1, 1, 0, -1, 0
1503701161279,4, -1, -3, -1, -5, -2, -3, 1, 0
1503701161301,-1, 19, 4, 0, 1, 0, -2, -2, 0
1503701161318,1, 1, 4, 0, -7, 2, -4, -6, 0
1503701161338,-6, 6, 14, 3, -2, 2, 0, 15, 0
1503701161361,-4, -2, -10, -6, -12, -3, -1, -17, 0
1503701161377,-1, -3, -6, -2, -6, -7, -2, 0, 0
1503701161398,4, -3, -1, 4, 7, 4, 0, -4, 0
1503701161421,-2, -3, -6, 1, 6, -3, 2, 6, 0
1503701161437,1, -21, 4, -1, -14, -11, -2, -1, 0
1503701161458,5, 11, 1, -7, -11, -1, 0, -5, 0
1503701161481,-4, 6, 9, 0, 5, 1, 0, 0, 0
1503701161497,-2, -3, -6, -1, 20, -3, -3, 1, 0
1503701161520,2, 1, -12, -8, 2, 5, 1, 2, 0
1503701161541,-2, -4, -14, -5, 3, -2, -7, -6, 0
1503701161556,-1, -7, -3, 2, -3, 0, 0, -1, 0
1503701161578,1, -1, -1, 4, -1, -1, -4, -11, 0
1503701161587,-15, -8, 2, -5, -21, -1, 0, -5, 0
1503701161609,1, -2, -9, -5, 0, -6, -3, 0, 0
1503701161632,-2, -1, -1, 6, 38, 7, -3, -5, 0
1503701161647,1, 4, 6, 7, 9, -2, -2, 9, 0
1503701161670,4, 1, -1, -3, -2, 2, 1, 2, 0
1503701161692,8, 4, 0, -3, -7, -7, -6, 3, 0
1503701161707,-4, 7, 4, 3, -7, -2, -4, -3, 0
1503701161729,-10, -5, 3, -2, -4, 2, 2, -14, 0
1503701161752,-1, 3, 1, 2, 13, 3, 6, 16, 0
1503701161766,5, 0, 0, 14, 4, -4, -4, -5, 0
1503701161790,-7, -5, -4, -6, -4, -5, -3, 6, 0
1503701161797,-11, -5, 0, 2, 3, 6, -8, -18, 0
1503701161814,4, 1, -4, -7, -5, 0, -1, -15, 0
1503701161828,-1, -3, -2, 0, -5, -4, -1, 1, 0
1503701161850,-1, -2, -3, -3, 0, -1, -1, 3, 0
1503701161872,1, 0, -3, -6, -6, 0, 2, -7, 0
1503701161887,1, 1, 0, -1, 0, 9, 4, 5, 0
1503701161910,-3, -3, -6, -5, -2, 1, 2, 4, 0
1503701161932,-1, -11, -4, 1, 5, 1, -3, -16, 0
1503701161948,-6, -5, -1, -3, -8, -5, 0, 0, 0
1503701161969,-15, -7, 1, -3, -12, -8, -3, 9, 0
1503701161992,-1, 12, 10, 7, 7, -2, 2, -14, 0
1503701162007,7, -4, 2, 1, 12, 7, -2, 6, 0
1503701162029,-5, -5, -6, -2, 4, -5, -6, -17, 0
1503701162052,2, 4, 3, 0, -6, -7, -2, 7, 0
1503701162067,-1, 6, 2, -1, -1, -1, -1, -3, 0
1503701162090,3, -7, -4, -1, 0, -1, -4, 1, 0
1503701162112,5, 4, -3, -2, -1, 1, -2, -14, 0
1503701162134,-6, -4, -2, -1, 11, 3, 6, 4, 0
1503701162150,2, 0, -3, -4, -12, -16, -7, -1, 0
1503701162172,4, -7, -7, -10, -8, -3, 0, 0, 0
1503701162194,4, 3, -2, -2, 0, 0, -7, -24, 0
1503701162209,-22, -12, -7, 1, 2, -1, -3, -3, 0
1503701162232,13, 0, -8, -2, 0, 7, 8, 18, 0
1503701162255,-2, 4, 5, 5, 9, 6, 4, 8, 0
1503701162270,-6, 4, -1, 1, -1, -1, -4, 0, 0
1503701162285,23, 4, -1, -4, -1, 2, 0, -3, 0
1503701162298,0, -10, -6, -1, -8, -3, 4, -7, 0
1503701162315,-5, 7, 4, 2, 27, 31, 13, 15, 0
1503701162330,-6, 0, -2, -5, 7, 7, 13, -5, 0
1503701162356,2, 7, 3, 9, -1, -1, 9, 3, 0
1503701162374,11, -4, -5, -8, -21, -11, -17, -43, 0
1503701162390,-2, -1, -6, 0, -21, -14, -11, -7, 0
1503701162412,5, -3, 0, 11, 7, -2, -1, 23, 0
1503701162434,-3, 3, 9, 3, 5, 5, -4, 11, 0
1503701162451,-3, 1, 1, -6, -10, -5, 9, -1, 0
1503701162472,-2, 1, 3, -1, 6, -5, -1, 0, 0
1503701162494,0, -3, -3, -6, 0, -5, -9, -2, 0
1503701162509,-9, -1, 2, 11, 52, -2, 19, 29, 0
1503701162532,5, 4, -3, -5, -10, 3, -3, -2, 0
1503701162555,-2, 5, -2, 3, -6, 4, -7, 0, 0
1503701162569,2, 1, 0, 0, 17, -27, -34, -36, 0
1503701162592,11, 2, 1, 5, -6, 3, 3, 3, 0
1503701162614,0, -2, 2, -8, -32, -2, -1, -6, 0
1503701162629,10, -1, -7, -7, -11, -3, -4, -3, 0
1503701162653,-5, -7, -5, -9, -29, -28, -3, 0, 0
1503701162674,-6, -1, 2, 15, 11, 6, -2, 8, 0
1503701162689,-7, -8, -4, 0, 26, 3, -1, 1, 0
1503701162711,-31, -8, -5, -2, -11, -8, 7, -7, 0
1503701162728,2, -10, -8, 1, 9, -2, -8, -20, 0
1503701162742,8, 0, -5, -11, -28, -31, 14, 4, 0
1503701162765,-12, -3, -3, -6, -6, 8, 32, -1, 0
1503701162788,8, -6, -1, 6, 11, 8, -14, -19, 0
1503701162802,-17, -1, -2, -1, 25, 11, -15, 8, 0
1503701162825,2, 6, -2, -3, -11, -7, -9, 7, 0
1503701162847,-1, -4, -1, -5, -7, 11, 1, -17, 0
1503701162863,4, 0, -1, 2, 11, -9, -22, 1, 0
1503701162885,-6, -4, 7, 8, 1, 2, 4, 12, 0
1503701162907,-5, -5, -4, 0, -11, -4, -3, -3, 0
1503701162922,1, 4, 8, 1, 1, 1, 2, -1, 0
1503701162945,-1, -5, -3, 0, -4, 0, -6, -13, 0
1503701162967,3, 3, -5, -4, -7, -1, 10, 3, 0
1503701162982,-4, -3, -4, 1, 16, 6, 4, -8, 0
1503701163005,-1, 5, 6, 1, 0, 4, 20, -2, 0
1503701163027,2, 2, 2, 1, 0, 7, 1, 6, 0
1503701163042,-4, 5, 7, 4, -1, -8, -14, 0, 0
1503701163065,4, 1, 0, 2, 30, 16, 5, -7, 0
1503701163072,1, 4, 4, 3, 8, -6, -66, 2, 0
1503701163094,6, 0, 0, 8, -2, -1, 16, -3, 0
1503701163116,4, 7, 5, 0, -1, 3, 11, 16, 0
1503701163133,2, -5, -16, -11, -7, 7, 1, -10, 0
1503701163156,9, 4, -3, 2, 0, -1, 0, 5, 0
1503701163176,-6, -7, 2, 2, 7, 7, 14, -12, 0
1503701163192,-4, 1, 0, -2, -20, -7, -4, -2, 0
1503701163214,4, 13, 4, -1, -2, -3, -33, -16, 0
1503701163236,-6, 0, 3, 16, 3, -3, 12, 5, 0
1503701163251,6, 5, 1, 0, 58, -2, 6, 5, 0
1503701163274,-1, 6, 12, 4, -12, 8, 10, 17, 0
1503701163296,6, -12, -6, -6, -25, -11, -7, -21, 0
1503701163311,-6, 5, 6, 6, 32, 4, -1, 7, 1
1503701163334,4, 1, -3, -17, -1, -16, 12, 5, 1
1503701163357,-8, -3, -6, -5, -20, 2, 2, 9, 1
1503701163371,0, 4, 12, 20, 17, 2, 0, 10, 1
1503701163394,-7, 0, -15, -9, -19, 1, 7, -4, 1
1503701163416,-8, -17, -18, -10, -12, 2, 1, 2, 1
1503701163431,0, -7, -7, -17, -20, 1, -10, -8, 1
1503701163454,-9, -5, 4, 23, 12, 6, -2, -21, 1
1503701163476,13, -2, -6, -10, -36, 0, -4, 2, 1
1503701163485,-2, -3, -11, -9, -1, -4, 6, -12, 1
1503701163507,2, -7, -5, 1, -8, -17, 3, 15, 1
1503701163522,11, 2, -6, -10, -23, -15, -4, 3, 1
1503701163545,-5, 1, 4, 9, 6, 4, 5, -19, 1
1503701163568,-5, -3, 3, 2, 17, 9, 2, 3, 1
1503701163582,-12, -24, -11, -26, -34, -9, -1, -2, 1
1503701163596,-7, -1, -15, -15, -8, -4, -4, 12, 1
1503701163611,-3, 11, -3, -4, -6, -4, 1, 8, 1
1503701163635,3, -2, 0, 12, 19, -2, -31, -12, 1
1503701163657,1, -2, 2, 43, 44, 12, 13, 0, 1
1503701163672,-3, 1, 4, -17, -2, -10, -5, -8, 1
1503701163694,1, 2, 8, -8, -1, 0, 5, -9, 1
1503701163717,0, -3, -9, -24, -44, -6, 1, 9, 1
1503701163732,8, -1, 1, -12, -14, -7, 4, -26, 1
1503701163754,-3, 14, 9, 11, 27, -6, 5, 11, 1
1503701163777,-3, 1, -3, -10, 20, 2, -17, 21, 1
1503701163794,15, -13, -7, -12, -27, 1, 3, -13, 1
1503701163814,-3, 9, 4, 1, -11, 3, 5, 10, 1
1503701163837,-5, -8, 2, 6, -47, -6, 4, 4, 1
1503701163852,-7, 2, 9, 6, 7, -3, 7, -6, 1
1503701163881,0, -7, -1, -1, -2, 2, 4, -10, 1
1503701163897,-6, -10, -4, -3, 1, -1, -4, 11, 1
1503701163914,0, 2, -8, 1, 14, 1, -4, 6, 1
1503701163934,-5, -8, -7, -15, -21, 0, 2, 4, 1
1503701163956,-1, 23, 25, 7, 22, 3, 3, 11, 1
1503701163979,-15, 4, 5, 8, 12, 16, 8, 24, 1
1503701163999,3, 9, -17, -7, -3, -10, -6, -18, 1
1503701164018,-1, -15, -11, -3, 2, 10, -25, -1, 1
1503701164039,11, 3, 5, 4, -5, -2, -1, -23, 1
1503701164054,4, 0, -3, -4, -5, -24, -8, -7, 1
1503701164076,-11, -7, -3, -9, 7, 6, 33, 0, 1
1503701164099,-4, -9, -3, 1, -5, -6, 0, 3, 0
1503701164114,6, -11, 2, 1, -8, -23, -16, -24, 0
1503701164137,-2, -3, -5, -2, -1, 3, 10, -18, 0
1503701164159,2, -2, -8, -6, 15, 10, -2, 18, 0
1503701164174,-5, 4, 4, 2, -13, 3, -2, 9, 0
1503701164197,3, -3, 0, -4, 15, 20, 5, 9, 0
1503701164219,0, -2, 0, 1, -19, -2, -17, -9, 0
1503701164234,-10, -3, -6, -2, -1, 3, 12, 17, 0
1503701164256,4, 12, 7, 3, -1, 6, -5, -12, 0
1503701164279,-2, 10, 4, 1, 0, -7, 1, 5, 0
1503701164294,-4, -10, -7, -1, 0, 21, 11, -19, 0
1503701164316,7, -2, -4, -1, 11, -19, -4, 2, 0
1503701164325,-2, -3, -2, -2, -4, -3, -13, -15, 0
1503701164347,-1, -8, -13, -10, -15, -6, 7, 5, 0
1503701164369,-6, -2, 0, -3, -12, -5, 4, 4, 0
1503701164392,10, 10, 0, -3, -12, -14, -8, -7, 0
1503701164414,-1, 6, 9, 10, -12, -20, -34, 12, 0
1503701164430,-12, 3, -3, -1, -6, -4, -12, 30, 0
1503701164437,-3, -8, -3, -2, -3, -8, 1, 9, 0
1503701164459,9, 7, 10, 1, -1, 3, 3, -19, 0
1503701164475,8, -7, -3, 3, 24, -23, -30, 17, 0
1503701164500,9, -4, -2, -3, -5, 13, 7, -15, 0
1503701164519,-14, -8, -10, -5, 10, 17, 7, 27, 0
1503701164534,-8, -3, -2, 0, -4, -5, 1, -3, 0
1503701164557,-3, 7, 3, 0, 1, 2, 27, -6, 0
1503701164579,20, 2, -3, -2, -8, -7, 0, 0, 0
1503701164594,0, 7, -11, -6, -8, -2, -7, -17, 0
1503701164616,-3, -14, -1, 1, -2, -2, -6, 2, 0
1503701164639,-11, -8, -2, -4, 2, 4, -2, -2, 0
1503701164654,-1, 4, 3, 2, 5, 5, -6, -8, 0
1503701164677,-16, -14, -17, -4, -9, -5, 4, 13, 0
1503701164700,-13, -16, -6, -6, -3, -18, -19, 18, 0
1503701164721,3, 14, 13, -1, -15, -5, -1, -13, 0
1503701164737,10, 1, -4, 4, 1, 3, 1, -12, 0
1503701164759,5, 5, 10, 1, -4, -1, -3, 1, 0
1503701164778,-4, 47, 33, 3, 2, 4, 4, 13, 0
1503701164797,13, 0, 0, 5, 14, 2, -3, -16, 0
1503701164819,-15, 0, -5, -5, -10, 0, 2, 14, 0
1503701164841,-3, -7, 1, 2, 6, 3, 0, -15, 0
1503701164856,-1, -1, -4, -1, -2, -3, -1, -7, 0
1503701164879,4, -15, -13, -4, -3, -4, -6, -10, 0
1503701164901,-14, -26, -6, 1, 1, -9, -4, -2, 0
1503701164916,15, 23, 4, 1, 3, 3, 2, 3, 0
1503701164939,-2, -15, 0, 0, 20, 12, 4, 7, 0
1503701164961,6, -6, -13, -3, -6, -6, -4, -20, 0
1503701164977,0, -3, -6, -9, -12, -5, 2, 14, 0
1503701164999,-4, -15, -10, -2, -4, -2, 0, -2, 0
1503701165022,-13, 7, -2, 0, 8, 2, -2, -10, 0
1503701165037,6, 0, -1, 0, -6, -2, -2, -16, 0
1503701165059,-15, 18, 11, 4, 0, 3, 4, 0, 0
1503701165081,1, -6, -1, 1, 0, 1, 0, -4, 0
1503701165096,-6, -3, 3, 0, 1, -1, 0, 13, 0
1503701165119,9, 7, 2, 1, -10, -4, -2, 0, 0
1503701165142,-6, -6, -3, -6, -7, -4, -6, -3, 0
1503701165156,2, -1, -2, 3, -1, -1, -3, -15, 0
1503701165179,-4, -8, -8, -5, -2, -1, 4, 21, 0
1503701165203,4, -13, 3, 1, 3, 0, -1, -4, 0
1503701165216,-2, 10, -7, -2, 1, 0, -3, -10, 0
1503701165231,1, -7, -2, 0, 0, 0, 0, -2, 0
1503701165247,-7, -1, -2, -2, 6, 1, 5, 8, 0
1503701165271,1, -7, -5, -2, -1, 0, -1, -10, 0
1503701165291,-7, -18, -10, -1, -5, -4, -3, -6, 0
1503701165308,-2, 4, -5, -4, -3, -2, -1, 8, 0
1503701165329,1, 9, 2, 1, -3, -2, -2, -9, 0
1503701165351,-3, -9, -8, -1, -3, 1, -2, -3, 0
1503701165367,13, 9, 10, -3, -3, -2, -2, -10, 1
1503701165390,-3, -3, -5, -1, -12, -4, -1, 6, 1
1503701165412,2, 4, 2, -1, -10, 0, -1, -1, 1
1503701165427,-5, 5, 15, 12, 1, 0, 1, 2, 1
1503701165449,-5, -11, -14, -6, 5, -1, -2, 0, 1
1503701165472,-13, -9, -5, -6, -7, -1, -1, 1, 1
1503701165487,5, 3, 0, -2, 3, -3, -3, -7, 1
1503701165510,0, 1, 4, 0, 3, 3, -1, 0, 1
1503701165531,0, 12, 0, -1, 1, -1, -1, 2, 1
1503701165547,0, -11, -6, -6, 9, 1, -1, -4, 1
1503701165569,3, 6, 1, 3, 2, 1, -1, 0, 1
1503701165591,7, 18, 9, 3, -1, -2, -1, 3, 1
1503701165607,-3, -7, -10, -6, -4, -3, -2, 3, 1
1503701165629,-4, -11, -3, 0, -2, 0, -1, -8, 1
1503701165651,-14, -11, -4, -2, 0, -2, -1, 2, 1
1503701165667,10, 10, -2, 3, 7, 0, 0, 1, 1
1503701165689,2, -8, 7, 7, -7, 3, -3, -9, 1
1503701165712,0, -9, -12, -8, 5, -6, 1, 1, 1
1503701165727,16, -18, 4, -3, -15, 2, 0, -1, 1
1503701165750,3, 11, 5, 7, 12, 1, -1, 1, 1
1503701165771,1, 10, 4, -3, -2, -2, -4, -26, 1
1503701165787,-2, 14, 6, 7, 30, 3, 0, 9, 1
1503701165811,1, 1, 4, -4, 17, 8, 3, 2, 1
1503701165831,1, 3, 5, 1, -16, -3, 0, 1, 1
1503701165854,-19, -16, -5, -8, -14, -4, -1, -3, 1
1503701165869,-7, 2, -3, -4, -13, -1, 0, 5, 1
1503701165891,-1, -8, 0, 4, 1, 5, 0, -1, 1
1503701165916,-1, -1, -3, 2, -9, -6, -2, 11, 1
1503701165929,3, -2, -9, 4, 11, -5, -4, -19, 1
1503701165952,-5, 2, -3, -5, 0, -1, 1, 5, 1
1503701165976,17, 8, 13, -3, -5, -1, -1, 6, 1
1503701165989,-25, 6, -4, 1, -4, -2, -2, 0, 1
1503701166012,8, -4, -10, -3, 0, -1, -3, -7, 1
1503701166034,0, -10, -5, -3, -10, -4, -1, 2, 1
1503701166049,5, 7, 7, 0, 8, 1, 1, -3, 1
1503701166071,-5, 2, 3, 0, -1, -1, -2, 5, 1
1503701166080,0, 0, 0, -1, 1, 0, -2, 5, 1
1503701166101,9, 3, 0, 3, -13, -7, -1, 0, 1
1503701166123,-12, -12, -5, -2, 1, -1, -1, -1, 1
1503701166139,-7, -26, -5, 1, 9, 4, -1, -9, 1
1503701166161,-6, 4, 3, 0, 5, -2, 0, 2, 1
1503701166183,-1, 3, 1, -2, -3, 2, 1, 3, 1
1503701166199,2, 10, 11, 0, -1, 4, -1, -2, 1
1503701166221,0, -15, -9, 0, 0, -4, -4, -5, 0
1503701166245,1, 7, 1, -4, -13, -8, -1, 0, 0
1503701166259,-7, 2, -7, -5, -1, -2, -6, -9, 0
1503701166281,-20, -8, 2, -3, -5, -4, 3, 23, 0
1503701166289,19, 11, -1, 3, 2, -11, -7, -4, 0
1503701166312,-3, -9, -1, 0, 3, 11, 5, 7, 0
1503701166334,-33, -3, 0, -4, -4, -3, -22, 6, 0
1503701166350,12, -2, -5, -1, -4, -1, 7, 13, 0
1503701166371,-6, -2, 5, 3, -4, 9, 8, 2, 0
1503701166394,-5, -16, -7, -5, 2, -3, -4, -14, 0
1503701166413,8, 3, -10, -4, -3, -2, -5, -19, 0
1503701166431,-3, -2, -6, -3, -4, -10, 0, -2, 0
1503701166455,15, 17, 9, 1, 0, -24, -1, 3, 0
1503701166469,2, -3, -2, 3, 4, 9, 2, -2, 0
1503701166493,0, 5, 3, -1, -3, 3, 1, -4, 0
1503701166515,3, 5, 1, -4, -2, -3, -1, 11, 0
1503701166530,3, 3, -1, -3, 2, -1, -3, 6, 0
1503701166552,-4, -2, 4, -4, -1, 4, 5, -6, 0
1503701166574,-10, 0, -2, 0, 1, 2, 2, 3, 0
1503701166590,-18, 24, 14, 3, 0, -2, 5, 23, 0
1503701166614,9, -19, -9, -3, -4, 1, -6, -39, 0
1503701166634,4, -5, -4, 0, -2, -3, -4, -6, 0
1503701166650,-3, -3, -3, -1, -2, 0, 1, -4, 0
1503701166672,1, -7, -2, 2, 3, 2, -1, 5, 0
1503701166694,-1, -12, 1, -1, 1, 2, 0, 6, 0
1503701166709,-12, -4, -2, 1, -3, 2, 4, 17, 0
1503701166724,-3, -11, -2, -5, 3, -5, 1, 3, 0
1503701166750,5, 1, -6, -8, -14, -5, -5, -4, 0
1503701166761,-6, -11, -2, -7, -10, -8, -7, -8, 0
1503701166784,-14, 2, 6, -5, 0, 1, 2, 17, 0
1503701166806,6, 7, -3, 0, 3, 1, -1, -24, 0
1503701166822,5, -1, -1, 2, 4, 1, 1, 1, 0
1503701166843,0, -2, 4, 4, 1, 1, -2, -2, 0
1503701166866,0, -2, -5, 0, -1, -1, 0, -1, 0
1503701166883,1, 8, 6, 0, -6, -2, 2, 13, 0
1503701166903,-2, 0, 1, -3, -1, 0, -1, -1, 0
1503701166926,0, -3, -3, 2, 0, 1, -4, -22, 0
1503701166950,-3, -10, -7, -3, -3, -2, -2, -1, 0
1503701166971,5, 10, 5, 4, 6, 2, -1, -6, 0
1503701166986,0, -4, 1, -2, 8, -2, -1, -4, 0
1503701167001,0, 2, -2, -2, -10, -3, 2, 3, 0
1503701167026,9, 9, 4, 0, -3, 1, 3, 7, 0
1503701167046,-13, -19, -8, -6, -4, -4, -2, -6, 0
1503701167061,-5, 16, 8, -1, -12, -3, 0, 9, 0
1503701167083,3, -5, 0, 6, 7, 1, -6, -12, 0
1503701167106,2, 0, -2, -3, 1, 0, 3, 6, 0
1503701167122,-13, 8, 6, 7, 6, 1, -1, 1, 0
1503701167143,30, 1, -7, -3, -2, -1, 0, -2, 0
1503701167166,-15, -11, -4, -3, -1, 1, 4, 23, 0
1503701167182,12, 10, -1, 5, -1, 0, 2, 24, 0
1503701167197,-26, -3, 4, 5, 7, 1, 2, 24, 0
1503701167211,-17, 2, 4, 8, 9, 2, 5, 18, 0
1503701167234,0, 1, 5, 4, 3, 2, 3, 7, 0
1503701167256,12, 12, 5, -5, -6, -1, -2, -5, 0
1503701167271,11, 4, -1, 0, -1, 1, -5, 3, 0
1503701167294,14, -5, -11, -8, -5, -4, -1, -4, 0
1503701167318,-6, 12, 13, -1, 1, -1, 3, 13, 0
1503701167331,1, -20, -5, -3, 1, -2, -2, -7, 0
1503701167354,-8, -9, -1, -1, -2, -1, -4, -44, 0
1503701167376,-7, -12, -9, 1, -2, -2, 1, 16, 0
1503701167391,2, -10, -11, -5, -4, -2, -3, -2, 0
1503701167414,11, -2, -7, -2, -2, 0, 0, -5, 0
1503701167436,-3, -4, -1, 0, -1, 1, 0, 7, 0
1503701167452,6, 10, 9, 3, -6, 1, 2, -8, 0
1503701167474,-8, -7, -5, -7, -1, -2, 0, 12, 0
1503701167496,1, -10, -4, 0, -3, -1, -2, 4, 0
1503701167511,-9, -6, -1, 1, 2, -1, -3, -19, 0
1503701167541,-1, -2, -1, -2, 0, 0, 1, -1, 0
1503701167557,-7, 4, 4, 4, -5, -1, -2, 2, 0
1503701167571,-4, -3, -2, -2, 6, -1, -2, 1, 0
1503701167594,2, 14, -2, 2, 4, 1, 1, 2, 0
1503701167616,1, 2, 0, 3, 0, -2, -2, 1, 0
1503701167632,4, 0, 2, 0, 6, 2, 1, -3, 0
1503701167655,-19, 0, -2, -6, -16, 1, -3, -3, 0
1503701167677,15, 21, 6, -4, 9, -1, 1, -1, 0
1503701167699,29, 14, 3, -6, -9, -4, -2, 4, 0
1503701167714,19, 5, 1, 2, 1, -3, -1, -4, 0
1503701167736,-14, -24, -11, -2, 2, -3, -1, -3, 0
1503701167759,20, 23, 2, 1, -4, 0, -3, -6, 0
1503701167774,-6, -11, -6, -4, -3, 0, -1, 7, 0
1503701167797,-4, 1, -4, -2, -1, -2, -1, -4, 0
1503701167819,-26, -9, 1, 2, 0, 2, 1, 0, 0
1503701167834,14, 10, 2, 0, 0, 0, 0, 3, 0
1503701167871,7, 5, -4, -4, -4, -3, -1, 0, 0
1503701167890,-3, -4, -1, 2, 2, 1, -2, 1, 0
1503701167916,1, 6, 2, 3, 1, -1, 0, -1, 0
1503701167932,-4, -2, -2, 2, -1, -1, -1, -1, 0
1503701167947,-3, 1, 1, -4, -14, -1, 0, 1, 0
1503701167969,6, 22, 15, 3, 5, 1, -1, -8, 0
1503701167993,-2, -16, -6, -5, 2, 1, 0, -1, 0
1503701168007,-3, -8, -7, -2, 1, -1, -3, 4, 0
1503701168032,0, -8, -1, 1, 0, 0, -1, -7, 0
1503701168044,-4, -10, -1, 0, 0, 0, 1, 1, 0
1503701168067,-9, -7, 0, -3, -4, -2, -3, -4, 0
1503701168091,9, 0, -4, -2, -1, -1, 0, 1, 0
1503701168104,-3, -4, -4, -6, -4, 1, 0, -8, 0
1503701168127,-7, 7, 0, 3, 1, 0, -1, 6, 0
1503701168149,-8, -5, -2, -2, 7, -4, 0, 2, 0
1503701168166,-10, 7, -5, 3, 1, -2, -3, -3, 0
1503701168187,-7, -5, -3, -2, -13, -2, 0, -3, 0
1503701168209,-7, -7, 4, 3, 4, 0, -1, -7, 0
1503701168233,-1, 15, -2, 0, 0, -1, -1, -2, 0
1503701168254,7, 4, 1, 1, 2, 3, 0, -4, 0
1503701168269,17, -5, -2, -2, -1, 0, -1, 4, 0
1503701168284,27, 21, -1, -4, -5, -2, 1, 14, 0
1503701168307,4, 1, -3, -1, 5, 1, 1, 3, 0
1503701168331,-1, -5, 2, 13, 20, 1, -2, -6, 0
1503701168344,20, 14, 1, -5, -16, -4, -1, 1, 0
1503701168367,-4, -8, 0, 4, 6, 1, -4, -8, 0
1503701168374,11, 3, 3, -6, -4, 0, 0, -3, 0
1503701168396,-1, -7, 2, -2, 0, -1, -1, 2, 0
1503701168419,-20, -5, -2, -2, -13, -3, 0, -1, 0
1503701168434,5, 0, 3, 2, 20, -2, -2, -5, 0
1503701168456,2, 0, 0, -1, -2, -1, -2, -3, 0
1503701168479,6, -2, -1, -1, -5, 0, -1, -1, 0
1503701168494,-9, 1, 3, 4, -1, 1, -1, -3, 0
1503701168516,-4, 4, -3, -2, -6, -1, -1, -2, 0
1503701168539,-6, 1, 3, 2, 3, 1, 1, -1, 0
1503701168554,13, -16, -5, -4, -4, -4, 0, 2, 0
1503701168576,-4, 1, -6, -1, -1, -1, -2, 4, 0
1503701168599,0, 9, 0, 4, 4, 0, 0, -6, 0
1503701168621,6, -2, -1, 2, 3, 0, -5, -2, 0
1503701168636,6, 6, 4, -2, 2, -2, 0, 0, 0
1503701168661,-11, -2, 1, -1, -2, -1, 0, 1, 0
1503701168681,-1, -4, -3, -1, -4, 0, 0, -3, 0
1503701168696,1, 0, 1, 0, 8, 0, -2, -1, 0
1503701168719,3, 17, -2, 4, 2, -3, -6, -20, 0
1503701168741,-13, -26, -6, -6, -4, -1, 0, -9, 0
1503701168756,9, 11, 1, -2, -2, 0, -2, -1, 0
1503701168779,-1, -4, -4, 1, -4, 0, 2, 17, 0
1503701168801,-9, 7, 2, -2, 1, 1, -2, -18, 0
1503701168816,13, -10, -10, -6, -7, -2, 1, 6, 0
1503701168839,3, 8, -2, -3, -1, -4, 0, 16, 0
1503701168862,-8, -10, 2, 3, 0, 0, -1, -11, 0
1503701168876,-6, -1, 8, 4, 1, -1, -2, 0, 0
1503701168899,1, -1, 0, 0, 5, 2, 4, 3, 0
1503701168921,-5, -5, 0, -6, -23, 0, 0, 3, 0
1503701168936,8, 0, -2, -1, 2, -2, -2, -8, 0
1503701168959,-11, -3, -5, -5, 0, 1, 0, -3, 0
1503701168968,7, 5, 7, 1, -14, -4, 1, 6, 0
1503701168990,-7, 11, -2, -7, 0, 4, 3, 3, 0
1503701169011,-11, 0, 0, 2, -7, -3, -3, -9, 0
1503701169027,-11, 1, -2, -3, -3, -1, 2, 15, 0
1503701169049,-1, -4, -8, -6, -6, -3, 0, 3, 0
1503701169072,14, 0, 4, 4, -2, 0, 0, 4, 0
1503701169087,1, -8, -2, -2, 17, 2, 8, 2, 0
1503701169109,18, -6, -2, -4, -7, -4, -4, -13, 0
1503701169132,-14, 6, 2, 4, 5, -4, 4, 3, 0
1503701169147,-3, -2, 2, -14, -22, 1, -3, 2, 0
1503701169170,-26, 0, 7, 17, 7, 1, 1, -3, 0
1503701169192,5, -1, -10, -15, -14, -2, 0, -3, 0
1503701169207,-5, -4, -5, -16, -3, 1, -3, -1, 0
1503701169234,1, -3, 4, 4, -4, -2, -4, -10, 0
1503701169252,-5, -1, 4, 8, 4, 0, 1, -11, 0
1503701169267,1, -14, -11, -1, -1, -3, 1, 8, 0
1503701169289,-1, 7, -3, 3, 7, -1, -5, -12, 0
1503701169312,-27, -7, 2, 1, 0, 0, 6, 13, 0
1503701169327,25, 3, -1, -1, -2, -2, -1, 11, 0
1503701169350,-2, -6, 2, 1, 2, 0, -3, -7, 0
1503701169372,27, 5, -2, -7, -15, -3, -8, 16, 0
1503701169387,7, 12, 8, 2, -4, -2, 2, 2, 0
1503701169409,-28, 1, -1, 3, 4, -4, 0, 9, 0
1503701169433,-6, -6, -3, 0, 4, 13, 1, 3, 0
1503701169447,-5, 8, -3, -3, -4, -12, -9, -7, 0
1503701169469,-21, -13, -15, -3, 1, 1, 8, 20, 0
1503701169491,-38, -10, -15, -6, -1, -8, -5, 1, 0
1503701169507,-26, 8, 7, 0, -1, 2, 8, 5, 0
1503701169521,19, -2, 3, 8, 18, 3, -2, -6, 0
1503701169544,-2, 8, -3, -9, -18, -8, 1, 11, 0
1503701169559,-8, -13, -6, 1, 0, -3, 3, 1, 0
1503701169581,-6, -9, -12, 0, 4, -1, -4, -8, 0
1503701169604,0, -2, 7, 1, 11, -1, -2, 10, 0
1503701169626,-7, -1, 0, 6, 15, 9, -3, -10, 0
1503701169643,6, 2, -3, 0, -16, -7, 0, -5, 0
1503701169650,0, -8, 0, -1, -4, 11, 0, -2, 0
1503701169672,-14, 3, 7, 22, 41, -3, 1, 5, 0
1503701169679,6, 4, 1, -8, -3, 0, 2, 1, 0
1503701169703,2, 3, 0, 9, 2, -4, -2, 7, 0
1503701169724,-6, -1, -2, -1, 6, -1, 4, 16, 0
1503701169739,-15, -7, 1, 1, 6, -3, -2, -38, 0
1503701169761,4, -2, 2, 3, 9, -2, -2, -6, 0
1503701169784,-3, 5, 5, 10, -15, -1, 3, 4, 0
1503701169799,-4, -2, 0, -1, 23, 5, 3, 9, 0
1503701169821,-5, -6, -7, -6, 2, -1, 1, -4, 0
1503701169845,6, 2, 1, 0, -7, -2, -20, 3, 0
1503701169859,-6, -3, -5, -8, -5, -4, 3, -20, 0
1503701169881,24, -4, 6, 0, 5, 9, 9, 7, 0
1503701169904,-2, -2, -2, 1, -1, -5, -15, -2, 1
1503701169919,4, 1, 3, 11, 3, -1, 5, -4, 1
1503701169942,11, -2, -2, -3, -5, -1, 3, 7, 1
1503701169964,-1, -2, -5, -3, -1, -1, -1, 21, 1
1503701169979,12, -4, -5, -7, -1, -31, -12, -21, 1
1503701170005,-14, -1, 2, 0, 0, 2, -2, -14, 1
1503701170024,-17, -2, -2, -8, -14, 7, -2, 9, 1
1503701170033,8, 1, -3, -3, -13, -11, -14, -1, 1
1503701170054,7, 0, -1, -2, 2, 3, -3, -9, 1
1503701170071,2, -1, 0, -1, 3, 3, 3, 4, 1
1503701170092,11, 2, -3, -6, -2, 2, 3, 15, 1
1503701170114,-16, -3, -4, -4, -7, 6, 3, 24, 1
1503701170129,5, -3, -3, -5, -3, 0, 5, -6, 1
1503701170152,-4, 6, 3, -1, -6, -16, -1, 1, 1
1503701170174,-16, -10, 6, 0, 4, 6, -5, -29, 1
1503701170190,4, 6, -3, 12, 7, 5, -15, -2, 1
1503701170212,13, 11, -1, -2, -2, -1, -5, -17, 1
1503701170234,15, 8, 7, -1, 0, -1, 8, -3, 1
1503701170249,-7, -12, -10, -5, -10, -1, 4, 0, 1
1503701170275,7, 5, 1, 13, 13, 3, -8, 13, 1
1503701170294,6, -17, -8, -7, -4, -1, 5, -6, 1
1503701170309,21, -19, -19, -8, -9, -6, -12, -43, 1
1503701170324,-14, 11, 3, 0, 2, 1, 2, -6, 1
1503701170341,-9, -5, 1, -5, -7, 1, -7, -9, 1
1503701170361,-29, -9, 2, -2, -8, -4, -2, 2, 1
1503701170384,-7, 0, -3, -2, 1, -1, 0, -3, 1
1503701170399,-2, 6, -2, -6, -6, -2, -4, -35, 1
1503701170421,-13, -18, -1, 0, 7, -4, 3, 22, 1
1503701170444,21, 13, 1, 1, -6, -3, -4, 6, 1
1503701170458,-28, -7, -5, 3, 2, 2, 1, 5, 1
1503701170482,-13, -7, -4, 0, 2, 2, -2, -3, 1
1503701170504,-3, -16, -1, 4, 3, -2, 2, -2, 1
1503701170526,9, 4, -2, -1, -6, 1, 0, -33, 1
1503701170541,-14, -13, -5, -6, -2, -2, 1, 12, 1
1503701170556,-10, 4, 0, -2, -4, 10, -15, -2, 1
1503701170579,-13, -2, -1, 4, 0, 3, 15, 46, 1
1503701170586,1, -9, 10, -2, -2, 0, -5, -6, 1
1503701170602,-9, 27, -1, -3, -7, -5, 1, -14, 1
1503701170624,-4, -10, 2, 11, 15, 4, -1, 7, 1
1503701170646,-6, -9, -4, 0, -8, 4, -3, 13, 1
1503701170661,13, -13, 5, 2, 5, 4, 3, 1, 1
1503701170685,-23, 9, 2, 5, 4, 1, 1, -33, 1
1503701170710,-14, -21, -16, -28, -8, -6, 1, 2, 1
1503701170721,-2, 8, 4, 3, 35, 19, -2, 5, 0
1503701170745,11, 16, 2, -14, -43, 1, -7, 0, 0
1503701170776,23, -1, 12, 3, 19, -1, -6, -2, 0
1503701170796,-28, 13, 1, 1, 14, 1, 3, 4, 0
1503701170814,19, -9, -4, -2, -9, -1, -4, -28, 0
1503701170834,-10, -6, -3, -6, -7, -1, 8, 29, 0
1503701170856,-35, -5, -7, -3, -4, -2, -1, 35, 0
1503701170872,1, 1, 3, 2, -5, -6, -4, -20, 0
1503701170894,-4, -6, 1, -2, -1, 15, 2, 14, 0
1503701170918,11, 13, 3, 1, 15, 4, 4, -7, 0
1503701170932,19, 3, 1, 5, -7, -15, -31, -52, 0
1503701170954,-32, -15, -3, -6, -8, -13, 3, 29, 0
1503701170977,-27, -20, -4, 3, -5, -8, 21, 7, 0
1503701170992,17, 4, 0, 3, 4, 13, 2, -12, 0
1503701171014,13, 2, -2, 1, 0, -2, 10, -19, 0
1503701171036,11, 17, -1, -6, -10, 0, -4, 15, 0
1503701171052,35, 0, -8, -3, 3, -2, -9, 4, 0
1503701171074,-7, -4, -4, -7, -7, -26, -20, 6, 0
1503701171096,-12, -7, 4, 0, -1, 25, 0, 5, 0
1503701171112,3, 15, 2, 4, 3, 15, 5, 15, 0
1503701171134,-4, -5, 0, 2, -7, -3, 1, -10, 0
1503701171156,-34, -8, -1, 4, 18, -4, -6, 0, 0
1503701171172,13, 12, 8, 2, -11, 3, 5, -2, 0
1503701171194,7, -10, -6, -8, 2, -27, -3, -11, 0
1503701171217,0, 4, -2, 1, 0, 0, 6, 5, 0
1503701171232,-4, 9, 5, -10, -8, 4, -10, -8, 0
1503701171254,0, -4, -1, 1, -15, 1, 1, -5, 0
1503701171276,-4, -1, 0, -1, -3, 2, -1, 4, 0
1503701171292,3, -2, 0, 10, 18, 6, -2, -9, 0
1503701171314,-7, -8, -2, -8, -15, -5, -3, -4, 0
1503701171336,6, 1, 2, 0, 4, 2, 2, 5, 0
1503701171348,-5, 1, 0, 0, 25, 2, -1, 3, 0
1503701171365,5, 5, 1, -4, -3, -3, -3, -2, 0
1503701171374,-7, -2, 2, -7, -14, -2, -3, -5, 0
1503701171396,5, 6, -4, 3, 2, -4, -1, -2, 0
1503701171419,2, 5, 4, 6, 5, 2, -1, 4, 0
1503701171426,-1, -7, -8, -10, -15, -4, 3, 3, 0
1503701171448,-6, -2, 1, -16, -8, -1, -2, 1, 0
1503701171464,4, 1, 0, 18, 6, 0, -5, -7, 0
1503701171485,7, 0, 2, 23, 20, 13, 11, 6, 0
1503701171508,-7, 0, 3, -8, -9, -1, 2, 3, 0
1503701171524,0, -1, -5, -6, -8, -7, -4, -8, 0
1503701171547,5, -1, -3, 0, 1, 3, -2, -5, 0
1503701171568,4, -5, -9, -13, 6, 7, 9, -17, 0
1503701171584,3, 4, 4, 0, -20, -1, 5, 8, 0
1503701171607,-19, -9, -8, -10, -10, -5, -8, 5, 0
1503701171628,-1, -8, -9, -4, -8, -7, -7, -16, 0
1503701171644,2, 6, -5, -3, -7, -9, -5, -4, 0
1503701171665,1, -5, -3, 12, 16, 0, -4, -2, 0
1503701171674,9, 10, 4, 5, -1, 2, -2, -2, 0
1503701171709,-2, 13, 15, -7, -2, 0, -1, 3, 0
1503701171724,-4, -12, -4, -1, -13, -6, -2, -3, 0
1503701171734,-5, 0, 3, 2, 2, 0, -2, -29, 0
1503701171756,-8, 11, 2, -1, -1, -2, 2, 8, 0
1503701171779,7, -10, -9, 5, -2, -6, -3, 2, 0
1503701171794,7, -5, -5, -8, -6, -1, -1, -3, 0
1503701171823,9, -3, 2, 6, 11, 1, -3, 3, 0
1503701171839,8, 20, 9, 6, -8, -1, 3, 0, 0
1503701171854,-9, -4, -11, -4, -1, 0, -1, 7, 0
1503701171876,-3, -11, -10, -9, -5, -2, -7, -36, 0
1503701171899,6, 1, -2, -6, -1, -2, -3, 12, 0
1503701171916,-2, -3, -5, 1, 1, 0, 5, 2, 0
1503701171936,8, -6, -7, -2, -1, 2, 1, -24, 0
1503701171944,9, -3, 1, 1, -1, 0, -3, -26, 0
1503701171965,5, 1, -10, -9, -8, -5, -4, -1, 0
1503701171988,-2, -7, -11, -10, -5, -1, 3, 8, 0
1503701172004,-3, 5, -2, 0, -2, -3, -2, -3, 0
1503701172026,7, 2, 2, 1, 6, 3, 5, 5, 0
1503701172048,5, 4, 3, -1, 0, 0, -2, 5, 0
1503701172070,1, 3, 4, 0, -10, -1, -4, -16, 0
1503701172094,1, 2, -2, -3, -7, -3, 0, 0, 0
1503701172108,-6, -8, -5, -1, -2, -1, 1, 8, 0
1503701172124,-3, -4, -5, 0, 3, 0, -2, -6, 0
1503701172145,-5, 0, -4, -7, 20, 0, -1, 3, 0
1503701172154,8, -4, -4, -2, -12, -2, -2, -14, 0
1503701172176,-2, 5, -10, -5, -1, -2, -2, -6, 0
1503701172199,-1, -8, -11, -5, -1, -5, -2, 0, 0
1503701172214,0, -3, 1, 6, -12, 0, -1, 1, 0
1503701172236,1, -2, 0, -7, 0, -2, 1, -1, 0
1503701172259,-3, 0, 4, 4, -8, 2, -1, 3, 0
1503701172274,-6, 0, -2, -2, -5, -4, -1, -1, 0
1503701172303,1, -4, 0, -3, -2, -1, 1, 1, 0
1503701172321,-3, 1, 3, -5, 3, -2, 1, -4, 0
1503701172341,1, -4, -4, -8, 30, 3, 0, -5, 0
1503701172356,8, -7, -4, -1, -6, -3, -2, -5, 0
1503701172379,-1, -10, -7, -6, -8, -5, -8, -20, 0
1503701172401,-4, -4, -1, -2, -6, 1, 1, 10, 0
1503701172416,2, 5, 3, 4, 3, -3, -1, 3, 0
1503701172439,-4, -20, -10, -5, -4, 0, -2, -13, 0
1503701172461,-3, 0, 5, 2, -1, -1, 0, -2, 0
1503701172476,-3, 7, -2, -1, 11, 0, 3, 15, 0
1503701172491,-1, -16, -17, -5, -2, -4, 0, 10, 0
1503701172506,1, 5, 1, -1, 0, -1, -2, 0, 0
1503701172528,3, 3, 1, 6, 5, 2, -3, -3, 0
1503701172550,-1, -4, -14, -7, -6, -2, 0, 5, 0
1503701172559,6, -6, -3, 0, -3, 0, 0, 2, 0
1503701172581,-8, -16, -4, -5, 10, 1, -3, 0, 0
1503701172597,1, -2, -8, -6, -3, 0, 1, 6, 0
1503701172621,6, 0, -4, -4, -6, -2, -4, -19, 0
1503701172641,1, -1, 2, 7, 11, -3, -1, 2, 0
1503701172657,11, 0, -6, 4, 10, 2, -1, -2, 0
1503701172679,-9, -2, -8, -7, -19, -8, -4, 2, 0
1503701172701,-3, 2, 7, -12, -23, -2, -2, -6, 0
1503701172716,6, 2, -7, -11, -23, -5, -7, -20, 0
1503701172738,-6, 4, 7, 5, 13, 9, 3, -15, 0
1503701172761,-1, -2, -2, 7, 14, 2, -2, 0, 0
1503701172776,-2, -3, 2, 2, -3, -1, 2, 6, 0
1503701172799,5, 2, -3, -1, -9, -4, -5, -18, 0
1503701172823,-4, 4, 2, 1, 5, -2, -3, -5, 1
1503701172836,-2, -1, 1, 2, 10, 8, 4, 20, 1
1503701172859,9, -13, -17, -8, -10, -8, -16, -42, 1
1503701172881,-8, -5, -3, -9, 7, -5, 0, 15, 1
1503701172896,4, 1, 2, -2, -6, 0, 4, 15, 1
1503701172919,0, -4, -1, -2, -8, 0, 1, 5, 1
1503701172935,-3, -1, 0, 1, 1, 0, 1, -1, 1
1503701172949,-5, -3, 0, -1, 3, -7, -2, -10, 1
1503701172972,-2, 3, -2, 0, 5, 0, 1, 6, 1
1503701172994,5, -12, -4, -1, -2, 0, -1, -3, 1
1503701173009,0, -2, -4, 1, -15, -5, -2, 1, 1
1503701173031,-4, -4, -1, -1, 2, -4, -4, -4, 1
1503701173054,2, 12, 2, -1, -7, 0, 1, -8, 1
1503701173069,-8, -8, -10, -4, 1, -13, -10, -11, 1
1503701173093,7, -7, -2, -4, -4, 1, -5, -21, 1
1503701173114,-1, -3, -3, 0, -4, -2, 1, 2, 1
1503701173130,8, 2, 6, 3, 5, 6, 5, 10, 1
1503701173152,-5, -2, 1, -3, -2, -18, -5, 2, 1
1503701173160,2, 3, 2, -6, 1, 0, -1, 1, 1
1503701173182,6, -4, -4, 2, 7, 17, -2, -34, 1
1503701173197,-1, -7, -2, 1, 0, -28, -21, -8, 1
1503701173219,-9, 20, 24, 8, 7, 11, 6, 19, 1
1503701173241,-11, 0, -9, -2, -3, 6, 14, -11, 1
1503701173256,0, 0, -3, 0, 2, 1, 4, -10, 1
1503701173278,-1, -21, -24, -1, 8, 1, -3, -6, 1
1503701173301,13, 8, -15, -10, -18, 1, 8, 26, 1
1503701173324,-6, -8, 1, 3, 10, 18, 7, -1, 1
1503701173339,2, -1, 8, -7, -21, 1, 7, 6, 1
1503701173363,-3, -13, -6, 10, -2, -4, -4, -15, 1
1503701173384,-30, 2, 5, -3, -2, -3, 4, 18, 1
1503701173399,6, -3, 3, 4, 21, -11, -8, -30, 1
1503701173421,-26, 4, -6, -4, -11, -9, 0, 34, 1
1503701173444,1, -20, -17, -10, -8, -20, -16, -9, 1
1503701173461,10, 1, 2, 7, 43, 21, 10, 5, 1
1503701173481,13, 5, 12, -6, -30, 3, 4, -9, 1
1503701173504,5, 10, 13, -5, -4, 19, 8, -3, 1
1503701173518,-1, 0, -8, -3, 1, -1, -2, 0, 1
1503701173541,13, -29, -13, 0, 2, 0, 5, 7, 1
1503701173564,5, 7, 1, 3, -10, -7, -10, -1, 1
1503701173578,27, 1, -6, 5, 6, -15, -32, -12, 1
1503701173602,-20, 6, 1, -3, 3, 4, 3, 5, 1
1503701173624,-1, -5, 10, 4, -6, -20, -12, 4, 1
1503701173639,-5, 11, 4, -1, -2, 4, 3, -10, 1
1503701173663,7, 8, 1, -8, -1, 1, -4, -12, 1
1503701173684,-9, -5, 0, -6, 0, -3, 5, 10, 1
1503701173699,-8, -8, -7, -2, -3, 1, 5, 1, 1
1503701173722,1, 0, 0, 4, 1, 11, 12, -1, 1
1503701173744,15, 5, -3, 1, -6, -8, -6, -8, 1
1503701173759,-4, -11, -14, -7, -5, -6, -5, -19, 1
1503701173781,0, 4, 3, 3, -1, 11, 2, -1, 1
1503701173804,-13, 5, 3, 2, 6, -3, 2, 8, 1
1503701173819,1, -11, -2, -3, 2, -4, -3, -3, 1
1503701173841,-10, -14, -20, -10, 8, -1, 2, 2, 1
1503701173864,-2, 7, 4, 0, -4, -17, -21, 36, 1
1503701173878,-7, -5, 4, -3, -26, -5, 11, 13, 0
1503701173901,6, 2, 0, -2, -22, 0, -29, -17, 0
1503701173923,-7, 1, -3, -5, 1, 10, 3, -1, 0
1503701173931,1, -1, 0, 7, 43, 13, 5, 7, 0
1503701173954,-8, 1, 0, -7, 5, -19, -4, -15, 0
1503701173969,0, -2, -3, -3, -16, 5, -4, 15, 0
1503701173991,-10, -2, -1, -13, -17, -4, 5, 4, 0
1503701174014,6, 0, -6, -4, -8, -1, -3, 2, 0
1503701174031,21, 1, -7, -9, -20, -8, -3, -7, 0
1503701174051,8, 3, 7, -4, -7, 2, 2, 1, 0
1503701174074,-5, 0, -7, -4, -1, 6, -4, 1, 0
1503701174089,2, -3, -6, -4, -33, 1, -4, 0, 0
1503701174111,-14, -2, -1, 5, 24, 9, 8, 4, 0
1503701174134,-1, 0, 1, -2, -20, -17, -6, -9, 0
1503701174149,2, 2, 0, 1, 31, 10, 9, -10, 0
1503701174172,1, -3, -3, 8, 21, 1, 2, -1, 0
1503701174194,-3, -10, -1, 0, -9, -3, -1, -3, 0
1503701174216,4, 3, 1, 0, -16, -26, -7, 1, 0
1503701174233,-13, 6, 4, -1, -8, -8, 0, -1, 0
1503701174254,-1, -1, -8, -3, -1, 7, -2, 6, 0
1503701174276,-18, 7, -7, 0, 3, 6, 7, 39, 0
1503701174291,-8, -22, -11, -5, -4, -17, -11, -6, 0
1503701174314,21, 18, 4, 2, 9, 8, 0, -20, 0
1503701174337,5, 2, 11, 10, 5, 10, 2, -2, 0
1503701174351,14, -5, 6, 0, -5, -1, -8, -15, 0
1503701174374,1, 6, 0, -1, 22, 24, 9, 7, 0
1503701174396,4, 12, -6, -9, 0, 3, 1, -4, 0
1503701174412,-12, -11, 17, 10, 0, -3, 11, 4, 0
1503701174435,4, -15, -7, 3, -19, -8, 1, 0, 0
1503701174456,6, 10, 1, -5, -13, -7, -12, -12, 0
1503701174472,7, 1, 14, 6, -5, -4, -9, -15, 0
1503701174494,-12, 1, 1, 1, 7, 5, 2, 13, 0
1503701174516,0, -6, -11, -14, -8, -2, -2, -1, 0
1503701174531,-10, 12, 3, -1, -10, -6, 1, 7, 0
1503701174554,-5, 4, -2, -5, 5, 1, 3, 2, 0
1503701174577,-10, -2, -10, -4, 3, 0, 2, 8, 0
1503701174592,0, -19, -18, -5, -4, 0, -2, 7, 0
1503701174614,-3, 5, 7, 0, -3, -4, -1, -5, 0
1503701174636,-6, -4, -2, 4, 6, 1, -3, -8, 0
1503701174659,-5, 12, 1, 0, 2, -1, -3, -6, 0
1503701174674,4, 3, 10, 7, 2, -2, -2, 10, 0
1503701174696,-13, -8, -5, -1, 3, 0, 2, 7, 0
1503701174712,1, -13, -4, -10, 4, 4, 0, -6, 0
1503701174734,8, -8, -8, -10, -7, -6, -3, -26, 0
1503701174756,1, -4, -3, 2, 1, 1, -1, -9, 0
1503701174772,2, -4, -6, 0, 4, 0, 3, 5, 0
1503701174794,0, -4, 2, 1, -5, -3, 0, -4, 0
1503701174816,23, -3, -5, 1, 10, -1, -4, -7, 0
1503701174832,-5, 10, 8, 10, 12, 4, -2, 2, 0
1503701174855,-4, -10, 8, -1, -9, -1, -2, -1, 0
1503701174877,1, -10, -8, -6, -9, -4, 1, 4, 0
1503701174892,12, 6, -9, -7, -4, -1, -5, -2, 0
1503701174914,2, -6, -4, -1, 3, 3, -3, -3, 0
1503701174939,-7, 7, 9, 3, -4, -1, 1, 4, 0
1503701174952,-6, -18, -9, 5, 3, 3, -2, 1, 0
1503701174974,-3, 6, -1, -4, 4, 1, -2, 2, 0
1503701174996,-1, -2, 20, -3, -1, -4, -2, 2, 0
1503701175012,8, 5, -6, -2, -12, -6, -2, -3, 0
1503701175034,4, -32, -5, 1, 8, 1, 0, -13, 0
1503701175056,-4, -4, -11, -9, -8, -4, 0, 2, 0
1503701175073,-1, 12, -10, -1, -6, -2, 2, 12, 0
1503701175094,0, 5, 2, 13, 2, 1, 1, 0, 0
1503701175116,-8, 13, 0, -2, -1, 0, 1, 12, 0
1503701175140,2, 8, 9, 6, -5, 2, -5, 4, 0
1503701175154,-11, 0, 10, -7, -7, -2, -1, -5, 0
1503701175176,4, -1, -9, -13, -1, -3, -1, -10, 0
1503701175199,0, 5, 4, 1, 7, 0, 0, -4, 0
1503701175209,5, -10, -2, -4, 5, 3, -4, -4, 0
1503701175228,1, 2, -3, -6, -7, -4, -3, 7, 0
1503701175244,3, 8, 4, 2, -1, 0, -1, 2, 0
1503701175266,0, 2, 8, 1, 1, 1, 2, 2, 0
1503701175289,-4, 9, -3, 6, 3, 0, -1, -3, 0
1503701175304,-2, 7, -9, -2, 0, 0, 0, 3, 0
1503701175326,-1, 0, 1, 0, 2, 2, 0, -1, 0
1503701175350,-3, -1, 3, 4, 3, -1, 2, 0, 0
1503701175363,-1, -7, -9, -1, -4, -3, -2, -4, 0
1503701175378,-2, -1, -3, 3, 2, 0, -2, 0, 0
1503701175394,1, -2, 10, -2, -7, -3, 0, 3, 0
1503701175417,2, 4, -2, -4, -10, -3, 0, 9, 0
1503701175439,-4, -4, -3, -5, 2, 1, 2, 7, 0
1503701175454,6, 0, -3, 3, 2, 0, 0, 0, 0
1503701175469,-7, -4, -2, -9, -4, -6, -2, -3, 0
1503701175484,2, 2, -1, -6, 1, -1, -1, 1, 0
1503701175499,-4, -4, -5, -2, 4, -1, -2, -3, 0
1503701175514,0, -3, -2, 4, 6, 0, -1, -8, 0
1503701175536,0, -1, -2, -10, 4, -1, 4, 3, 0
1503701175558,-6, -2, -3, -2, -7, -1, -3, -1, 0
1503701175576,4, -2, -1, 3, -2, 0, 1, 2, 0
1503701175596,1, 1, 0, 0, -3, -1, -1, 4, 0
1503701175618,0, 13, 20, 5, -1, 1, -1, -3, 0
1503701175634,2, 12, 3, 3, 4, 2, -3, -1, 0
1503701175656,-5, -17, -8, -1, -2, -1, -2, 0, 1
1503701175679,-8, -6, 4, 1, 3, 4, 0, -3, 1
1503701175694,1, -2, 2, -4, -9, -3, -3, -12, 1
1503701175716,-4, 3, 9, 0, 1, 1, -1, -3, 1
1503701175723,0, 4, 1, 4, 6, 0, -1, -6, 1
1503701175747,0, -6, 6, -1, -2, 0, 1, -1, 1
1503701175768,-2, 4, 3, 0, -5, 0, 0, 3, 1
1503701175783,1, 1, 2, 3, 3, 1, 2, 1, 1
1503701175806,4, 6, -8, -6, -5, -3, -2, 4, 1
1503701175828,-3, 0, -3, -1, 0, 0, -2, -10, 1
1503701175844,0, -8, -8, -6, -11, -4, -1, 1, 1
1503701175866,-1, 1, 4, 1, -3, -2, -1, -2, 1
1503701175888,0, 15, 22, 6, 4, 2, -1, 0, 1
1503701175916,-4, -1, -4, -1, 2, -1, -2, -2, 1
1503701175933,-7, -22, -5, -1, -7, -1, -3, -4, 1
1503701175948,1, 5, -1, -2, 2, -2, -1, 5, 1
1503701175963,-2, -1, -3, 0, -16, -8, -1, -2, 1
1503701175986,4, -6, -5, -1, 4, 0, 0, -5, 1
1503701176008,3, -1, -2, -1, 7, 1, 1, -3, 1
1503701176030,-4, 7, 2, -3, 4, 6, 1, 0, 1
1503701176046,1, -2, -6, 2, -13, -5, -1, -7, 1
1503701176068,-5, -6, -3, -4, -15, -13, -3, 1, 1
1503701176090,3, 1, -4, -4, -32, -19, -4, 8, 1
1503701176107,-2, -14, -3, -1, 1, 2, -1, -3, 1
1503701176128,8, 3, -2, -6, 6, 0, -2, -8, 1
1503701176152,-6, -5, -4, 1, 26, 14, 4, 5, 1
1503701176166,-2, -3, -2, -2, 11, 6, 2, 0, 1
1503701176188,0, 12, -1, -2, -4, -3, -1, 3, 1
1503701176210,3, -7, 2, 3, 1, 1, -3, -5, 1
1503701176226,5, 19, 17, 5, 6, 0, 3, 1, 1
1503701176249,-5, -5, -7, 3, 10, 4, -4, 6, 1
1503701176270,-2, -17, -5, -5, -29, -9, -4, -2, 1
1503701176286,-10, 7, -1, -2, -4, 0, 1, 1, 1
1503701176308,-4, -7, -4, 1, 13, 9, -1, -6, 1
1503701176330,3, 6, 4, 2, 5, 0, 4, 6, 1
1503701176349,-3, 16, 6, -1, -1, -3, -1, -5, 1
1503701176368,1, -1, -1, 0, 3, -1, -2, -4, 1
1503701176405,15, -6, -4, -2, -15, -7, -4, -35, 1
1503701176408,0, 0, -7, 0, 5, 1, -4, 2, 1
1503701176428,-6, -2, 3, -2, -10, -7, 1, 7, 1
1503701176450,-7, -5, -3, -2, 8, 4, 0, 12, 1
1503701176466,-1, 8, 0, -2, -1, 1, -2, -4, 1
1503701176488,-2, -15, 2, 3, 6, 1, -1, 18, 1
1503701176510,4, -6, -5, -4, 4, 8, 1, -9, 1
1503701176526,0, 2, -1, -4, 15, -22, -5, 4, 1
1503701176550,6, 11, 26, 4, -2, 2, 1, 0, 1
1503701176570,-8, 15, 8, 6, 0, 5, 1, -3, 1
1503701176586,1, -7, -14, -8, -6, 0, 1, 7, 1
1503701176608,3, -2, -3, -2, -18, -10, -3, -11, 1
1503701176630,-4, -2, -1, 4, 6, 11, -9, 1, 1
1503701176646,-6, 21, 10, 2, 16, 10, 5, 0, 1
1503701176668,-4, -7, -6, -4, -5, -21, -5, 5, 1
1503701176690,2, -2, 6, 0, 0, 5, 1, -11, 1
1503701176706,1, -6, -14, -5, -6, 1, 1, -5, 1
1503701176728,-4, -11, -7, -3, -11, -4, 3, 6, 1
1503701176751,6, -6, -4, -3, -10, 0, 4, 0, 1
1503701176766,-3, -4, -8, 0, 3, 1, -4, -2, 1
1503701176789,-7, 2, -11, -6, -11, -3, -2, 2, 0
1503701176819,5, -6, -1, 1, -8, -4, 3, 20, 0
1503701176826,-2, 15, 9, 1, 8, 6, 4, 15, 0
1503701176848,5, -11, -9, -3, -5, -20, -17, -42, 0
1503701176870,-3, -3, 2, -1, -13, -3, 2, 3, 0
1503701176886,-3, 0, 4, 1, 3, 2, 8, -2, 0
1503701176908,3, -2, 1, -3, -8, -3, -3, -12, 0
1503701176930,-6, -18, -4, -2, 6, 3, 7, 6, 0
1503701176946,8, 2, -6, 0, 4, 7, -5, -10, 0
1503701176968,-8, 1, 3, 2, 0, -2, 7, 15, 0
1503701176990,-5, -7, -5, -5, -1, 19, 15, -6, 0
1503701177013,-1, -18, -4, -1, 11, 6, -7, -12, 0
1503701177028,5, -18, -5, -2, -4, -1, -1, -8, 0
1503701177045,11, -6, -9, -4, -4, -8, -2, -4, 0
1503701177059,-8, -8, 6, -1, -4, -4, -2, -6, 0
1503701177081,-3, 10, 1, 0, -3, 0, -1, 11, 0
1503701177103,-1, 1, -7, -2, -4, -5, 0, 0, 0
1503701177120,-10, 16, 14, 1, -4, -2, -2, -4, 0
1503701177141,-4, -7, -6, -4, -3, -3, -5, -15, 0
1503701177163,0, -11, -17, -5, -1, -2, -2, -10, 0
1503701177178,-1, 4, -2, -2, 0, 0, 8, 9, 0
1503701177201,-4, 4, 1, 1, -2, 0, -3, -3, 0
1503701177224,0, -12, -7, -4, -2, -3, -3, -6, 0
1503701177238,0, -1, 11, 7, 5, 5, 3, 0, 0
1503701177261,-5, 15, 0, -1, -1, -2, 1, 4, 0
1503701177283,0, -11, -4, -1, 0, 0, -1, 3, 0
1503701177298,1, -13, -11, -6, -5, -4, -1, 3, 0
1503701177322,0, -9, -4, -2, -3, -3, -4, -12, 0
1503701177343,-1, -11, -3, 0, -2, 0, 2, 4, 0
1503701177359,1, -8, -5, -4, 1, 0, -2, -1, 0
1503701177381,9, -1, 0, 3, 0, -2, -5, -20, 0
1503701177403,-6, -4, 12, 6, 2, 0, -3, -7, 0
1503701177418,1, 4, -9, -3, -3, -2, -2, 1, 0
1503701177441,-1, 11, 7, 2, 1, 2, 0, 4, 0
1503701177464,-1, -1, -1, -1, 0, -1, 0, 6, 0
1503701177478,-4, 14, 21, 5, 2, 3, 2, 2, 0
1503701177501,-1, -14, -2, -1, -2, -1, -7, -19, 0
1503701177525,4, 5, 7, 4, 1, -2, 0, 6, 0
1503701177538,-4, -7, -11, -13, -3, -3, -1, 10, 0
1503701177563,11, 2, -6, -5, -5, -3, -1, 11, 0
1503701177569,11, -17, -12, -1, -2, -3, -4, -16, 0
1503701177590,-1, -2, 3, 4, -1, 0, 3, -1, 0
1503701177612,-11, -10, -7, -3, -6, -1, 1, -1, 0
1503701177621,-12, 7, 4, -7, -4, 1, 6, 15, 0
1503701177643,2, 1, 0, 5, 2, 0, 1, -2, 0
1503701177659,-10, -5, -10, -2, 3, -2, 1, 20, 0
1503701177681,10, 19, -5, 1, 4, -3, -2, 3, 0
1503701177703,-11, -27, -19, -8, -7, -1, -4, -3, 0
1503701177718,-5, -8, -3, 1, 0, -1, -3, -12, 0
1503701177741,-1, 22, 16, 0, 1, 0, -2, -8, 0
1503701177763,-5, -1, -7, -5, -19, -4, -3, -1, 0
1503701177778,-3, -8, -3, 4, -9, 4, 1, 3, 0
1503701177801,-10, -20, -4, -1, 3, 0, 0, -3, 0
1503701177826,-8, -1, -1, -1, 13, -1, 0, -3, 0
1503701177838,13, -1, -6, -9, -17, -5, -3, -13, 0
1503701177853,-2, 3, -3, -5, 0, -4, -3, 8, 0
1503701177868,-1, 14, 14, 7, 3, 2, -1, -2, 0
1503701177892,-18, -2, -5, -4, -9, -1, 1, -2, 0
1503701177913,17, 6, -11, -17, -8, 1, 0, -6, 0
1503701177935,-19, -18, -5, -3, -7, -3, -1, -2, 0
1503701177961,5, -3, 0, -3, -3, -3, -3, 4, 0
1503701177974,18, -12, -15, -10, -5, -4, -3, -9, 0
1503701178000,-3, 23, -5, 1, 3, -2, 0, -1, 0
1503701178019,16, -13, -15, 0, -6, -3, -2, -5, 0
1503701178036,-19, -1, -4, -3, -4, -3, 0, 14, 0
1503701178056,2, -5, 12, 4, 5, 2, -2, -17, 0
1503701178085,-2, -23, -5, 2, 1, -1, -2, -13, 0
1503701178102,-12, -11, -3, 1, -2, 0, 2, 7, 0
1503701178123,0, 8, 3, -2, -2, 1, 2, -6, 0
1503701178146,-5, -21, -8, 7, -4, -4, -1, 5, 0
1503701178167,4, 2, -11, -8, -4, -3, -1, -2, 0
1503701178184,3, -1, -6, -7, -5, -2, -1, 0, 0
1503701178206,4, 20, 18, 5, 2, 1, 0, 10, 0
1503701178221,4, -4, -8, 2, 1, 0, 0, -9, 0
1503701178243,-8, 0, 9, 1, 3, 0, -3, -4, 0
1503701178266,0, 0, 4, 5, 2, 0, 0, 1, 0
1503701178281,2, -5, 24, 19, 9, 3, -3, -2, 0
1503701178304,-3, -9, -22, -16, -6, -3, 0, 3, 0
1503701178328,6, 6, 4, -5, -2, 0, -1, -1, 0
1503701178341,-1, -7, -10, -4, -3, -2, 0, -2, 0
1503701178363,-4, -4, -6, 1, 0, -1, -3, -2, 0
1503701178371,-7, -5, 1, 0, 2, 1, 2, 2, 0
1503701178397,6, 3, 6, 4, 0, 0, 1, 9, 0
1503701178416,-5, 4, 1, 0, 1, -1, -1, -3, 0
1503701178432,-2, -13, 1, 0, 0, -2, -2, -5, 0
1503701178454,4, 2, 10, 4, 2, 2, -1, -8, 0
1503701178476,-4, 0, 0, 10, 4, 1, -2, -2, 0
1503701178499,6, -3, 0, -3, -2, -2, -1, -3, 0
1503701178514,1, 2, 2, 9, 25, 0, -3, -2, 0
1503701178536,-2, 3, 1, 2, -8, 2, -2, -2, 0
1503701178559,-4, -4, 3, -1, -8, -7, -1, 0, 0
1503701178574,-2, 12, 3, -7, -2, -1, 1, -3, 0
1503701178597,-6, -7, -4, -11, -16, 0, 2, 1, 0
1503701178619,2, -3, -9, -7, -16, 0, 0, 1, 0
1503701178634,-17, 4, -1, -4, 10, -4, -3, -3, 0
1503701178656,-4, -14, -7, -5, -9, -3, -1, 1, 0
1503701178679,-1, -3, -9, -1, -10, 0, 0, -4, 0
1503701178694,1, -10, -6, 7, 18, 2, 1, 0, 0
1503701178716,8, 7, 2, -9, -8, -2, -1, 0, 1
1503701178739,5, -1, 0, -6, -10, -1, 0, 1, 1
1503701178754,-1, 2, 7, 4, -2, -4, 0, 1, 1
1503701178776,1, -24, -16, -6, 5, 0, -1, -3, 1
1503701178800,-15, 2, 6, -1, 0, 1, -1, -3, 1
1503701178814,1, 10, 1, -2, -13, -3, 0, 2, 1
1503701178837,15, 15, 12, 9, 8, 0, -1, 2, 1
1503701178859,-4, -11, -3, -4, -4, -1, 0, 2, 1
1503701178874,10, 15, 7, 2, 6, 0, -2, -2, 1
1503701178899,-6, -10, 0, 2, 2, 2, 2, 0, 1
1503701178919,12, 3, 5, 4, 1, 2, -1, -3, 1
1503701178935,2, 10, -12, -6, 12, -6, -3, -3, 1
1503701178957,-8, -4, -4, -4, -6, -1, -1, 1, 1
1503701178979,8, 10, 0, -1, 4, 3, 0, 0, 1
1503701178994,-1, 2, -3, 1, -7, -3, -1, 0, 1
1503701179016,2, 44, 28, 6, 7, 3, 1, 2, 1
1503701179039,-7, -30, -14, -1, -5, -4, -5, -4, 1
1503701179070,-10, -1, -2, -6, -8, 1, -1, -10, 1
1503701179083,11, 4, -8, -3, -12, -9, -2, 3, 1
1503701179106,-8, -16, 4, 6, 6, 0, 0, 6, 1
1503701179129,-3, 16, 6, 1, 2, 0, -3, 0, 1
1503701179143,0, 4, 5, 1, 21, 0, -1, -11, 1
1503701179168,-1, 9, 12, -1, -17, -4, -1, -3, 1
1503701179189,1, -6, -5, -6, 7, -6, -1, 6, 1
1503701179204,5, 4, -7, -2, 0, 3, 0, 1, 1
1503701179226,6, -11, -1, 3, 4, 2, -1, 0, 1
1503701179248,-4, -4, -6, 0, -9, -4, 3, -1, 1
1503701179263,1, -12, 0, -6, -9, 1, -3, -4, 1
1503701179286,-4, -5, -4, -5, -5, -2, -2, 1, 1
1503701179308,4, 11, 11, 5, 9, 2, -2, 0, 1
1503701179323,2, 8, 0, 9, 5, 2, 7, -1, 1
1503701179346,-7, -6, 3, -2, 7, 4, 1, 3, 1
1503701179369,5, 3, -3, -1, 8, 4, 7, 3, 1
1503701179383,-7, -11, -6, -6, -10, -8, -5, -1, 1
1503701179407,-10, 1, 5, 0, 2, 1, -1, -2, 1
1503701179429,-6, -7, -4, 0, 3, 0, -5, -16, 1
1503701179444,6, 3, -5, -5, -6, -1, -1, 7, 1
1503701179466,-8, -3, 1, 4, 6, -8, -11, -2, 1
1503701179488,-2, -6, -2, -5, 5, 3, 3, -13, 1
1503701179496,6, -1, 1, 6, 14, 11, 5, 2, 1
1503701179519,2, -1, 1, 8, 1, -11, -2, -1, 1
1503701179534,-8, -6, -2, -2, 1, 4, 3, 7, 1
1503701179556,-7, -3, -2, -6, -8, -4, -2, -7, 1
1503701179580,3, 7, 6, 4, 5, 0, -2, 6, 1
1503701179594,-10, -8, 3, -1, -6, -4, -2, -6, 1
1503701179616,-10, 10, 6, 0, -5, 3, 0, -10, 1
1503701179639,5, -7, -8, -4, 0, -1, 1, 1, 1
1503701179654,5, -5, -6, -3, -2, -2, -4, -5, 1
1503701179670,-6, -15, -9, -4, -5, 3, -3, -1, 1
1503701179683,-1, 0, 1, 4, 14, 14, 7, 5, 1
1503701179706,2, 2, -4, -2, 1, -5, -3, 3, 1
1503701179729,1, 2, 3, 1, -4, -3, 0, -4, 1
1503701179743,4, -16, -10, -5, -9, -9, -4, -6, 1
1503701179766,-4, -8, -2, 2, 7, 11, 3, 0, 1
1503701179788,-3, -13, 6, 2, -1, -3, -5, -2, 1
1503701179811,-8, -6, -3, -3, -2, 0, 2, -3, 1
1503701179826,2, 1, 0, 1, 8, 1, -1, -2, 1
1503701179848,1, 4, -2, -2, 0, -5, -5, 0, 0
1503701179876,-2, -2, -6, -9, -20, -9, -5, -3, 0
1503701179886,-2, 2, -3, -4, -11, -8, -6, -2, 0
1503701179908,5, 0, -2, -1, -4, -12, -3, 0, 0
1503701179931,2, 1, 4, 0, 9, 9, 6, 9, 0
1503701179949,4, 6, 0, 1, 3, 6, -4, -5, 0
1503701179968,-5, 14, 11, 4, 10, 6, 4, 0, 0
1503701179991,6, -2, -2, 0, 4, 6, 4, -3, 0
1503701180007,-5, -2, 0, 2, 1, -2, -2, 11, 0
1503701180029,0, -7, -10, -6, -5, -4, -4, -22, 0
1503701180051,-3, -8, -5, -3, -2, 2, 2, 7, 0
1503701180066,8, 1, -5, -5, -9, -6, -2, -5, 0
1503701180088,5, -6, -5, -2, 1, -2, -5, -2, 0
1503701180111,8, 1, -1, -1, 1, -3, 2, 6, 0
1503701180126,-3, 9, 12, 5, 3, 7, 2, -17, 0
1503701180149,-10, -2, -3, -1, 5, 8, 10, -4, 0
1503701180171,2, 3, -3, -3, -6, -6, 1, 7, 0
1503701180186,0, 6, 2, 0, 1, -6, -9, -1, 0
1503701180208,-8, -5, 3, 0, 0, -1, -6, -1, 0
1503701180217,-7, -13, -10, -3, -3, 1, 5, 8, 0
1503701180239,2, 22, 11, -3, -8, -2, 2, 11, 0
1503701180261,-5, -5, 0, 2, -1, 2, 0, -4, 0
1503701180277,3, -15, -8, -4, 1, -1, -7, -14, 0
1503701180299,-5, 6, -5, -2, 0, 0, -1, 7, 0
1503701180321,1, -3, -1, 0, 0, 1, 2, 3, 0
1503701180336,-7, -3, 0, 0, 0, 1, 3, 7, 0
1503701180359,-3, 1, 5, 5, 2, 1, 1, 15, 0
1503701180381,4, -6, -12, -3, -7, -1, -1, -1, 0
1503701180396,2, -4, 3, 2, 2, 1, 0, -7, 0
1503701180420,-1, 3, 3, 0, 0, -2, -1, -17, 0
1503701180443,-1, -1, 4, 4, 5, 3, -1, 6, 0
1503701180456,0, -1, 7, 4, 1, 1, 2, 4, 0
1503701180480,1, 4, 0, -6, 0, -3, -3, -1, 0
1503701180501,-1, -5, -15, -7, -4, -2, -2, -8, 0
1503701180517,-2, -6, -7, -12, -5, -3, -2, -7, 0
1503701180539,0, 9, -1, -4, -4, -3, 0, -8, 0
1503701180561,-1, 7, 5, 3, 1, 0, -1, -3, 0
1503701180583,4, -3, -7, 2, 4, 2, -1, 3, 0
1503701180599,-4, -8, -6, -2, -2, -2, -1, 2, 0
1503701180621,-4, -2, 3, 1, -4, -3, -4, -7, 0
1503701180636,1, -7, -2, 5, 5, 1, 0, -5, 0
1503701180659,-1, -1, -4, -4, -4, -2, -2, -20, 0
1503701180681,-5, 3, -8, -4, 0, 0, -2, 5, 0
1503701180697,-3, 3, 13, 10, 5, 2, -2, 5, 0
1503701180719,6, -1, 2, 1, -5, -3, -1, 7, 0
1503701180741,2, -7, 0, -4, -2, 1, 3, 8, 0
1503701180770,-5, 7, 5, 3, 1, -1, -1, 3, 0
1503701180787,6, -3, -15, -5, 0, -1, -3, -10, 0
1503701180802,-8, -2, 3, -5, -5, -2, -1, -3, 0
1503701180823,-3, 0, -11, -7, -5, -2, 3, 6, 0
1503701180839,1, -5, 5, 1, 2, 0, 1, -3, 0
1503701180861,-1, 3, 9, 10, 7, 2, -2, 2, 0
1503701180883,-4, 2, -5, -3, -3, -1, -2, 2, 0
1503701180899,7, 3, -7, -6, -3, -3, 0, -2, 0
1503701180922,0, -12, 11, 2, -4, -3, -1, -6, 0
1503701180943,1, 9, -2, -3, -2, -3, -1, -3, 0
1503701180959,-10, -9, -2, 1, 0, 1, -1, 8, 0
1503701180981,5, 22, 8, -3, 2, 2, -1, -2, 0
1503701181003,3, 9, 1, -2, -2, -1, -1, 1, 0
1503701181026,7, -10, -2, 3, 7, 2, 0, -18, 0
1503701181043,0, -13, -5, -3, -2, -2, 1, 3, 0
1503701181056,-7, -20, -3, 2, -1, -1, 0, -6, 0
1503701181073,-2, -4, 1, 5, 2, -1, 1, 15, 0
1503701181093,-3, 4, -17, -8, -5, -1, 1, -1, 0
1503701181122,-2, -2, -2, -1, 0, -1, 0, -2, 0
1503701181131,4, 5, -3, 6, -3, -2, -3, 2, 0
1503701181152,4, -2, 11, -3, -3, -3, -1, 6, 0
1503701181161,-4, 2, 18, 2, 0, 0, 0, 0, 0
1503701181183,-7, -5, -12, 1, 0, -1, 0, -8, 0
1503701181199,0, 0, -1, -7, 3, 1, 0, 6, 0
1503701181228,-1, 6, -7, -3, 1, 0, -1, 14, 0
1503701181243,-10, -2, -2, -2, -3, 0, 0, 0, 0
1503701181259,2, -2, -10, -5, -8, -3, 0, -3, 0
1503701181283,-4, -3, -8, -5, -4, -3, -3, -11, 0
1503701181303,0, -1, -4, 5, 2, 2, 3, 3, 0
1503701181319,-6, -5, -2, -1, -2, -2, -2, -3, 0
1503701181341,-6, -10, -4, -3, -4, 0, -2, -17, 0
1503701181363,11, -5, -7, -8, -1, -1, 0, 3, 0
1503701181379,-1, 4, 4, 6, 3, 0, 0, 5, 0
1503701181401,-3, -2, -2, 3, 3, 1, -1, 2, 0
1503701181424,3, -5, -5, -5, -3, -4, -1, -2, 0
1503701181439,3, 7, 7, 2, -1, 1, -1, -3, 0
1503701181461,-2, -4, 1, 2, 0, 0, -2, 3, 0
1503701181484,0, 10, 4, 2, -1, -1, 0, -1, 0
1503701181499,1, -9, -12, -2, 0, -1, -1, -3, 0
1503701181521,0, -5, 1, -2, 0, 1, 0, -1, 0
1503701181543,-3, 5, -1, -3, -4, -3, -3, 0, 0
1503701181566,-1, 0, -4, -2, -1, -1, 1, -2, 0
1503701181581,5, -5, -7, -5, -2, -2, -2, -3, 0
1503701181603,2, 12, 1, 8, -4, -1, -2, -1, 0
1503701181619,-4, 0, 0, -1, 4, 1, 2, 2, 0
1503701181641,4, -7, 3, -1, -8, 0, 0, 1, 0
1503701181663,6, -2, 0, -3, -5, 2, -1, 2, 0
1503701181686,-5, -3, -1, -3, -1, 0, 1, 2, 0
1503701181701,-2, -6, 2, 7, 44, 0, -1, 0, 0
1503701181723,6, 4, -2, -4, -17, -4, -1, -4, 0
1503701181746,-11, 8, 4, 0, -14, 1, 2, 0, 0
1503701181761,-10, -9, -2, 6, 5, -4, -1, -1, 0
1503701181784,-1, 7, 3, 5, 19, 0, -2, -1, 0
1503701181806,4, 3, 0, 1, -5, 2, -1, 0, 0
1503701181821,4, -1, 5, -5, -12, -1, -1, -1, 0
1503701181843,6, 7, -6, -5, -9, 1, 1, 2, 0
1503701181866,0, -2, -4, -1, -11, -3, -3, -1, 0
1503701181881,-3, 2, -1, -11, -9, 0, 0, -1, 0
1503701181904,-6, -5, 1, 0, 4, 0, 0, -3, 0
1503701181926,2, 0, -2, -1, 1, -2, -3, -1, 0
1503701181941,-1, 11, 11, 3, 2, -1, 2, -1, 0
1503701181963,4, 1, 0, -1, -1, 1, -2, 0, 0
1503701181988,-3, -3, -6, 0, -7, -2, -1, 1, 0
1503701182001,-17, -11, 1, -3, -4, 0, -1, -8, 0
1503701182023,-13, 4, -5, -2, -1, -1, 0, 3, 0
1503701182046,1, -5, -7, 0, 1, -2, -2, -2, 0
1503701182061,-9, -10, -3, -2, -2, -3, 1, 0, 0
1503701182083,4, -6, -1, 2, 5, 0, -2, 1, 0
1503701182106,17, 5, -2, -2, -1, -1, -2, 1, 0
1503701182122,8, -1, -2, -5, -5, -1, -1, -2, 0
1503701182143,-6, -6, -5, 2, 4, 0, -1, -3, 0
1503701182166,7, -2, -8, 0, -1, -1, 1, 2, 0
1503701182181,8, -3, 2, 7, 4, -7, -3, -1, 0
1503701182203,-1, -22, -2, -1, 0, 2, -1, 1, 0
1503701182226,5, 18, 7, -2, -5, 0, -1, -3, 1
1503701182242,-14, 4, 5, 4, 2, 0, 0, 3, 1
1503701182264,-7, -14, -8, -8, 8, 2, -2, -9, 1
1503701182286,-7, 5, -2, 0, -3, 2, 1, 2, 1
1503701182309,-5, 12, 16, 0, -1, -1, -1, -3, 1
1503701182323,6, -4, -7, -4, 8, 4, 3, 7, 1
1503701182352,-7, -1, 4, 0, -9, -5, -3, -6, 1
1503701182361,0, 2, -6, -3, -5, -5, -1, -1, 1
1503701182383,6, -6, -5, -3, -1, 1, 0, 5, 1
1503701182406,1, -8, -8, -6, 2, 1, 2, 9, 1
1503701182421,15, -3, 6, 3, 1, -1, -1, 3, 1
1503701182443,-6, 3, 0, 1, 6, 0, -2, 4, 1
1503701182466,-4, -4, -3, -1, 2, 1, 0, -3, 1
1503701182481,-2, -1, 1, 27, 42, 2, -5, -5, 1
1503701182503,-6, -2, -6, -6, -20, -4, 1, -2, 1
1503701182526,9, 5, 6, -1, 0, -1, -4, -16, 1
1503701182541,-1, -7, -8, -7, -12, -3, -2, -10, 1
1503701182563,-3, -3, 0, -1, -6, 0, -1, 2, 1
1503701182586,1, 2, -1, -10, -18, 1, 0, 4, 1
1503701182608,-6, 2, 0, -2, -9, -4, 2, 1, 1
1503701182625,19, 12, -6, 1, -4, -2, -1, 8, 1
1503701182637,4, 7, 21, 8, 4, 2, 3, -3, 1
1503701182646,0, -10, -1, 1, 0, 0, -3, -10, 1
1503701182653,-3, -13, -5, 1, -2, 0, -1, -5, 1
1503701182675,7, 2, 0, -3, -9, 0, -3, -7, 1
1503701182697,-3, -3, -2, 2, 10, 3, 3, 12, 1
1503701182706,-3, 13, 2, -3, -10, -4, -1, 1, 1
1503701182728,5, 5, 1, -3, 4, 0, 0, -7, 1
1503701182743,3, -8, -4, -3, -8, 0, 5, -1, 1
1503701182766,-13, -17, 0, 2, -2, -6, -4, -3, 1
1503701182788,1, 11, -3, -2, 3, 2, 3, 1, 1
1503701182803,-4, 14, 11, 1, 0, -2, -4, -7, 1
1503701182827,1, 8, -1, -2, -1, 5, 3, 2, 1
1503701182848,-3, 3, 0, -1, -5, 14, 8, 22, 1
1503701182864,-7, 9, -1, -1, 10, -3, 0, -1, 1
1503701182886,-1, -16, -3, -4, 0, 1, 4, 3, 1
1503701182908,8, 8, -3, 1, 11, -10, -5, 4, 1
1503701182924,-7, -7, -5, -4, -11, -5, -6, -4, 0
1503701182938,-5, -11, -6, -9, 6, -6, -1, 1, 0
1503701182952,-9, 0, -1, 0, 8, -1, -18, -1, 0
1503701182975,20, 7, 3, 2, 1, -3, 3, -13, 0
1503701183001,2, 2, -2, -4, -2, -2, 1, -4, 0
1503701183012,-8, -2, -3, -2, -17, -2, -1, 2, 0
1503701183036,-7, -1, -1, -10, -15, 2, 2, 8, 0
1503701183058,2, -10, -2, 9, 28, -4, 3, 4, 0
1503701183073,4, 2, 1, -3, -5, -2, 3, 10, 0
1503701183095,-10, 2, 1, -2, -1, -2, 1, -6, 0
1503701183117,-10, -5, 7, 1, -2, -2, 0, 9, 0
1503701183141,-2, -10, -5, -1, -8, -5, -2, -1, 0
1503701183156,-5, -6, -1, 0, -2, -3, 3, -2, 0
1503701183179,5, -3, -2, -2, -4, 7, 5, 8, 0
1503701183202,1, 5, 0, 2, -2, 3, 9, -1, 0
1503701183216,4, 9, 0, -2, 0, 3, 2, -8, 0
1503701183239,6, 6, 1, 0, 2, -6, -7, -5, 0
1503701183263,16, -12, -6, -4, -5, -3, -6, -8, 0
1503701183276,-7, -2, -6, -4, 4, -15, -11, -20, 0
1503701183299,0, -3, -1, -4, -5, 4, -1, 11, 0
1503701183321,11, 2, -2, -1, -1, -3, -1, -5, 0
1503701183336,-13, 3, -2, -1, -2, -4, -8, -15, 0
1503701183359,-6, -1, -1, 0, -2, 0, -1, 6, 0
1503701183381,10, 3, -2, 0, 16, -6, -7, -4, 0
1503701183398,2, 5, 10, 16, 9, 11, 16, 6, 0
1503701183419,0, -5, -5, -8, -14, -5, 1, 2, 0
1503701183441,-11, -11, 1, -12, -28, 2, 1, 1, 0
1503701183456,0, 5, 1, 15, 35, 19, 0, -10, 0
1503701183479,-19, -18, 4, -2, -27, 2, 1, 11, 0
1503701183501,-8, 10, -1, -4, 7, -3, 0, 4, 0
1503701183516,7, 9, 2, 0, -9, -9, -5, 2, 0
1503701183540,-3, 0, 1, 3, 6, -3, 3, 5, 0
1503701183561,-9, 1, -3, -10, -22, -7, -3, -3, 0
1503701183576,8, 0, -6, -5, 3, 6, 3, 4, 0
1503701183591,-5, -7, 0, 3, 11, 10, 9, -4, 0
1503701183606,3, -3, -2, 0, 6, -2, 2, -16, 0
1503701183628,8, -9, -3, -1, 8, -3, 0, 4, 0
1503701183651,5, -3, -1, 1, 2, -13, -5, -2, 0
1503701183659,17, 4, 7, -2, 2, -4, -4, 0, 0
1503701183681,-15, 4, 2, 5, 7, 1, 1, 6, 0
1503701183696,23, -1, -1, -1, 2, 2, 1, -2, 0
1503701183725,-15, 3, 1, 3, -4, -5, 4, 1, 0
1503701183741,15, 6, -3, 1, 2, 3, 2, 9, 0
1503701183757,-2, -10, -10, -6, -9, -5, -4, -12, 0
1503701183779,-13, -22, -8, -3, 16, 6, 7, 2, 0
1503701183801,-19, -3, -1, 5, 8, 8, 1, 15, 0
1503701183816,12, 4, -1, -1, -9, -5, 1, 0, 0
1503701183839,3, 0, -3, -8, -9, -5, -6, -2, 0
1503701183876,-1, -8, -7, -11, -15, -3, 0, 1, 0
1503701183891,1, 1, 0, -16, -5, -7, -2, 7, 0
1503701183906,5, -4, 2, 9, 19, 7, 2, 6, 0
1503701183935,-1, 3, 1, 4, -6, 2, 3, 5, 0
1503701183951,-8, -5, 0, 2, -15, -2, -1, -10, 0
1503701183969,5, 0, 1, 24, 27, 0, 2, -1, 0
1503701183988,-7, 6, 13, -3, -14, 0, -1, -13, 0
1503701184011,-2, -1, -5, -9, -6, -5, -2, -6, 0
1503701184026,-2, -5, 1, 5, 3, -1, 1, 3, 0
1503701184048,-12, -3, 5, 4, 2, 2, -1, 0, 0
1503701184074,7, -1, -1, 3, -1, 1, -1, 4, 0
1503701184093,0, -4, -1, -2, 4, 2, 0, 2, 0
1503701184108,3, -6, -25, -18, -11, -5, -6, -23, 0
1503701184131,4, 5, 3, -1, 21, 5, 0, 5, 0
1503701184146,-1, -5, -6, -3, -9, -2, 0, 2, 0
1503701184169,0, -3, 0, -3, -18, 4, 3, -1, 0
1503701184193,3, 4, 10, 1, -17, -1, -2, 12, 0
1503701184206,4, -7, 0, 8, 22, 6, 2, 5, 0
1503701184228,-12, -5, -3, -4, -3, -4, 0, 7, 0
1503701184251,3, 2, -2, 1, 3, -4, -5, -14, 0
1503701184266,-3, -5, -8, -17, -7, -4, -2, -2, 0
1503701184288,2, 1, -5, -4, -3, -2, 1, 2, 0
1503701184311,-1, 13, 4, 1, -6, -2, 0, 3, 0
1503701184326,0, -2, 0, 0, 6, -4, -2, 3, 0
1503701184348,-2, -7, 6, 5, 1, -4, -3, -11, 0
1503701184371,-4, 2, 19, 5, 1, 0, -1, -2, 0
1503701184385,-2, 0, -7, 3, 0, 0, -4, -8, 0
1503701184409,5, 10, 2, 0, -2, 0, -3, -9, 0
1503701184431,3, 5, -5, -6, 0, 0, 3, 0, 0
1503701184446,4, -4, 0, 6, 1, 1, 0, 11, 0
1503701184468,2, 7, 3, 3, 4, 3, 3, 13, 0
1503701184490,2, -3, -13, -11, -11, -6, -4, -5, 0
1503701184499,-5, 4, 2, 2, 1, -2, -2, 1, 0
1503701184521,-2, 10, 4, 5, 4, 1, -2, -6, 0
1503701184543,1, -1, 1, 1, 3, 0, 0, -10, 0
1503701184558,10, -3, 8, 0, 7, 4, -3, -5, 0
1503701184581,2, -4, -12, -4, -4, -2, 3, 3, 0
1503701184603,-4, -3, -11, -4, 1, -2, -3, -8, 0
1503701184619,1, -8, 10, 2, -2, 1, 1, 3, 0
1503701184642,2, 2, -3, -2, -3, -4, -1, -2, 0
1503701184663,-2, -2, -2, 0, -4, -2, -4, -18, 0
1503701184680,2, 4, -2, -5, -14, -5, 0, -2, 0
1503701184701,0, -5, 1, 2, -4, 0, 1, 2, 0
1503701184709,3, 5, 3, 4, 3, 0, -1, 0, 0
1503701184730,0, -2, 2, 1, 0, -3, -1, 0, 0
1503701184741,-2, 3, -7, 2, -7, -2, -1, 9, 0
1503701184767,2, -1, -1, -4, 2, -2, -2, 4, 0
1503701184783,-1, 3, -2, 1, 3, 2, 0, -1, 1
1503701184799,3, 6, 6, 2, 1, -2, 1, -3, 1
1503701184821,-2, -7, -1, 4, 0, -1, -1, -1, 1
1503701184844,-5, 0, 0, -1, 0, 2, 3, 2, 1
1503701184866,1, 2, -1, -1, 0, -3, 0, 5, 1
1503701184888,-1, 0, 0, -3, 8, 1, 1, 5, 1
1503701184903,1, 2, 1, -1, 4, 0, -2, -5, 1
1503701184919,1, -2, -2, -1, -5, -1, -3, -4, 1
1503701184942,-3, -4, -5, -5, -13, -2, -2, -1, 1
1503701184963,-5, -1, 0, 4, 7, -1, -5, -8, 1
1503701184979,1, -2, -2, -7, -6, -9, 1, 6, 1
1503701185001,7, 4, 1, 7, 2, 1, 0, 3, 1
1503701185023,-16, -6, -3, -6, -8, -2, 0, -5, 1
1503701185039,2, 1, 0, 1, 3, 2, 1, -6, 1
1503701185061,-1, 8, 4, 1, 1, 1, -4, -16, 1
1503701185084,10, 11, 6, 1, 6, 0, 0, 2, 1
1503701185099,2, -11, -11, -2, 2, -1, -4, -7, 1
1503701185121,1, 1, 2, 1, -4, 2, 0, 0, 1
1503701185144,1, -4, -1, 0, 0, 0, -1, 1, 1
1503701185159,-6, -1, 5, -1, -2, -3, -2, 3, 1
1503701185182,-2, -1, -2, -1, -1, 0, 2, 6, 1
1503701185204,-3, 3, 4, 3, 13, 1, 0, 3, 1
1503701185219,0, -9, 3, -2, -2, -2, 0, -3, 1
1503701185244,0, -24, -16, -5, -6, -1, 3, 4, 1
1503701185263,0, -5, -7, 0, -3, 0, -3, 2, 1
1503701185278,-1, 1, -2, 2, 1, 2, 2, 4, 1
1503701185301,3, 6, -3, -1, -4, -2, 0, -6, 1
1503701185323,-1, -2, 1, -1, -1, -2, -4, -3, 1
1503701185339,-3, 8, -5, -6, -8, -3, -2, 1, 1
1503701185361,-3, 5, -1, -4, -6, -4, -3, -3, 1
1503701185383,-7, 8, 13, 4, 3, 2, 0, 0, 1
1503701185405,-2, -6, -4, 0, -2, -3, 2, -4, 1
1503701185413,5, -3, -2, 0, -4, 0, 0, 3, 1
1503701185435,-2, -18, -8, -1, -5, -6, -5, -10, 1
1503701185451,-2, 7, -4, -3, 1, 1, -2, 2, 1
1503701185473,1, -5, 7, 1, -1, 2, 1, 0, 1
1503701185495,1, 0, -5, 0, -1, 0, 0, -1, 1
1503701185512,-4, 2, -4, -4, 7, 5, 1, -1, 1
1503701185533,-1, 7, -1, 1, 4, 1, -1, 6, 1
1503701185555,3, 3, -1, -3, 3, 1, -3, -2, 1
1503701185570,2, 3, 6, 0, 6, 1, -1, -3, 1
1503701185593,-3, 3, -2, -1, -6, -4, -2, 2, 1
1503701185615,-2, -3, -9, -4, -3, 0, 1, 3, 1
1503701185630,3, -1, 6, -1, -18, -10, -1, 12, 1
1503701185653,-4, -8, -4, -4, -11, -1, -2, -11, 1
1503701185675,5, 2, 2, 4, 16, 7, 4, 1, 1
1503701185691,-2, 3, 10, 6, 20, 6, -1, -9, 1
1503701185706,0, -2, -9, -3, -11, -2, 0, -2, 1
1503701185715,-2, -2, -2, 0, -5, -1, 0, 5, 1
1503701185735,0, 3, -1, -4, 17, 16, 2, 3, 1
1503701185751,2, -1, -2, -1, -12, -14, -2, -4, 0
1503701185773,-7, -17, -6, -1, -11, -9, 0, -4, 0
1503701185795,3, 4, -1, 4, 35, 27, 4, -1, 0
1503701185810,1, -7, -13, -5, -15, -18, -9, -37, 0
1503701185833,-2, -7, 6, -1, -6, 6, 9, 15, 0
1503701185855,-3, -1, -1, -4, -24, -17, -7, 4, 0
1503701185871,-5, 2, 1, -2, 2, 7, 13, 8, 0
1503701185893,-7, 1, 2, 0, -11, -21, -13, -2, 0
1503701185915,0, 2, -1, -3, 7, -1, -3, 12, 0
1503701185930,1, 9, -5, -1, -3, -3, -17, 2, 0
1503701185953,-6, -17, 0, 1, -2, 1, 3, 6, 0
1503701185975,5, 12, 5, 1, -4, -9, -1, -4, 0
1503701185984,6, -7, -7, -5, -8, -2, 3, -4, 0
1503701186005,-5, -7, -8, -3, -3, 3, 4, -7, 0
1503701186028,3, 12, -2, -2, -8, -8, -9, -7, 0
1503701186044,-6, 2, 7, 3, -13, -9, 0, 5, 0
1503701186065,-8, -6, 0, 1, 24, 12, -1, 0, 0
1503701186083,-4, 4, 1, 3, -8, 1, 4, 14, 0
1503701186104,0, 0, -3, -1, 0, -4, -2, -4, 0
1503701186111,0, -14, 3, 4, 8, 6, 0, -9, 0
1503701186133,13, 1, -9, -6, -8, -10, -8, -5, 0
1503701186155,2, 6, 2, -1, 0, -5, -5, -3, 0
1503701186172,4, 5, -2, -1, 4, 1, 0, 2, 0
1503701186193,-3, -3, -6, -1, 2, -7, -5, -6, 0
1503701186217,-3, 4, -4, -1, 3, 3, 1, -6, 0
1503701186231,-7, -32, -3, 1, 4, 3, -4, -5, 0
1503701186254,-7, 11, 4, -2, 0, -1, 0, 2, 0
1503701186275,13, 20, 21, 2, 2, 5, 3, 2, 0
1503701186291,-2, 1, -6, 0, -1, -4, 0, -3, 0
1503701186313,4, -18, -13, -5, -10, -8, -5, -29, 0
1503701186335,-1, -8, -6, -2, 1, -2, 0, 16, 0
1503701186357,-4, -6, -5, -1, 2, 1, 1, 4, 0
1503701186373,-9, -3, -10, -3, -1, 1, -1, 2, 0
1503701186390,-6, -7, -4, -2, -3, -4, 0, -3, 0
1503701186403,-3, -2, -1, 0, 0, -1, -2, 2, 0
1503701186427,4, -10, -15, -4, 2, -1, 0, -11, 0
1503701186448,0, 0, 0, 0, -2, -1, 1, 10, 0
1503701186463,1, -3, 3, 1, 3, 6, 1, 2, 0
1503701186487,-7, 3, 1, -1, -2, -2, -4, 4, 0
1503701186508,-4, -5, -5, -1, 1, 3, -1, -10, 0
1503701186524,3, 0, -3, -1, -5, -4, -2, 0, 0
1503701186545,1, 19, 1, -7, 0, 1, 0, 4, 0
1503701186568,-1, -20, -5, 0, -3, -1, 2, 1, 0
1503701186586,0, 14, 0, 0, 1, 0, 0, 4, 0
1503701186605,5, -1, 0, -4, 2, 0, 0, 0, 0
1503701186628,-11, -7, -10, 1, 1, 0, 1, 18, 0
1503701186643,2, -15, -1, -6, -2, -2, -2, -1, 0
1503701186665,5, -20, 5, 4, 0, 0, -3, -3, 0
1503701186690,-2, 7, 1, -1, -2, 0, 0, -10, 0
1503701186703,-10, 8, 11, 3, -1, 2, 3, -2, 0
1503701186726,-4, -4, -2, 1, -2, -2, -5, -11, 0
1503701186748,19, 4, -9, -7, -6, -3, -3, -13, 0
1503701186757,-1, 40, 17, -2, -1, -1, 0, -1, 0
1503701186764,-4, 5, -5, 1, -3, 0, 0, 5, 0
1503701186789,-5, 15, -3, -1, 0, 0, 2, 6, 0
1503701186808,-12, 9, 18, 6, 4, 2, 0, -10, 0
1503701186816,9, -14, -13, -3, -3, -2, -2, 5, 0
1503701186837,-7, -11, -8, -7, -5, -1, 3, 3, 0
1503701186860,-4, 5, 17, 9, 2, 1, -2, -2, 0
1503701186875,-3, -9, -4, -3, -1, -1, -1, 0, 0
1503701186897,4, 14, 6, 1, 1, 2, 0, 2, 0
1503701186913,-7, -1, -3, -3, -1, 1, 0, -2, 0
1503701186936,0, 11, 10, 10, 3, -2, 1, -1, 0
1503701186957,-10, -11, -22, -9, -8, -7, -3, -1, 0
1503701186973,2, -38, -14, -9, -3, 0, 1, 3, 0
1503701186995,14, 0, -6, -3, -1, -2, 0, -15, 0
1503701187017,-9, -10, -3, 0, 0, 1, 0, -2, 0
1503701187033,7, -8, -1, -4, 2, 0, -4, -1, 0
1503701187057,-1, 4, 0, -15, -2, -1, -1, 2, 0
1503701187077,-13, 3, -2, 1, -1, -1, -2, -16, 0
1503701187093,-2, 3, 8, 3, -2, -1, 0, 12, 0
1503701187115,-2, 0, 4, 1, -4, -2, 4, 0, 0
1503701187137,-1, -3, 4, 12, 6, 2, -2, -5, 0
1503701187153,12, 10, 11, 1, 2, 1, -2, -8, 0
1503701187175,-6, 18, 4, 1, -2, 0, -1, 0, 0
1503701187198,-3, 3, 13, 11, -1, 0, 0, 6, 0
1503701187213,3, -7, -16, -11, -3, -3, 0, 6, 0
1503701187236,-11, -20, 2, 9, 3, 0, -3, 2, 0
1503701187257,3, 3, -7, -12, -6, -3, 1, 9, 0
1503701187280,3, -14, -18, -11, -5, -3, -1, 4, 0
1503701187295,3, -4, -3, 2, 3, -1, 1, 1, 0
1503701187317,3, 8, -5, -3, -1, -1, 0, 2, 0
1503701187340,-7, 2, 7, 1, 1, 3, -1, -4, 0
1503701187356,4, -10, -5, 0, -3, -2, -2, -5, 0
1503701187377,-4, 7, -7, -3, -1, -1, 0, 1, 0
1503701187401,5, 2, 6, 0, 0, -2, -4, -5, 0
1503701187415,-2, -10, -14, -4, -6, -4, -1, 2, 0
1503701187437,-3, -9, 1, 2, 1, 0, -1, 1, 0
1503701187460,4, -13, -4, 3, 4, 1, -3, -5, 0
1503701187475,-1, 1, 3, -4, -4, -2, 1, -1, 0
1503701187497,0, 7, -8, -3, -2, -3, -1, 3, 0
1503701187520,-5, -12, -6, -4, -3, 0, 2, -2, 0
1503701187536,6, 17, 7, 12, 4, 2, -2, -5, 0
1503701187560,-2, 5, -1, -6, -2, -1, -1, -1, 0
1503701187580,-4, -6, 1, -2, -1, 0, 3, -1, 0
1503701187596,3, -6, -6, -4, 0, -2, -2, 0, 0
1503701187611,0, 1, -2, 1, -1, -1, -2, 3, 0
1503701187627,1, 1, 1, 1, -2, 0, -2, 0, 0
1503701187648,1, 4, 5, 3, -3, 1, 0, -4, 0
1503701187671,3, 7, -5, -5, -1, -1, 0, -4, 0
1503701187685,2, -2, 6, 15, 10, 2, -4, 1, 0
1503701187700,2, 5, 1, -3, -7, -3, 0, -1, 0
1503701187716,-3, -2, 0, 2, -1, 1, -2, -1, 0
1503701187737,2, -4, 0, 1, -12, -1, 0, 0, 0
1503701187762,4, 3, 6, 1, 10, 1, 0, -2, 0
1503701187776,0, 1, 2, -1, 5, 0, 1, 2, 0
1503701187799,-4, 4, 3, 6, 2, 1, -3, -1, 0
1503701187820,-4, 0, -1, -6, 5, -1, -1, -1, 0
1503701187836,-5, -3, -1, 0, 5, 0, -4, -3, 0
1503701187857,-3, -6, -1, 3, 2, 1, -1, 0, 0
1503701187880,5, -2, -3, -2, -1, -1, 0, -2, 0
1503701187897,-1, -6, -3, -2, -2, -1, 1, 1, 0
1503701187911,-2, 19, 7, 1, 2, 0, -3, -2, 0
1503701187929,1, -14, -5, -2, 4, 0, -1, -1, 0
1503701187948,-1, -6, -2, -2, 0, -2, -4, -2, 0
1503701187970,3, 1, 1, 1, -2, -1, -1, -1, 0
1503701187985,1, -8, -13, -4, -4, -3, 0, 1, 0
1503701188008,0, -8, -5, -1, -2, 0, 1, -2, 0
1503701188030,-1, -4, -2, 0, 1, -3, 0, -1, 0
1503701188045,-3, 2, -6, -2, -3, -3, -3, 2, 0
1503701188068,-2, -3, -3, -3, -3, -3, -2, 0, 0
1503701188076,-2, -2, 0, -2, -11, -4, -3, -5, 0
1503701188097,0, 0, 0, -3, 1, -1, -1, 1, 0
1503701188106,1, -1, -1, -2, -1, -1, -1, 3, 0
1503701188131,3, -5, -4, -1, 0, 1, -2, 1, 0
1503701188150,-4, -7, -2, -3, -10, -6, -4, -3, 0
1503701188165,1, -4, -1, 0, -3, 0, -2, -4, 0
1503701188188,3, 17, 4, 1, 1, 2, -1, -5, 0
1503701188210,0, -8, -3, -1, 9, 7, 0, -3, 0
1503701188233,-1, -1, -3, -9, -19, -5, -1, -1, 0
1503701188248,-6, -3, 4, 1, -4, 0, 2, -3, 0
1503701188270,-2, -8, 4, 2, 3, 2, 0, 6, 0
1503701188293,-9, -1, -10, -1, 16, 8, 0, 0, 0
1503701188308,1, -4, -4, -4, -7, -8, -2, -1, 0
1503701188332,-1, 3, 4, 6, 24, 10, -4, -5, 0
1503701188353,7, 13, 5, -1, -12, -16, -6, 1, 0
1503701188369,3, -4, -2, -1, -4, -1, 0, -2, 0
1503701188390,-2, -1, -2, 2, -6, -2, 0, -1, 0
1503701188415,-3, -6, 3, 4, -2, 0, 1, 2, 0
1503701188428,5, 0, -4, -2, 1, 2, 1, -2, 0
1503701188450,0, 2, -2, -1, -5, 0, -1, -3, 0
1503701188473,2, 0, -2, 1, 3, 4, 0, 2, 0
1503701188489,-6, 23, 1, -3, -1, -4, 2, 5, 0
1503701188510,3, -17, -5, -2, 8, 4, 2, 0, 0
1503701188534,3, 18, 13, 2, -8, -7, -2, -2, 0
1503701188548,-2, 15, 8, 0, -7, -2, 0, -1, 0
1503701188571,-1, -13, -6, -2, -13, -6, 2, 3, 0
1503701188593,-3, -7, -1, -2, 14, 10, -6, -1, 0
1503701188609,1, -4, -7, -4, -10, -8, -6, -3, 0
1503701188630,-1, -16, -6, -5, 1, 1, -2, -1, 0
1503701188653,-1, -1, -1, 2, 7, 1, -1, 1, 0
1503701188669,-4, -3, -2, -1, 5, 0, -3, -4, 0
1503701188690,2, -3, 7, 4, 13, 14, 7, 2, 0
1503701188713,1, 2, 0, 0, 10, 18, 7, 8, 0
1503701188729,3, 3, -7, -5, -2, -8, -3, -2, 0
1503701188744,-3, 4, 1, 3, -3, 3, -2, -3, 0
1503701188758,-2, 0, -3, 2, 2, -8, -3, -9, 0
1503701188781,3, 3, 3, 0, 12, 7, 2, 8, 0
1503701188804,-4, -1, 0, -3, 4, 22, 13, -9, 0
1503701188825,1, 2, -7, -8, -1, 8, 3, 0, 0
1503701188835,-4, -8, -2, 1, 3, -4, 2, -1, 0
1503701188848,0, 4, -6, -3, -5, 1, -6, 8, 0
1503701188870,-3, 7, 5, 1, 17, 3, 2, 5, 0
1503701188885,1, -2, 4, 1, 5, 13, 6, -10, 0
1503701188904,-5, 0, -1, 2, -1, -1, 4, 2, 0
1503701188923,3, -6, -5, -2, -1, -19, 6, 15, 0
1503701188945,-5, 0, -2, -3, -11, -11, -8, 0, 0
1503701188961,-4, -1, 0, -2, 2, 3, -1, 2, 0
1503701188983,4, 3, 2, 2, -1, -1, -1, 3, 0
1503701189006,-6, 0, 7, 0, -2, -1, -3, -4, 0
1503701189021,-5, -4, -4, 0, 0, -2, -5, -9, 0
1503701189045,-1, 1, 2, 3, 1, 2, 0, -3, 0
1503701189066,3, 3, 1, 0, -1, 8, 6, -1, 0
1503701189081,-2, -4, -3, -2, -3, 0, -2, -1, 0
1503701189104,3, -10, 3, 0, 5, 1, -1, -12, 0
1503701189126,-7, 2, -8, 0, -1, -4, -5, 8, 0
1503701189141,8, -2, -2, -7, -15, -8, -2, 8, 0
1503701189163,-6, 1, 2, 2, 4, -2, 0, -4, 0
1503701189185,0, -2, -4, -3, 0, -3, -15, 5, 0
1503701189201,0, 7, 18, 6, -16, -3, 2, 1, 0
1503701189223,4, 4, -2, 0, 7, 5, 3, -4, 0
1503701189248,-5, -7, -9, -2, -6, -8, -3, 7, 0
1503701189261,1, 1, 3, 5, 14, 4, 1, -3, 0
1503701189276,12, -3, -8, 0, -14, 5, 4, 0, 0
1503701189291,-2, -2, -3, -14, -3, -7, -14, -4, 0
1503701189313,2, 6, 7, 10, -15, -13, -7, -3, 0
1503701189335,7, 5, -2, -7, 17, -4, -9, -11, 0
1503701189350,-7, -1, -3, -5, -6, -24, -14, 5, 0
1503701189374,-12, -5, -3, 2, 28, 29, 7, -3, 0
1503701189395,-3, 0, 3, 11, 36, 24, -7, 0, 0
1503701189411,2, 0, -3, -1, -6, 1, 2, -20, 0
1503701189433,-1, -4, -5, -5, -27, -14, 3, 4, 0
1503701189455,-7, 0, 1, -3, -15, -18, 3, 3, 0
1503701189472,-1, -7, 1, 3, 3, -5, -2, 4, 0
1503701189493,2, 3, -2, -3, 1, 0, 6, 23, 0
1503701189516,1, -1, -3, -2, 2, -4, -9, -13, 0
1503701189530,0, -4, -2, 1, 0, -1, -1, -2, 0
1503701189553,5, -3, 1, -2, -3, 1, 0, -4, 0
1503701189576,8, -3, -3, -1, -10, -20, -7, -9, 0
1503701189590,-3, 5, 9, 3, 1, 10, 9, 0, 0
1503701189613,-9, 3, 2, -2, 2, 6, 6, -1, 0
1503701189635,0, 1, 4, -2, 0, 6, 0, -2, 0
1503701189650,5, 0, -8, -2, -17, -2, -8, -6, 0
1503701189675,-1, -5, -5, -2, 0, -3, 2, 12, 0
1503701189695,-17, -9, -3, 2, 10, 3, -6, -34, 0
1503701189711,3, 2, -2, -1, -4, 10, -1, 7, 0
1503701189733,23, 1, -1, -4, 6, -14, -19, -9, 0
1503701189755,1, 6, 2, 2, -13, -1, 20, 8, 0
1503701189770,10, -2, -3, -1, -13, -10, -3, 5, 0
1503701189793,-7, -8, -5, 0, 25, 0, 6, 12, 0
1503701189815,0, 11, 8, 6, 18, 14, -5, 9, 0
1503701189830,-13, -9, -4, -2, -15, -7, -1, 13, 0
1503701189853,3, 7, -1, -3, 0, 16, 17, -46, 0
1503701189875,-2, -6, -6, -5, -2, 1, 4, -2, 0
1503701189890,-10, -5, 3, 2, -4, -5, -4, 10, 0
1503701189913,4, 3, 2, -1, 0, -3, -8, 2, 0
1503701189935,-4, -8, -9, -4, -7, -3, 6, -4, 0
1503701189951,1, 2, 2, -1, 2, -16, -8, 4, 0
1503701189973,-2, 15, 17, 4, -3, -10, -8, 26, 0
1503701189995,-5, -11, -8, -4, -4, 6, -35, -2, 0
1503701190026,13, 5, -4, -2, -5, -17, -13, -12, 0
1503701190049,-13, -5, -9, -3, -3, 8, 7, 16, 0
1503701190063,-7, -9, -5, -2, -5, -4, 3, -2, 0
1503701190079,-2, -14, -15, -8, -19, -8, 0, -3, 1
1503701190093,-4, 3, -1, -3, -5, -1, 0, 1, 1
1503701190115,-3, -6, 1, 4, 10, 2, 4, -17, 1
1503701190138,4, 9, 1, 2, 8, -18, -5, -7, 1
1503701190153,-3, -18, -1, 2, 12, 6, 9, 2, 1
1503701190178,-2, -5, -7, -2, -2, 0, 1, 5, 1
1503701190198,7, 7, 1, -2, 4, 5, -3, -6, 1
1503701190215,-3, -18, 2, -1, 1, 1, 1, -5, 1
1503701190235,-2, 20, 1, 0, -1, 0, -6, 8, 1
1503701190258,4, -2, -6, -16, -40, -6, -3, -7, 1
1503701190273,-10, -4, -3, 24, 25, 14, 13, 6, 1
1503701190295,0, 1, 3, -14, -12, 1, -6, -4, 1
1503701190318,1, -2, -6, -2, 14, 0, -2, 3, 1
1503701190333,-5, 7, 8, 1, 16, -2, -15, 0, 1
1503701190355,-9, -8, 8, 4, 42, -22, -13, -4, 1
1503701190379,6, 10, 7, 5, -9, 7, 3, 2, 1
1503701190393,0, 0, -3, -1, -5, 4, 3, -13, 1
1503701190416,-26, -4, -11, 0, -4, -5, -7, 26, 1
1503701190439,3, 16, -5, -5, -13, 3, 17, 9, 1
1503701190453,4, 2, 8, 10, 13, 9, -1, -22, 1
1503701190475,1, -16, -15, -9, -14, -6, 0, -26, 1
1503701190498,1, -36, 35, 4, -22, -6, -4, -4, 1
1503701190513,1, -1, -13, -5, 7, -7, -13, 14, 1
1503701190535,4, 12, -6, -6, 6, 0, 6, 15, 1
1503701190558,2, -8, -17, -4, -8, 6, -10, 5, 1
1503701190573,2, 9, -2, -9, -4, 3, 5, -7, 1
1503701190595,-1, -7, 0, 7, 50, 27, 7, -7, 1
1503701190618,0, -5, -9, 6, -3, -12, 3, -6, 1
1503701190633,-1, 3, 7, -1, -10, -3, -4, 1, 1
1503701190656,2, -1, -6, -9, -20, -4, 1, 9, 1
1503701190678,2, 23, -7, 3, -11, -4, -1, -8, 0
1503701190693,3, 54, 34, 3, -12, -17, -12, -17, 0
1503701190715,-5, -32, -6, -8, -3, 1, 9, 17, 0
1503701190738,-1, -2, -15, -5, 1, 0, 3, 3, 0
1503701190753,14, 13, -2, 11, 17, 1, 2, -7, 0
1503701190775,-8, -32, -11, -7, -3, 8, -5, -5, 0
1503701190798,2, 9, 5, -5, -12, -9, 8, 19, 0
1503701190814,-1, 5, 21, 25, 59, 3, -2, 0, 0
1503701190835,-10, -9, -11, -13, -20, -4, -6, 52, 0
1503701190858,-13, -21, 50, 11, 8, 10, -1, -15, 0
1503701190873,2, 3, -19, -16, -27, 1, 0, -23, 0
1503701190895,9, 16, -5, 3, 51, 2, 1, -3, 0
1503701190918,-1, -17, -22, -14, -17, -1, 1, -12, 0
1503701190933,8, 7, -4, 0, -32, -8, -5, -32, 0
1503701190955,-1, -28, -14, -6, -14, -13, 2, 11, 0
1503701190978,-4, 8, 6, 1, -3, 6, 8, -16, 0
1503701191000,-5, -5, -2, -3, -19, 1, 9, 22, 0
1503701191017,3, -8, -10, -2, 0, 1, -6, -25, 0
1503701191038,0, 0, -6, 2, 10, -3, -6, 6, 0
1503701191060,5, 3, -3, -2, -2, -2, -1, 2, 0
1503701191075,-1, 3, 1, 23, 9, -4, -2, 2, 0
1503701191098,-5, -5, -4, -7, -35, -8, 10, 2, 0
1503701191120,2, 6, 6, 2, -23, 1, -3, -5, 0
1503701191142,-4, 3, -1, -11, 17, 1, -3, -9, 0
1503701191158,-3, -3, -7, -1, 13, 4, -6, 2, 0
1503701191179,2, 12, 6, 0, -7, -6, 2, 17, 0
1503701191195,-3, 9, 1, -14, -24, -9, -2, 24, 0
1503701191218,13, 16, 16, 4, 8, 6, -2, -33, 0
1503701191240,0, -5, -8, -2, -4, 5, -3, 8, 0
1503701191256,8, -15, -8, -2, 7, 2, -5, -7, 0
1503701191278,-10, 2, 1, 4, 20, -3, -3, -1, 0
1503701191300,1, 12, 3, 0, -19, 6, -1, -1, 0
1503701191315,-15, -14, -11, -6, -6, 1, 2, 40, 0
1503701191338,-6, -4, -1, -1, 2, -1, 2, -6, 0
1503701191361,11, -2, 2, -1, -7, -24, -5, -19, 0
1503701191375,0, 0, 2, 0, 20, 1, 5, 8, 0
1503701191398,27, 32, 25, 3, -4, -1, -11, -37, 0
1503701191420,-10, -15, -14, 3, -3, -3, -4, -14, 0
1503701191435,6, -15, -5, 3, 49, 35, 7, -27, 0
1503701191466,-9, 4, -13, -11, -5, 13, 5, 6, 0
1503701191488,2, 15, 5, 10, 0, -6, 2, -3, 0
1503701191511,3, 4, 3, 8, 4, -7, -2, 5, 0
1503701191520,-8, -6, 0, -12, -27, -2, -11, 7, 0
1503701191540,-5, -2, 1, 1, -17, -8, -24, 5, 0
1503701191556,-13, 2, -7, -16, -11, -11, 6, 4, 0
1503701191578,-3, -3, -8, -4, 16, 0, 4, 2, 0
1503701191600,11, -1, 5, 14, 12, 3, 6, -4, 0
1503701191615,2, 1, 1, 0, 13, 4, -9, -2, 0
1503701191638,-4, -6, -1, -4, -11, -12, -5, -1, 0
