1503704008780,0, -2, -1, 1, 0, -2, -2, -1
1503704008789,-2, -1, -2, -2, -3, 0, 3, -2
1503704008810,1, 0, 2, 1, 1, 0, -1, 1
1503704008835,-1, -3, -2, -3, -2, 0, 1, 2
1503704008863,-4, -2, 0, 1, 0, -2, -2, -2
1503704008878,-2, -4, -2, -1, 0, 1, -1, 0
1503704008900,0, 0, -2, 0, 0, -1, 0, -3
1503704008923,0, -1, 0, -3, 0, -1, 0, 1
1503704008938,-2, -1, -2, 0, -4, 0, -2, -2
1503704008961,-1, 1, 0, 0, 0, 0, -3, -3
1503704008983,0, 0, 0, 0, -2, -1, 1, 0
1503704008998,1, -1, 2, 0, -1, -1, 1, 0
1503704009021,2, 0, 0, -2, -1, -1, 0, 1
1503704009043,-2, -2, 0, -1, -2, -4, -2, -3
1503704009059,-1, 0, -1, -2, -1, 0, 0, 0
1503704009081,1, -2, -1, -1, -2, -1, -1, -1
1503704009103,2, 1, 2, 0, -2, -2, -1, 1
1503704009118,0, 1, 0, -1, 0, -1, -1, 1
1503704009140,0, -1, 0, -1, 1, 0, -1, 0
1503704009164,-4, -4, -2, -1, -2, -1, 1, -1
1503704009178,0, 0, -3, 0, -2, 2, -1, 0
1503704009201,0, 0, 0, 0, -2, -3, 0, -3
1503704009223,-1, -1, -2, -1, 2, 2, 0, -2
1503704009247,1, -1, -1, 0, 0, -1, -2, 0
1503704009261,0, 0, -1, 0, 0, -2, -1, 1
1503704009283,-3, 0, 0, 0, -1, -1, -1, -4
1503704009299,-3, -2, -3, -1, 0, -1, -3, -4
1503704009320,0, -3, 0, -1, -1, -1, 1, 0
1503704009343,0, 1, -2, -1, 1, 0, 1, 1
1503704009367,1, -1, 2, 0, -2, 0, -2, 0
1503704009381,-1, -1, -2, -1, 1, -1, -3, -1
1503704009404,-2, -3, -2, -2, -1, 0, 0, 0
1503704009425,-3, -2, -1, -1, -2, -1, -2, -3
1503704009440,3, 0, 2, -1, -1, -2, -4, -2
1503704009471,1, -2, -1, -2, 1, -1, 1, 2
1503704009496,-3, 2, 0, 0, 0, -1, -1, -2
1503704009516,1, -2, 0, 1, 0, -1, 1, 1
1503704009531,-3, 0, 0, -1, 0, -2, -1, -2
1503704009554,-2, 0, -1, 0, -2, 0, -1, -2
1503704009576,-2, -3, -1, -2, -1, 0, -1, -4
1503704009591,2, -3, -2, -3, -1, -1, -1, 3
1503704009613,-2, -3, 1, 0, -2, 2, 0, 2
1503704009636,1, 2, 0, -2, 2, -1, -1, -1
1503704009651,-3, 0, -4, 2, -1, 0, -3, -5
1503704009680,1, 2, 0, -2, -3, 0, 0, 1
1503704009698,1, -3, -1, -3, 1, -2, 1, 0
1503704009711,-2, 1, 2, 0, 0, -1, -5, -3
1503704009734,1, -2, -1, -1, -2, -1, -1, -1
1503704009756,-1, -1, 0, 0, -1, -1, 0, 1
1503704009771,1, 3, 1, 0, -1, 0, 0, -1
1503704009793,-3, -3, 0, -2, -2, -1, 0, -1
1503704009816,-4, -1, -2, 0, 1, -1, -1, -3
1503704009832,2, -1, -1, -2, 0, 0, -1, 1
1503704009854,0, 0, 0, 0, 1, 0, 0, 1
1503704009876,-3, -2, 1, 0, -3, -1, 0, -1
1503704009891,-6, -2, -3, -1, -1, -1, -2, -4
1503704009913,-1, 0, 0, -2, -2, 0, 0, 1
1503704009937,0, -2, -1, -1, -2, 0, -1, 1
1503704009951,-3, -2, -2, 0, -1, 0, 0, 0
1503704009974,2, -1, -1, -2, -2, -1, -3, -3
1503704009996,1, -1, -1, 0, -1, 1, 1, 0
1503704010011,-2, -1, -1, -2, 1, -4, -1, -4
1503704010034,-3, -3, -1, 0, 1, 1, -1, -3
1503704010056,2, 0, -2, 0, -4, -1, -2, -2
1503704010071,1, 1, 0, 0, 0, -1, 0, 0
1503704010093,-1, 0, -1, 0, 0, -3, -2, 0
1503704010116,-3, 1, 0, -2, -3, -1, -2, -2
1503704010131,0, -4, -1, 0, -1, -4, -5, -4
1503704010154,1, -1, 2, -3, -2, -1, 1, 1
1503704010176,3, 1, -4, -1, 0, 1, 3, 2
1503704010191,-3, -2, -1, -1, 1, -1, 1, 0
1503704010213,1, 1, 1, -1, -1, -1, -3, -3
1503704010237,-2, -3, 1, -2, 0, 0, -1, -4
1503704010251,3, 0, 2, 0, -1, 0, 0, 4
1503704010274,0, 1, 0, 0, -2, 0, 1, 1
1503704010296,-4, -2, -1, -2, 0, -1, -1, -1
1503704010318,-1, -4, -3, 0, -1, -1, -1, -5
1503704010334,2, 1, -1, -1, 0, -4, -2, 1
1503704010356,2, 0, 2, 2, -1, 0, 2, -1
1503704010378,-1, 0, 0, -1, 0, 1, -1, 2
1503704010405,0, -1, -2, 0, -3, -1, 0, -1
1503704010416,0, -2, 0, -2, -2, -1, -1, -1
1503704010438,-1, -2, -1, -1, -1, 2, 2, 1
1503704010454,0, -1, 1, -1, -1, -2, -2, -1
1503704010478,-2, 1, -2, 1, 2, -4, -3, -2
1503704010498,-2, 0, -1, -1, -2, -1, -1, 0
1503704010513,0, -1, 0, -1, -3, -1, -1, 0
1503704010537,0, 0, 0, -1, 1, -1, -1, 0
1503704010558,0, -1, -2, 0, 0, 0, 0, -1
1503704010574,2, 0, -1, -2, -1, 0, 3, 5
1503704010596,-1, 0, -2, 0, -1, -1, -1, -1
1503704010618,-3, -3, -2, -1, -2, -1, 0, -5
1503704010633,-4, 1, 0, 0, 0, 0, -4, -3
1503704010656,-1, -2, 0, -1, -2, 1, -1, -2
1503704010679,0, -4, -2, -2, 0, 0, -1, -1
1503704010693,-1, 1, -2, -1, -2, -3, -1, -2
1503704010716,-1, -2, 0, -2, -1, -1, 3, 0
1503704010730,1, 1, 2, -1, -2, -1, -1, -2
1503704010746,-1, -3, -2, -1, -1, 0, -1, 0
1503704010768,-1, -2, 0, 0, -2, 0, 1, -1
1503704010783,0, -1, 0, -1, -1, -2, -1, -2
1503704010798,-4, 1, -2, -1, -2, -2, -2, -6
1503704010814,-2, 0, 0, 0, 1, -1, -3, -4
1503704010838,0, 1, 0, -1, -2, -2, -2, 0
1503704010858,1, -2, 0, 1, 0, 1, -3, -1
1503704010875,-1, 0, -3, -1, -1, -1, 2, -4
1503704010897,1, -1, 0, 1, 1, 0, 1, 0
1503704010918,-1, 1, 0, 0, -2, -1, -2, 1
1503704010934,0, -1, -1, -1, 0, 0, 1, 1
1503704010964,-1, -2, 0, -3, -1, 0, -1, -1
1503704010985,-1, -1, 0, -2, 0, 1, 0, -3
1503704011010,1, -1, 0, 0, -1, 0, -1, 4
1503704011023,-3, -3, -3, 0, 0, 0, -1, -2
1503704011045,-1, -4, -2, 0, -1, -3, 0, -1
1503704011068,0, 0, -2, 0, -1, -2, -3, -1
1503704011083,1, -1, 1, -1, -2, -2, 1, -2
1503704011107,-6, -3, -3, -1, -1, 0, 0, -7
1503704011120,1, -3, 2, 0, -2, 0, -1, -3
1503704011136,-3, -1, -1, -1, -2, -1, -1, 1
1503704011158,0, -3, 0, -2, -1, -2, -3, 0
1503704011175,0, 1, 0, -1, -1, 0, -1, -1
1503704011189,-1, -3, 0, -3, 1, -1, 0, 0
1503704011210,2, 1, 0, 1, -2, -1, 0, 2
1503704011225,-1, 0, 0, 0, 0, -2, -1, -4
1503704011248,-2, -2, -1, -1, -1, 1, 1, 1
1503704011270,0, -1, -2, 0, 0, -1, -2, -2
1503704011286,-5, -3, -1, -3, -1, 0, -3, -3
1503704011309,0, -1, 2, 1, 0, -1, -1, -3
1503704011330,2, 0, -2, 0, -1, -2, -1, 4
1503704011346,0, -1, 0, -2, -2, 0, 0, -1
1503704011368,-1, 3, -2, 1, -1, 0, -1, -1
1503704011390,1, 0, 1, -1, -2, -2, 0, 2
1503704011405,-2, -2, -1, 0, 3, 0, 1, 1
1503704011428,0, 0, 0, 0, -1, 0, -3, -1
1503704011437,-3, -1, 2, -1, -1, -2, -2, -2
1503704011458,-4, -2, -1, 0, 0, -1, -4, -2
1503704011481,-2, -2, 0, -1, -2, 0, -1, -2
1503704011496,-1, 1, -2, 1, 0, 0, -2, 0
1503704011519,1, 0, -1, -2, 0, 1, 1, 1
1503704011540,1, 0, 1, -2, -4, -2, 1, 1
1503704011556,1, -1, -1, -3, -2, -1, -1, 0
1503704011578,1, 1, 0, -1, 0, -2, 0, -2
1503704011600,-2, -2, 0, 0, -3, 0, 0, 1
1503704011616,-3, -2, -1, -2, 1, -1, 0, -1
1503704011638,-3, -2, -2, -1, 1, 0, -2, -1
1503704011660,-2, 0, -3, -1, -2, -2, 0, -4
1503704011678,0, -2, -1, 1, 0, 1, 0, 3
1503704011698,-2, 1, 0, -1, 1, -3, 1, 0
1503704011720,1, -1, 0, 0, -3, -2, -2, -1
1503704011736,-1, 0, 1, -2, 2, -1, -1, -1
1503704011758,0, -3, -1, -3, -1, 1, -1, -1
1503704011781,-1, 0, -3, 0, -1, -2, -1, -3
1503704011796,0, 0, -2, -2, -3, -1, -1, 0
1503704011818,-2, -1, -2, 0, -1, 0, -2, -4
1503704011840,1, 0, 1, 0, 0, 3, -1, 2
1503704011849,0, -1, -1, -1, -2, 1, -3, -2
1503704011871,0, -2, 0, 0, -2, -1, -3, 0
1503704011886,0, -3, -2, 0, -1, 1, 0, -1
1503704011909,-3, 1, -3, 0, 1, 0, -3, -3
1503704011930,0, -3, -2, 0, 1, -2, -1, -2
1503704011946,2, 0, 0, -2, -1, -1, 1, 1
1503704011968,-1, -1, -1, -1, 0, 0, 0, 2
1503704011990,-1, 2, 0, 0, -1, -1, 0, -1
1503704012005,1, 0, 1, 0, -1, 0, -3, -3
1503704012021,-2, 0, -1, -2, -1, 0, -2, 0
1503704012036,-3, -3, 0, -2, 1, -1, -3, -2
1503704012058,-1, -1, -2, -1, -1, -2, 1, 0
1503704012081,1, 2, 2, 1, -2, 0, -1, 1
1503704012096,1, -1, 1, 0, 0, -2, 0, 1
1503704012118,1, -1, -1, -1, 0, -1, -2, -2
1503704012140,-2, -2, -4, 0, -1, 0, 1, 0
1503704012163,-1, -1, 0, 0, -1, 1, -2, 1
1503704012178,0, 1, -1, -1, 0, -2, -3, -4
1503704012200,0, 0, -1, -3, -2, -1, 0, 0
1503704012223,-2, -1, 0, 1, 0, 1, 1, -2
1503704012239,0, -4, 2, -1, -1, 1, 0, -1
1503704012260,-4, -2, 0, 0, -1, -1, -2, -1
1503704012284,0, 0, -2, -1, -1, 0, 1, 2
1503704012298,2, -2, -1, 0, -1, -1, 1, 1
1503704012320,-2, -2, 0, -2, 0, -1, 0, -2
1503704012343,2, 3, 0, 1, -1, -1, 1, 0
1503704012358,-2, -4, -2, -1, -1, -2, -3, -3
1503704012383,0, 1, -1, -2, -1, -2, 0, -1
1503704012403,-1, 0, -1, 0, 0, -1, -1, -1
1503704012418,0, 1, 1, -1, -1, 1, -2, -2
1503704012440,-2, 0, -3, -2, -2, -3, -1, 2
1503704012463,-1, -1, -1, -1, 1, -2, -1, -1
1503704012478,1, -1, -1, -1, -2, 1, -2, 0
1503704012500,0, 1, 0, 0, 0, 0, 3, 1
1503704012523,0, -1, 0, 0, -1, 0, 0, -2
1503704012538,-2, -1, 0, 0, -2, -2, -1, -2
1503704012560,-1, -3, 0, 1, -1, -2, 0, -2
1503704012585,-3, -2, 0, -1, 0, -1, -3, -3
1503704012598,-1, -1, 0, -1, -2, 0, 1, -1
1503704012621,0, -2, -2, -1, -1, -2, -3, 1
1503704012643,0, -2, -1, -1, 0, -2, -3, -2
1503704012658,-1, 0, 1, 0, 0, -1, -1, -5
1503704012680,-3, -1, -1, -2, 1, -3, -2, -2
1503704012703,0, 1, -1, 0, -1, 2, 1, 0
1503704012719,-2, -1, 1, 0, -3, 0, -2, -3
1503704012740,-2, -1, 0, -1, -1, 0, -1, -1
1503704012763,0, -1, -1, 2, 0, 0, 1, 3
1503704012778,-2, -3, -1, -1, 1, -1, -2, -2
1503704012800,1, -2, 0, -3, -3, 0, 1, 2
1503704012823,0, 1, 1, 0, 0, -2, 0, 1
1503704012838,1, -1, -1, -1, -2, 0, 0, 0
1503704012861,0, 0, -1, -2, -1, -1, -1, -3
1503704012883,-1, 0, 0, -2, 0, -1, -2, 2
1503704012898,-1, -2, -3, -2, -1, -1, 0, -1
1503704012922,0, 2, -1, -1, 0, 1, 0, 0
1503704012943,-4, -3, -3, 0, -1, -2, 0, -6
1503704012958,-1, 0, 0, -2, 0, -3, 1, 3
1503704012980,-4, -2, -1, 2, -2, 0, -1, -4
1503704013003,-1, -2, -3, -1, -2, -2, -1, -1
1503704013020,1, 0, 1, -1, -1, -2, 0, 2
1503704013040,3, -1, 2, 0, 0, 0, 0, 0
1503704013063,-1, -2, 0, 0, -1, -1, -4, -4
1503704013085,1, 2, -1, -1, 0, -1, -1, 0
1503704013100,1, 1, -1, -1, 0, 1, 0, -1
1503704013124,-2, -1, 0, 1, -1, -1, -1, -2
1503704013145,-1, 1, -2, -2, -1, -3, -2, 1
1503704013160,-2, -2, 0, -1, -1, 1, 0, -3
1503704013183,0, -1, -2, 0, -2, 0, -2, -2
1503704013205,-1, 0, 1, 1, 0, 0, -2, -2
1503704013222,1, -2, -1, 1, -2, 0, -2, 1
1503704013243,-4, 0, -2, -3, 1, 0, 0, -1
1503704013265,0, 1, 0, 0, 0, 0, 1, 3
1503704013280,0, -3, -1, -1, -2, -2, -1, -3
1503704013303,-2, -2, 0, 0, -2, 0, 0, 0
1503704013326,2, 0, 0, -2, -1, -1, 0, -2
1503704013340,0, 0, 1, 0, -2, 0, -2, -1
1503704013363,1, 0, -2, -1, -1, 0, -3, 1
1503704013385,-1, -2, -1, -2, -3, -1, -2, -3
1503704013400,-2, -2, 0, 0, -1, -2, -1, -3
1503704013423,-2, 1, 1, 0, 2, -1, 0, -2
1503704013445,-4, -4, -3, 0, -1, 0, -2, -1
1503704013460,2, 1, -1, -2, -2, -2, 0, 1
1503704013483,-1, -1, 1, -1, 0, 1, 0, -3
1503704013505,-1, -1, -1, -1, 0, 0, -2, 1
1503704013524,-2, -1, -2, -2, -2, -1, 1, -1
1503704013543,1, -1, -2, 0, 1, 1, -2, -2
1503704013566,0, -1, 0, -1, 0, -3, 2, 6
1503704013580,1, 3, 2, -1, 1, -1, 0, -1
1503704013603,-2, -2, 0, -1, -2, 0, -1, 0
1503704013625,-1, -2, 0, -1, -1, -1, 0, -6
1503704013640,2, -2, 1, -3, 0, -1, -1, 3
1503704013663,-1, 1, -2, 1, -2, 0, 3, 0
1503704013685,-5, -3, -1, 0, 0, -2, 0, -2
1503704013693,-1, 1, 1, 0, 0, -1, 0, -2
1503704013715,-1, -2, 1, -1, -1, -1, -1, 0
1503704013730,-2, -1, 0, 1, -1, -2, -1, 0
1503704013752,-1, -3, -2, -2, 0, -2, 0, 0
1503704013775,2, 0, 1, -1, -2, -2, -1, -2
1503704013794,1, 2, 0, -3, 1, -1, 1, 1
1503704013812,-4, -3, -6, -2, -2, 0, -1, -1
1503704013835,-2, -1, 1, -1, 2, 0, 0, -2
1503704013850,-2, 1, 0, -1, 0, -1, -1, -1
1503704013872,2, -2, 0, -1, -2, 0, 4, 6
1503704013895,0, 0, -1, 1, 1, -2, 0, 0
1503704013910,-5, -2, -2, -1, -1, 0, -1, -2
1503704013932,0, -1, -1, -1, -2, 0, 0, -2
1503704013954,2, 0, -1, -2, 0, 0, 0, -2
1503704013963,-1, 0, 1, -2, -1, -1, -1, -1
1503704013985,-1, -1, -1, 0, -2, -2, 0, 2
1503704014008,-1, -1, -1, -2, 0, -2, -1, -1
1503704014023,-1, -2, -1, -1, -1, 0, -3, -4
1503704014045,-2, -2, -2, -3, -1, 1, -1, -1
1503704014068,-1, -1, -1, 0, 1, 0, -5, -1
1503704014083,0, -2, 1, 0, -2, 0, 2, 1
1503704014105,1, 0, -1, 0, -2, 0, -2, 0
1503704014129,-2, 0, -2, -2, -1, -1, 1, -1
1503704014143,-2, 0, 0, -1, -2, -1, -1, -2
1503704014165,-1, 1, 0, -3, -1, -1, -1, -3
1503704014188,-2, -4, 1, 1, -1, 0, 1, -1
1503704014203,-1, -1, 0, -1, -1, -1, -2, 0
1503704014225,-2, -2, 0, 0, 0, -2, -5, -5
1503704014248,-2, 0, -1, 0, -1, -1, 1, -2
1503704014263,2, -2, -1, -2, 0, 0, 4, 5
1503704014285,0, 0, -2, -2, 2, -2, 1, 3
1503704014308,-3, -3, -2, 1, -1, 0, -2, -1
1503704014323,1, 1, -1, 0, -2, 1, 0, -2
1503704014345,1, 1, 1, 1, 0, -2, -2, -2
1503704014368,-4, -4, -1, -1, -2, -1, -3, -2
1503704014383,1, 1, 0, 0, -1, -1, 1, 2
1503704014405,-1, 0, -1, -1, -1, 0, 0, -1
1503704014428,0, 0, 0, -2, 0, -1, -1, -1
1503704014437,-3, -1, 0, 1, -1, -2, 1, 0
1503704014458,0, 0, 1, 0, -1, 0, -1, -4
1503704014481,1, 2, -1, -2, -1, -1, 0, -2
1503704014498,-1, -1, -1, -1, 0, -3, 1, 0
1503704014505,-3, -2, -2, -1, 0, -1, -2, -3
1503704014525,1, -1, 1, 0, 0, -1, 2, -2
1503704014548,-2, 2, 0, -1, -1, -2, -2, -1
1503704014571,-1, -2, 0, 0, -1, -2, 0, -2
1503704014586,1, -1, 0, 0, 0, 1, -2, 3
1503704014608,1, 0, -2, -2, 0, -1, 1, -1
1503704014623,-1, -1, 1, -2, -5, -2, 1, -2
1503704014645,0, 1, 3, 3, -1, 0, 4, 1
1503704014668,-1, -1, 0, 24, 3, -22, -28, -3
1503704014683,-4, -2, -2, -30, -1, 8, 9, -2
1503704014705,-1, -4, -7, -2, 7, 18, 2, -1
1503704014728,-4, -3, -8, -10, -4, -4, -1, -7
1503704014743,-1, -7, -10, 6, 17, 6, 5, -3
1503704014767,0, 3, 6, -9, -11, -4, -1, 2
1503704014787,10, 0, -24, -5, -9, -5, -4, 1
1503704014805,-3, 1, 19, 12, 12, -3, 2, 1
1503704014825,-3, 10, -18, -1, -6, -3, -2, 1
1503704014848,-1, -1, 10, -4, -3, -1, -1, -1
1503704014863,-2, -8, -4, -7, -9, -3, -1, -4
1503704014885,0, 6, 13, 10, 11, 3, 2, 2
1503704014909,-4, -2, -15, -8, -2, -1, 0, -1
1503704014923,-1, -2, 2, -2, -9, -3, -2, 1
1503704014945,-2, -8, 0, -2, -2, -4, -4, -4
1503704014968,0, 6, 13, 4, -1, 0, 0, -2
1503704014990,-1, 0, 10, 0, -3, -1, 2, -1
1503704015006,3, -1, 4, 1, -5, 0, 0, 1
1503704015028,-2, -3, -2, 1, 3, 0, -4, 0
1503704015059,-4, -1, 14, -1, -8, 1, 1, -1
1503704015081,-1, -10, -12, -7, -1, -1, -3, -2
1503704015096,-1, 0, -6, -1, -4, 0, -1, -2
1503704015118,4, 17, 26, 6, -3, 1, 0, 2
1503704015141,-2, -17, -18, -1, -4, -1, -1, -2
1503704015156,-4, 6, 17, 7, 8, 4, 0, -1
1503704015178,-6, -38, -28, -12, -11, -2, -3, -1
1503704015204,-4, -2, 5, -15, -29, -8, -8, -11
1503704015216,-8, -13, -10, -23, -28, -33, -6, -21
1503704015241,29, -21, -44, 1, 82, 46, 12, 50
1503704015261,22, -29, -5, -42, -127, -31, -19, -13
1503704015276,-3, 46, -38, 49, 99, 127, 57, 22
1503704015298,2, 18, -109, 16, 117, 73, -26, -116
1503704015321,22, 32, 67, 40, 85, 15, 5, 109
1503704015338,11, 15, 6, -19, -47, -60, 4, -8
1503704015358,-16, 5, 22, -14, -58, -74, -73, -23
1503704015381,-5, 5, 33, -8, -16, -9, 67, -43
1503704015396,-26, -8, -7, -4, -50, -82, -29, -6
1503704015418,-11, 1, 4, 7, 26, 29, -1, 2
1503704015442,-1, 1, 2, -3, -18, -1, 1, 27
1503704015456,-10, 0, -3, -7, -35, -14, 5, 14
1503704015479,0, 1, 10, 8, 20, 0, -5, -22
1503704015501,-7, -2, -7, -5, -6, -17, -4, 5
1503704015516,-2, -1, 1, 1, 1, 6, -3, -2
1503704015540,-5, 0, 2, 9, 13, 4, 2, -1
1503704015561,6, 25, 16, -8, 1, 2, 11, 2
1503704015576,0, 20, -7, -4, 3, -5, -16, -8
1503704015598,-86, -8, -2, 6, -4, -3, 1, -6
1503704015621,-23, -20, 1, -7, -13, 7, 25, -3
1503704015636,40, 3, -3, -11, -13, 10, -9, 5
1503704015658,11, -20, -6, 13, 17, -3, 2, 0
1503704015681,16, -5, 29, 3, -7, 4, 12, 2
1503704015696,-11, 1, -13, -9, -8, -9, -8, -3
1503704015718,5, 28, -3, 8, 8, -2, -12, 2
1503704015741,7, 30, 5, 22, 11, -28, -8, -1
1503704015756,-7, 106, -25, -6, -4, -16, -1, 18
1503704015778,28, -128, 8, -9, -9, 7, -9, -1
1503704015801,66, 20, 7, 2, 13, 9, -4, -10
1503704015816,127, 109, 5, 7, 10, 6, 6, -4
1503704015840,-4, -62, 3, -7, -6, 4, -2, -24
1503704015861,-110, 84, 8, -1, -2, 0, -5, 18
1503704015883,-73, -102, -6, -6, -7, -4, -2, -13
1503704015898,-31, -128, 6, -3, 0, 0, 5, 16
1503704015921,-12, 26, -16, -6, 5, 0, 1, 17
1503704015943,-51, 106, 3, -4, -4, 1, 4, 0
1503704015958,-23, 72, -25, -3, -3, 0, -2, -2
1503704015981,-4, -70, -5, -4, -2, 0, -2, -1
1503704016003,3, 33, -9, -4, -4, 0, 2, 10
1503704016018,11, -106, 37, 1, -2, -1, -1, -10
1503704016042,1, 29, -10, -6, -4, -2, 1, -23
1503704016062,-1, 18, 20, 13, 7, 0, 0, -24
1503704016093,-17, 10, -3, -4, -3, 0, -1, 4
1503704016109,19, 30, 29, 1, -3, 2, 4, 11
1503704016130,-18, -23, -12, -3, 0, 0, -5, -58
1503704016153,20, -1, 23, 6, 0, -5, -1, 18
1503704016168,13, -2, -1, 1, 0, 1, 2, 8
1503704016190,-1, 6, -4, 3, 2, -2, -8, -4
1503704016214,6, -12, -16, -5, 0, 4, 2, 18
1503704016228,6, -4, -12, -3, -2, -2, 3, 29
1503704016250,30, 0, -8, -3, -3, -1, -2, 16
1503704016273,7, 19, 6, 5, 5, -5, -7, 18
1503704016288,0, -5, 2, -2, -3, 0, -1, -1
1503704016310,-12, -6, 14, 1, 1, 0, 8, -3
1503704016333,-1, -2, -2, -3, -3, -2, -4, 3
1503704016348,5, 15, 15, 3, -8, -20, -2, -10
1503704016370,-5, -2, -11, -2, 0, 1, -3, -14
1503704016393,-2, -6, -10, -2, 0, 1, 6, -10
1503704016408,-1, -12, -10, -2, 0, -1, 2, 2
1503704016430,-3, -2, -4, -3, -1, 1, -4, -5
1503704016453,-14, -10, -8, -3, 2, 5, 2, 12
1503704016468,12, -1, -13, -5, -2, 1, -1, 20
1503704016490,43, 1, -5, 2, 2, 0, 3, 73
1503704016513,10, 15, 10, 0, 1, 7, -5, -13
1503704016528,-18, 3, 5, 1, 0, 1, -1, -23
1503704016550,3, 10, -3, -2, -2, 0, 2, -9
1503704016573,-16, -20, -6, 1, -1, -1, -2, -1
1503704016588,-12, -16, -12, -6, -2, -1, -1, -24
1503704016613,-29, -8, 3, -2, -4, -3, 0, -21
1503704016633,11, 14, 7, 0, 0, -1, -1, -1
1503704016649,9, 32, 27, 3, 0, -1, -4, -12
1503704016672,7, -8, -19, -2, 1, 0, 2, -3
1503704016693,2, -6, -8, -5, -1, -2, -7, -32
1503704016701,-22, 1, 1, -4, -4, -2, -2, -3
1503704016723,-3, -8, -6, -5, -3, 0, -2, -2
1503704016738,0, 2, -4, -1, -2, -2, 0, 15
1503704016761,8, 8, 10, 3, 2, 2, 0, 4
1503704016783,14, 41, 30, 12, 6, -1, -6, 8
1503704016805,-2, -13, -1, 3, 1, 1, 2, -13
1503704016821,1, -5, -6, -3, -4, -2, 3, 15
1503704016843,4, 6, -1, 2, 0, -4, -4, -13
1503704016865,-5, -7, -3, -5, -3, -1, -3, -7
1503704016882,-6, -14, -7, 0, -1, 0, 0, -8
1503704016902,1, 10, 19, 1, -2, -1, 1, 8
1503704016925,3, -13, -9, -4, -1, -1, 0, 20
1503704016941,8, 6, 2, 3, 3, 3, 5, 13
1503704016963,1, -3, -5, 0, 1, 0, -2, 3
1503704016985,3, 5, -11, -4, -3, 0, 0, 4
1503704017001,-6, -22, -14, 2, 2, 0, -3, -12
1503704017023,-5, -2, 18, 0, 0, 1, 2, 12
1503704017045,1, -11, -7, -3, -2, -6, -2, -23
1503704017060,-8, -6, 1, 1, 1, 0, -6, -55
1503704017074,-1, -11, -18, -9, -3, 1, 0, 13
1503704017091,11, -19, -4, 3, 1, -2, -6, -23
1503704017112,-1, -9, -8, -2, -3, 1, -3, -1
1503704017134,-6, 11, 7, 4, 3, 0, -2, -30
1503704017150,-2, 20, 12, -5, -2, -1, -3, -1
1503704017172,9, 2, -9, -1, 0, -3, -2, 18
1503704017195,8, -23, -11, -2, -2, -2, 3, -30
1503704017210,2, -15, -2, -4, -4, -3, 0, -11
1503704017233,-8, -11, -9, -1, 4, 0, -2, 17
1503704017255,9, -6, -5, -7, -7, 0, -3, 1
1503704017263,4, -12, -3, 11, 8, -3, -7, 24
1503704017286,7, -16, -11, -1, -2, 0, -1, 13
1503704017301,1, -18, -4, -4, -7, -3, -4, -71
1503704017330,12, 2, 19, 7, 2, 2, 1, -25
1503704017345,12, 12, -3, -5, 2, 0, -2, 23
1503704017361,15, 10, -1, -13, -10, 0, 11, -123
1503704017387,-1, -6, -39, -9, -11, 1, 0, -18
1503704017414,-3, -18, -121, -5, -4, 3, 1, 14
1503704017435,-4, 36, 127, -5, -3, -2, -2, -32
1503704017455,-11, -55, 71, -22, -33, -3, -5, 54
1503704017472,-27, -113, 23, -3, -120, -1, -7, 46
1503704017495,5, -6, 11, -12, -36, 13, 6, 92
1503704017510,-9, 127, 6, -10, 98, 50, -4, -69
1503704017526,20, 117, -3, -17, 77, 91, 7, -39
1503704017541,-88, -128, 0, -23, 29, 43, 5, 34
1503704017562,-98, -110, 0, 11, 7, -16, -19, 5
1503704017586,41, -38, 1, -2, 2, -85, 7, -52
1503704017601,29, 127, -1, 0, 2, -39, -9, -118
1503704017623,10, -103, -1, 0, 1, -36, -11, -11
1503704017645,9, -107, -1, 24, -2, -18, 9, -55
1503704017661,19, 67, 0, -1, -1, -6, 21, 54
1503704017682,30, 64, 0, -7, -1, -1, -1, 73
1503704017712,6, 39, -1, -1, -1, -3, -10, -12
1503704017722,-16, 38, -1, 3, 0, 9, -6, 47
1503704017743,-19, 2, 0, -8, 24, 13, -4, -59
1503704017765,1, -1, -1, 8, 37, 2, -4, -8
1503704017788,8, -11, 0, -12, 1, 2, 8, 42
1503704017802,-5, -10, 0, 1, -3, 5, 1, -5
1503704017825,13, 35, 0, 18, 20, 3, -10, -3
1503704017848,0, 17, -1, -3, -13, 1, 6, -43
1503704017863,0, -3, 0, -2, -13, 0, 2, -18
1503704017885,-5, -15, -1, -4, -15, -2, -3, 72
1503704017908,4, -7, -1, -2, -44, -1, -5, -10
1503704017923,-3, -12, 0, -4, -12, -2, 6, 31
1503704017945,1, 0, -1, -1, 10, -2, 4, -40
1503704017967,-1, -6, 0, -3, 5, -30, 8, -5
1503704017982,-1, 1, -1, -9, -5, 13, 6, 56
1503704017997,0, -7, 17, -1, 14, 11, 3, 77
1503704018013,-11, -13, 1, 2, -3, 3, 15, 8
1503704018034,-1, -6, -5, -7, -8, 0, -7, 14
1503704018057,-1, 2, -7, -9, 3, -1, -11, -16
1503704018073,1, 0, -3, -8, 5, -1, -6, -50
1503704018094,-3, -8, -13, -1, 5, -2, -3, -12
1503704018103,6, -2, -7, 5, 6, 1, -2, -25
1503704018126,-22, -15, -18, -9, -9, 1, 1, 60
1503704018147,-2, -4, -5, -2, -3, -3, -2, 43
1503704018158,11, 2, 6, 2, -2, 0, 4, 10
1503704018177,41, 0, 3, 4, -4, -2, -2, -115
1503704018193,17, -2, -2, -5, -2, 1, -1, 52
1503704018214,12, 3, 4, 0, -5, -3, 2, 16
1503704018237,11, -7, -7, -8, -3, -1, -2, -85
1503704018253,3, -4, -4, -2, 2, -2, -3, 60
1503704018274,0, 3, -5, -3, -8, 1, -4, 45
1503704018297,-17, -8, 3, 4, -4, -2, -1, 10
1503704018312,-10, 5, -5, -2, -5, 1, -1, 28
1503704018334,-2, -8, -7, 0, -2, 0, -1, -3
1503704018342,9, 16, -8, -10, -5, -2, 0, -6
1503704018366,-22, -14, -3, 1, -2, -1, -2, -7
1503704018388,12, 17, -1, 0, -2, -4, 1, -4
1503704018403,6, -22, 0, 4, 5, 2, 3, -24
1503704018426,12, 15, 4, 2, -3, 0, -2, 2
1503704018447,2, 20, 34, 11, 4, 2, 2, -4
1503704018455,13, -2, 7, 1, -1, 0, -1, 21
1503704018477,6, 9, -2, -7, -2, 1, 0, 10
1503704018493,10, 7, 4, 4, -1, 0, -3, -4
1503704018508,5, 6, 1, 0, 0, 1, -3, -5
1503704018523,-3, -2, 0, 1, 1, 1, 0, -8
1503704018545,4, -1, -4, -1, 0, -1, 1, -2
1503704018568,-10, -20, -3, 4, 4, 0, 0, -4
1503704018583,-11, 2, -5, -5, -5, -1, -1, -2
1503704018605,0, 3, 0, -2, -2, 1, 1, -9
1503704018635,2, 2, 11, -3, -14, -4, 3, 6
1503704018643,0, 8, 0, 0, 4, -1, -1, -7
1503704018665,0, 12, 19, 0, -3, 1, 1, -5
1503704018688,-33, -10, -6, 3, 2, -1, -4, 0
1503704018710,-2, -1, -4, 1, 1, -1, -3, -10
1503704018727,28, 8, -6, 1, 1, -6, 1, 97
1503704018747,13, 9, 6, 1, 4, 7, -2, -67
1503704018755,21, 15, 2, 0, -2, -2, 0, 9
1503704018777,-15, -21, 1, 1, -3, 2, 1, 37
1503704018799,-79, -16, -4, 0, -1, -4, -2, -18
1503704018815,14, -1, -7, -4, 0, 0, 4, -30
1503704018837,8, 1, 1, -1, 2, -2, -1, 4
1503704018867,8, 5, -1, 2, 1, -1, -2, 11
1503704018875,7, 1, -1, -1, 1, -1, -2, -1
1503704018897,21, 3, -5, -3, -8, -2, -1, 15
1503704018919,-5, -21, -9, -6, -1, 1, -1, -70
1503704018935,-4, -7, -4, -3, -1, -3, -14, 32
1503704018957,15, 1, 13, 3, -2, -1, 0, -34
1503704018979,-5, 4, -4, 1, -1, -2, 0, -11
1503704018996,-10, -16, -10, -4, 0, 1, 3, 7
1503704019017,1, 6, 1, 3, 2, 1, 2, 15
1503704019039,4, 7, 6, 2, 0, 0, 2, 9
1503704019055,1, 2, -3, -1, -2, -2, 1, -3
1503704019077,-2, -4, -1, -3, 3, -2, -1, 9
1503704019099,-26, -3, 12, 4, -1, 1, 1, -3
1503704019108,10, -5, -28, -12, -6, -2, -1, 2
1503704019130,10, 18, 7, 2, -2, -3, -4, -4
1503704019145,0, -9, -3, -1, 2, 0, 2, 0
1503704019168,-18, -18, -11, -8, -1, -2, -3, -5
1503704019190,5, -5, 0, 0, -2, -1, 1, -9
1503704019206,11, 46, 38, 14, 5, 2, 2, 10
1503704019227,-19, -22, -11, -6, -4, 0, 2, -11
1503704019250,-5, 0, 1, 3, 2, -2, -3, -6
1503704019265,10, -3, -3, -3, -2, 0, 3, 11
1503704019287,16, -7, -4, -4, -4, -1, 1, 8
1503704019310,2, 5, 1, -3, -1, -4, 4, -3
1503704019325,0, -4, -5, -3, -3, -1, 2, 30
1503704019347,-1, -5, 8, 7, 4, 3, -5, 51
1503704019370,-5, 9, -4, -4, -1, -2, -6, -126
1503704019386,-35, -4, -1, 3, 1, -2, -6, -13
1503704019409,16, -13, -6, -1, -2, -1, 0, 29
1503704019433,5, 5, 6, 1, -1, -3, -6, -67
1503704019445,-7, -27, -26, -12, -5, 2, 1, 7
1503704019468,-14, -22, -17, -3, -2, -4, -3, 21
1503704019490,-2, 7, -4, -7, -4, -2, 1, 23
1503704019505,5, -18, -12, -2, 2, -1, -3, -29
1503704019527,21, 10, -8, -2, 3, 3, 5, 71
1503704019550,8, -1, 4, 12, 3, -1, -2, 122
1503704019568,-36, 10, 15, 0, 0, 3, -4, -82
1503704019588,3, 5, 7, 0, 0, 0, 2, -20
1503704019610,3, 7, 4, 1, 0, -1, 0, -9
1503704019637,0, 7, 5, -4, -2, 0, -1, -7
1503704019647,9, -2, -18, -2, 7, 0, -3, 7
1503704019671,10, 1, 0, -4, -4, -1, 3, -19
1503704019692,-12, -1, 4, 1, 0, -2, -1, 81
1503704019708,6, -2, 5, -6, -79, -66, 4, -46
1503704019730,-5, 0, 5, 10, 50, 20, -7, -13
1503704019752,0, 4, 6, -1, -16, -1, 3, 54
1503704019768,-6, -5, 4, -1, 10, 15, 0, -93
1503704019790,26, 21, 42, 10, 10, 9, 2, -34
1503704019813,-14, 12, -14, -11, 5, 6, -2, 6
1503704019827,-53, -7, 0, 2, 3, 1, -8, -34
1503704019850,12, -13, -8, -4, -2, -2, 0, -5
1503704019873,12, -4, 5, 1, 2, 2, -1, 41
1503704019887,6, -11, -19, -7, -1, 1, 1, 15
1503704019911,-2, -8, -4, 2, 4, 15, -6, -11
1503704019932,7, -5, -4, -1, -5, -6, -1, 5
1503704019949,-9, -4, -5, -3, -2, 0, 1, 25
1503704019971,-1, 1, 1, -1, 3, 1, 1, 63
1503704019992,4, 4, 2, -1, -21, -14, -3, -44
1503704020003,29, -5, -5, -1, 3, 10, -5, -92
1503704020023,7, 7, 5, -1, 0, -3, 0, 69
1503704020038,-6, -15, -9, -5, -7, 1, 2, -16
1503704020061,4, 0, -15, 0, 5, 5, 0, 7
1503704020083,2, -15, -24, -5, -1, 1, -3, -18
1503704020098,-34, -9, 0, -5, -2, 3, -1, -21
1503704020121,28, 9, 8, 9, 6, -5, -2, -9
1503704020143,5, 5, -1, -8, -8, 0, 1, 16
1503704020158,-3, 3, 7, 5, 2, 2, 1, 19
1503704020180,-5, -7, 12, -1, -2, 4, 3, -25
1503704020204,-9, -2, 0, 2, -1, 1, 0, -10
1503704020218,-3, -16, -3, -5, -2, 0, 0, 28
1503704020241,-4, -9, -5, -1, 0, 8, -2, 42
1503704020263,10, 3, 0, -1, -13, -19, -4, -33
1503704020278,-8, 9, 0, -2, 5, 27, 2, 16
1503704020300,-9, 3, 2, 7, -15, -10, 20, -6
1503704020323,6, 4, 4, 3, 0, -10, 2, 7
1503704020339,-10, -16, -15, -6, 11, 26, -9, -32
1503704020360,-18, -20, -5, 0, 4, -7, -7, 3
1503704020383,38, 29, 4, -6, 0, -6, -6, -17
1503704020398,15, 0, 0, -3, 0, -7, -6, -36
1503704020421,-4, -3, 4, 0, 1, -4, 1, 9
1503704020443,-7, -9, 15, -4, -5, -4, -2, 22
1503704020458,14, 20, 5, 2, 1, 0, 3, 26
1503704020474,4, -8, -6, -7, -8, -5, -2, -4
1503704020487,11, 12, 8, 1, -2, -13, 1, -5
1503704020510,3, -1, 5, 11, 34, 29, -1, 14
1503704020532,4, -1, -3, -9, -18, 31, 23, 27
1503704020555,-3, -7, -1, -9, -15, -9, -22, 1
1503704020570,1, 2, -2, 6, 6, -15, 9, 44
1503704020592,8, 1, -6, 0, 1, -8, -2, -41
1503704020615,-12, -18, -12, -5, -4, -2, 1, -23
1503704020630,-12, 21, 24, 13, 7, -7, -7, -7
1503704020652,-11, -30, -10, -10, -12, -11, -3, -56
1503704020675,4, 7, 5, -3, -1, -4, 3, 106
1503704020690,11, -6, -13, -2, 3, 1, -4, -17
1503704020712,9, 15, 15, 15, 4, -2, -3, -33
1503704020735,9, 3, 0, -3, -5, -5, 1, 9
1503704020750,10, 4, 1, -1, -5, -2, -2, -2
1503704020774,1, -8, 1, 2, 3, 5, 0, -13
1503704020780,0, 9, 4, 4, 3, -9, -4, -34
1503704020803,-4, -2, -4, -1, -1, -2, 2, 11
1503704020825,-5, -2, -10, -9, -7, 8, -2, -5
1503704020848,-46, -35, -6, 1, 1, 2, 0, -17
1503704020863,61, 13, 7, 0, -3, 1, -7, -2
1503704020885,0, -20, -2, 1, 3, 1, -4, 14
1503704020900,0, 10, 1, 3, 1, -2, -2, -4
1503704020923,1, 15, 12, 4, 1, 3, 1, 9
1503704020945,8, 13, 0, -2, -5, -1, 6, 14
1503704020960,-10, 1, -1, -2, 1, 11, 4, -3
1503704020983,15, 4, -6, -4, 1, 0, -2, 4
1503704021005,-10, 4, 6, 3, -3, -4, -7, 1
1503704021020,-2, -4, 11, 0, -2, -2, -3, -33
1503704021044,-12, -6, -2, -2, -1, -3, 7, 30
1503704021065,27, 10, 3, 0, 0, -1, -7, -24
1503704021080,17, 8, 5, 1, -2, -1, 12, 59
1503704021103,-28, -2, 3, -3, 0, 3, -5, -48
1503704021125,4, -1, 10, 0, 0, -3, -3, -18
1503704021140,-1, -8, -13, -4, -6, -5, 8, 6
1503704021163,-11, -5, -7, -4, 0, 2, -3, 13
1503704021192,-12, 8, -1, 0, 2, -1, -8, -39
1503704021200,10, -7, -5, -1, 2, -4, -1, 9
1503704021223,-13, -6, -11, -3, -3, -4, 0, 4
1503704021245,-6, 4, 4, 0, 2, 3, -2, -14
1503704021260,-28, -5, -3, -2, -4, 0, 5, -10
1503704021283,21, 5, -1, -2, -3, 30, -2, -3
1503704021305,-2, -2, 5, 4, -5, -8, 8, 37
1503704021320,-3, -10, -12, -6, 1, -5, -2, -9
1503704021345,-29, 2, 23, 6, 5, -6, -6, 26
1503704021365,-48, -32, -11, -1, 0, -5, -5, -28
1503704021381,25, -4, -10, -5, -1, -6, -10, -4
1503704021403,2, -3, -4, -5, -4, -3, 3, -4
1503704021425,5, -1, -4, -3, -4, -5, -13, -16
1503704021440,19, 14, 7, 2, 1, 2, 8, 9
1503704021463,33, 16, 4, -2, -1, -1, -3, -5
1503704021486,12, 2, -7, -2, -7, -12, 5, 4
1503704021507,-7, -6, -1, 3, -14, 8, 6, 2
1503704021524,-1, 6, -1, 1, 14, 11, -3, -8
1503704021546,-14, -25, -24, -8, -6, -10, -10, 2
1503704021567,-54, -25, 2, -1, -2, -6, -6, -12
1503704021583,14, 28, 6, -1, 1, 1, 4, 2
1503704021605,17, 17, 13, 10, 10, 1, 5, -26
1503704021627,4, 7, 2, -2, 3, 2, 1, 8
1503704021643,22, 14, 2, -1, -2, -2, 5, 49
1503704021665,-10, 7, -1, -1, -4, -2, -3, -18
1503704021688,-25, -10, -4, -2, -3, -1, -3, 17
1503704021703,16, 6, 2, 6, 4, 0, 7, 31
1503704021725,1, -10, 3, 1, 1, -3, 1, -6
1503704021748,2, -12, -16, -3, -1, -2, 2, 97
1503704021763,8, -24, -6, -3, -4, -2, -4, -91
1503704021785,3, -1, 1, -2, -1, -2, -5, -44
1503704021807,-5, 5, -1, -1, -3, 0, -5, -2
1503704021824,3, 4, -18, -4, 0, -5, -6, 1
1503704021845,9, 48, 36, 10, 5, 5, 5, 9
1503704021867,4, -24, -3, -4, 0, 1, 0, 6
1503704021891,-7, -8, 4, 3, 1, 0, -3, -14
1503704021906,7, -3, -7, -8, -5, -4, 1, 3
1503704021927,-2, -1, -1, 0, 0, -1, -4, -10
1503704021943,-4, 9, 4, -4, -2, -1, 3, 25
1503704021965,-4, -1, -2, -1, -1, 3, 4, -5
1503704021988,2, -5, -2, -4, -3, -2, 0, 14
1503704022003,-20, -1, 1, 1, -3, -2, -2, -23
1503704022026,1, -1, -4, 0, 2, 0, -3, 40
1503704022048,8, 33, 14, 2, -1, -2, -6, -50
1503704022063,2, -10, -13, -9, -3, -2, 4, 23
1503704022078,6, 3, 5, 4, -3, -3, -3, 9
1503704022094,-3, -10, -2, -3, -1, 1, -3, 7
1503704022117,-14, -11, 7, -1, -1, 2, 0, -39
1503704022137,-10, -9, -3, 2, 2, -1, -2, -7
1503704022153,-3, 14, 8, 4, 12, -1, 0, -11
1503704022175,-6, 5, 3, -11, -7, -3, -9, -41
1503704022198,3, -17, -10, -6, -8, -3, 0, -4
1503704022212,-12, -34, -14, -6, -6, 0, 0, -30
1503704022235,-7, 11, 13, 13, 7, 0, -10, -39
1503704022258,8, 6, 2, 6, 13, -2, -3, 1
1503704022272,10, -11, -9, -2, -8, -1, 4, 9
1503704022295,21, 19, 13, 16, 22, 0, -5, -27
1503704022320,29, 3, 2, 10, 0, 3, 3, 13
1503704022332,42, 5, -9, -15, -16, 2, 15, 77
1503704022356,-5, -8, -8, -18, -19, 0, -4, -17
1503704022377,-28, -5, 2, 8, 1, -1, 3, 49
1503704022399,-38, 26, -15, -10, -6, -6, -5, -17
1503704022415,-35, 7, -7, -2, -7, -6, -11, -14
1503704022437,-7, -5, 8, -1, -10, 1, -33, 41
1503704022459,-17, -42, -8, 1, 4, 0, 14, -16
1503704022482,-1, -3, -2, -2, 5, 1, 14, 0
1503704022504,10, 13, 14, 8, 14, -1, -4, -27
1503704022521,-1, 3, -1, 2, 7, 2, 1, -28
1503704022527,7, 31, 13, 18, 24, 1, -8, -21
1503704022550,5, -3, 1, 4, 10, 0, 0, -3
1503704022565,6, -2, -6, -7, -4, -5, -1, 5
1503704022592,1, -9, -8, -7, -3, 0, 17, 40
1503704022610,-1, -6, -4, -6, -4, -2, -7, -22
1503704022626,1, -1, -2, -1, -2, 1, -2, -4
1503704022647,0, -6, 5, 0, -1, -3, -14, 7
1503704022670,2, 1, 0, -6, -11, 2, -3, -2
1503704022686,-2, -1, -6, -5, -17, 0, 2, 20
1503704022707,0, -4, 1, 3, 13, 0, -1, -42
1503704022730,4, 1, 4, -5, 12, -6, -2, 102
1503704022746,1, 18, 10, 2, -2, 3, -3, 10
1503704022767,-3, -15, -2, 1, 1, -3, 1, -117
1503704022790,-8, 10, 3, 0, -3, -2, -2, -73
1503704022805,-30, -16, -10, 0, -1, 1, 2, -55
1503704022828,8, 1, -7, -2, -5, 0, 6, 60
1503704022850,-40, -15, -7, -3, 0, -4, -5, -11
1503704022865,16, 16, 0, -1, -4, 0, 0, 45
1503704022892,16, -3, -1, -3, -5, -3, -4, 7
1503704022910,6, 0, 4, 5, 0, 0, -9, -31
1503704022926,12, -5, -4, -3, -1, 0, 4, -2
1503704022947,7, -6, -2, -2, -3, 1, 0, -6
1503704022970,1, 15, 15, 3, 0, 3, 3, 11
1503704022985,-21, -13, -8, -1, -1, -2, -1, -2
1503704023007,8, 1, 0, -2, -4, -1, 1, 22
1503704023030,10, -2, -6, -3, -2, 0, -1, -18
1503704023046,4, 17, 21, 4, 1, -2, -5, -23
1503704023067,1, -2, 6, 3, 0, 1, 4, 29
1503704023091,1, 0, -4, 3, 0, 1, -4, -4
1503704023105,-5, -8, -7, -6, -1, -2, -1, 3
1503704023127,-3, -6, -5, -2, 2, 4, -3, -7
1503704023150,4, 2, -4, -2, -1, 0, 2, -2
1503704023166,15, 6, 0, 6, 4, -1, -13, -2
1503704023187,9, 10, 1, 1, -1, 2, 3, -4
1503704023210,-8, -7, -2, 0, -2, -2, 1, 10
1503704023225,3, 20, 10, 3, 1, -10, -2, -3
1503704023254,-21, -23, -21, -10, -3, -1, 0, -6
1503704023270,3, 4, -4, 0, -1, 1, 1, -10
1503704023285,22, -3, 4, -3, -2, -1, 4, 14
1503704023307,-17, 15, 19, 1, 0, 2, -2, -2
1503704023330,-1, -13, -9, -2, -3, -10, -3, 5
1503704023352,-6, -13, -8, -4, -1, -1, -3, -18
1503704023368,-6, -4, -3, -3, 13, 22, 1, -4
1503704023390,0, -5, -3, -2, -7, -20, -1, 9
1503704023412,-4, -2, -6, -4, 8, 27, -3, 2
1503704023427,-3, -12, -16, -1, -14, -9, 1, 15
1503704023450,5, 12, 15, 3, 1, -6, -1, -32
1503704023472,-36, 6, 5, 1, -3, -4, -3, -23
1503704023487,71, 10, -7, -7, 1, 0, 2, 4
1503704023510,-10, -12, -1, 2, -2, -7, -2, 1
1503704023532,-9, -2, 7, 2, -3, 2, 1, 2
1503704023547,-3, -9, -10, 2, -1, 0, -1, 6
1503704023570,-5, -5, 2, -1, -4, -1, -1, 3
1503704023594,-5, -3, 1, -3, 0, 14, 1, -3
1503704023607,-6, 2, -1, -3, -2, -7, -6, 13
1503704023630,-2, -4, -1, -1, -1, -5, 0, -6
1503704023652,3, 6, -13, -3, -3, -1, -2, -1
1503704023667,-1, -3, -5, -2, 1, -6, -4, 4
1503704023690,-4, -2, 5, 4, 1, -2, 2, 2
1503704023712,21, -4, 0, 0, 6, -6, -9, 10
1503704023728,5, 11, 8, 0, -2, 2, 6, 2
1503704023750,2, 6, 7, -2, -3, 2, 2, 1
1503704023772,-13, 14, -8, -7, -4, -3, -3, -2
1503704023788,0, -16, -2, 1, -2, -2, 1, -14
1503704023810,-4, -12, -4, 4, -1, 3, 1, -8
1503704023833,-16, -1, 10, 7, 3, 0, 1, -8
1503704023847,18, -4, -4, -4, -1, -2, 0, -16
1503704023870,-13, -20, -2, -4, -3, -2, -1, 1
1503704023892,-6, -4, -2, 1, -1, 2, 2, 12
1503704023909,3, 4, -1, -3, -4, 1, 2, 6
1503704023932,-3, 5, 0, -1, 4, 1, 1, 12
1503704023953,-6, -3, -7, -1, 11, 36, 1, 3
1503704023967,-5, 0, 3, 2, -17, -5, -9, -8
1503704023990,11, -3, -5, -7, -7, -11, -3, -2
1503704024012,-5, 13, 34, 13, 12, -4, -2, 2
1503704024027,-5, 13, 28, 8, 4, -7, -4, -24
1503704024050,30, 5, -5, -1, -2, -8, 7, 8
1503704024073,-33, -15, -19, -7, -8, -6, -3, 1
1503704024087,-12, 7, -9, -4, 1, 0, 1, 9
1503704024110,-9, 15, 2, -2, -2, -2, -2, 10
1503704024132,-3, -21, -16, -3, -1, -3, -6, -3
1503704024147,6, -4, -7, -1, 0, -3, -1, -19
1503704024171,-2, -1, -5, -1, -14, 12, -1, 2
1503704024192,6, 5, 8, 13, 8, -22, 2, 4
1503704024207,-1, -7, 2, 2, 7, 13, 5, 0
1503704024232,5, -5, -7, -7, -11, -10, -1, 14
1503704024252,-12, -5, -3, -4, 10, 9, -8, -24
1503704024275,7, -13, -2, -1, 1, -1, -2, 6
1503704024290,8, 1, -1, -6, -10, -3, 1, 2
1503704024312,3, -5, -7, -2, -3, -4, 0, 38
1503704024335,-3, 15, -4, -4, -1, -3, -2, -12
1503704024350,-15, -13, 4, -2, 1, 2, -2, 11
1503704024372,14, 42, 45, 11, 3, 1, -2, -27
1503704024395,-15, 13, -1, -3, -5, -2, -13, -13
1503704024410,-2, -43, -24, -3, 0, 0, 7, -8
1503704024433,-4, -9, -10, -3, -2, 0, 12, 97
1503704024455,5, -6, -6, 0, 4, 2, 2, -8
1503704024470,10, -2, -4, -3, -4, -2, -7, -20
1503704024492,-5, 2, -3, 1, 5, -2, 1, -43
1503704024515,0, 5, 1, 0, -2, -9, 0, 7
1503704024530,-1, 0, 0, 7, 4, -1, 1, -14
1503704024552,9, -6, -2, -5, -5, -3, 2, 16
1503704024575,18, -3, -4, -4, 6, 4, -8, 3
1503704024589,-19, 0, 23, 11, -3, 4, -3, -11
1503704024607,37, -13, -17, -4, 10, 3, -7, -15
1503704024620,-27, 6, 3, 1, 11, 1, -1, -38
1503704024643,-35, 12, 4, 3, 2, -8, -6, -31
1503704024665,-20, 7, 3, -4, -1, 2, -1, 1
1503704024680,3, 4, 5, 1, -7, -24, -2, -4
1503704024703,-14, 9, 8, -1, -16, -35, -8, -5
1503704024711,-15, -1, -8, -6, -20, -1, -9, 53
1503704024732,-22, 5, -6, -1, -1, 5, -1, -27
1503704024755,-6, 9, -15, -4, -4, -9, -6, -31
1503704024770,11, -28, 15, 5, -10, -6, 5, 14
1503704024792,-8, 19, -1, -5, -14, -3, -8, -58
1503704024815,-17, -24, -6, -2, 0, 1, -3, 16
1503704024830,11, 11, 3, 2, 14, 5, 7, -13
1503704024852,12, 3, 8, 0, -4, 3, 0, -8
1503704024875,-3, 0, -1, -1, 8, 3, -2, 6
1503704024890,0, 4, -3, -3, -6, -8, -8, 7
1503704024928,43, -12, -7, -2, -4, -10, -1, -14
1503704024943,-4, 17, 6, -1, -1, -2, 0, 35
1503704024965,3, -20, -7, -4, -1, -2, -1, -14
1503704024988,15, -6, -3, -1, -1, -3, -3, 5
1503704025005,-15, -9, -9, 0, 3, -2, -25, -48
1503704025025,-1, 62, 22, 6, 6, 4, 7, 16
1503704025048,7, 0, 10, 3, 1, 0, 5, 16
1503704025073,-3, -34, -22, -4, -3, -3, -4, -24
1503704025092,-2, -24, -17, -1, -1, -2, -1, 27
1503704025115,0, 16, 4, -1, -4, -3, -4, 5
1503704025130,11, 14, 6, 0, 2, 0, 4, 10
1503704025152,-1, 14, 17, 7, 0, 1, -3, 1
1503704025175,-21, -8, 1, 1, 3, -1, -2, -10
1503704025197,1, 4, -14, -8, -5, -3, 0, -41
1503704025212,-3, 2, -1, 5, -1, -3, 0, -2
1503704025235,-9, -16, -4, -5, -5, -3, -2, -17
1503704025257,-1, 11, 3, 1, 1, -1, -5, -1
1503704025274,1, -4, -5, -10, -4, -1, 0, 11
1503704025295,12, 43, 11, 2, 2, 0, 2, 28
1503704025317,2, -25, -7, -2, -2, 1, -4, -25
1503704025332,-2, 27, 12, 4, 1, 0, 1, 19
1503704025355,25, -1, 9, 7, 5, -2, 0, -30
1503704025378,0, -16, -7, -5, -4, -1, -2, 42
1503704025392,1, -2, -15, -9, -8, -1, 0, 33
1503704025415,-13, -10, -6, -7, 0, 3, 5, -11
1503704025437,1, 9, -1, -1, -2, -1, 0, -6
1503704025452,-9, -15, -7, 3, 8, -1, 1, -6
1503704025475,-7, -7, 6, -1, -4, 0, -4, -33
1503704025497,7, 8, 11, 13, 7, -1, -2, -6
1503704025512,6, -4, 4, -5, -1, -2, -3, 24
1503704025535,-4, -6, 1, -8, -13, -2, 2, 13
1503704025557,-6, -10, -6, -3, -7, 1, -1, -3
1503704025574,1, -3, -2, -2, 11, 2, -6, -66
1503704025595,3, 16, 19, 13, 8, 1, -2, 11
1503704025617,6, 15, 1, -5, -5, -3, -6, -25
1503704025642,-13, -5, -10, -4, 9, 1, 3, 16
1503704025655,-7, -9, -3, 5, 3, -2, -2, -23
1503704025677,20, 67, 37, 11, 11, 3, -5, -9
1503704025692,-8, -9, -15, -19, -24, -3, -15, 49
1503704025715,-14, -28, -21, -10, -11, -2, 8, 12
1503704025737,-6, -28, -10, -2, -11, -6, 10, 43
1503704025760,13, 1, 0, 3, 0, -1, 4, 52
1503704025776,12, 18, 14, 9, 5, 5, 1, 16
1503704025784,-5, -12, -7, -9, -7, -3, 2, -12
1503704025805,-4, 5, 8, 0, 5, 0, -1, -16
1503704025828,0, 7, -6, -8, 0, 1, -4, -5
1503704025845,-6, -6, 0, 2, 4, -3, -5, -13
1503704025866,-10, -12, 0, -1, 5, -3, -5, -34
1503704025888,0, -5, -4, -2, -5, 0, 4, 2
1503704025903,-3, -6, -4, -4, -6, 0, 3, 10
1503704025925,-2, -8, -4, 1, -4, -2, -5, 28
1503704025948,-4, 7, 4, 5, 1, -4, -7, -15
1503704025970,0, -2, 6, 10, 8, -2, -3, -14
1503704025986,0, -2, -2, 3, -5, -5, -2, -7
1503704026008,0, -2, -3, -1, -8, 0, 1, 5
1503704026029,0, -3, -3, -10, -17, 2, 1, 43
1503704026045,4, -1, -1, 1, -7, 1, -1, -28
1503704026068,-12, -4, -3, -6, 5, -2, 2, -54
1503704026083,-7, -5, -2, -1, 9, 0, 0, 113
1503704026105,-4, -2, -1, -1, -4, 0, -1, -116
1503704026127,11, 0, 0, 4, 0, -3, -1, -72
1503704026134,18, 6, 0, -2, 4, 2, -1, -55
1503704026157,-7, 16, 6, -2, -1, 0, 0, -10
1503704026180,-29, -6, 5, 2, -2, 0, -1, -16
1503704026195,2, 6, -2, -5, -4, -1, -2, -31
1503704026217,16, 8, -3, 2, 1, 0, -3, -8
1503704026240,-7, -7, -5, 3, 2, -3, -1, 1
1503704026255,-20, -10, -4, -5, -6, -2, -2, -2
1503704026277,-39, -13, -2, -3, -1, -2, -4, -16
1503704026300,-15, -13, -3, -1, 0, -1, 0, -14
1503704026316,16, 8, 3, 3, 0, -1, -2, 0
1503704026337,13, -2, -3, -3, -2, -1, 4, 4
1503704026360,5, -6, -3, -1, -1, 0, 2, -7
1503704026375,24, 31, 8, 3, 1, -2, -2, -2
1503704026397,-21, -18, -8, 3, 2, -1, -3, 0
1503704026420,3, -2, 2, -1, 25, 24, 0, -6
1503704026435,-10, -8, 1, -3, -8, -1, 1, -2
1503704026457,-3, -3, -4, -3, -4, -10, -3, -1
1503704026481,9, -3, 0, 0, -5, 0, 0, -2
1503704026495,14, -3, -3, -6, -4, -4, 1, 7
1503704026517,5, 6, 4, -5, 0, 16, 1, -2
1503704026539,-3, -6, 2, 1, -6, -10, -7, 3
1503704026555,-3, -2, -6, -3, -1, -7, 2, 7
1503704026577,6, -11, -6, -2, -3, 0, -3, -3
1503704026600,-4, 0, -4, 3, 1, -1, -1, -5
1503704026616,-3, 14, 8, 1, -1, -6, -1, -1
1503704026637,10, -1, -1, 2, -2, -2, 1, -3
1503704026660,3, -4, 1, 0, -2, 0, 1, 1
1503704026675,-8, -1, 1, 3, 2, -7, -1, 0
1503704026698,-5, 3, 5, -2, -2, 0, 1, 5
1503704026723,-2, 2, -5, -2, -3, -2, -3, -5
1503704026735,-4, -2, 1, -3, -4, -4, -2, 0
1503704026758,0, -4, -1, -1, 15, 15, 5, -3
1503704026780,7, 5, -2, -6, -6, -5, 0, 3
1503704026795,-19, -1, 6, -1, -6, 1, 4, 5
1503704026817,2, 3, 3, 8, 5, 0, -5, 1
1503704026840,5, -4, -4, -4, -6, -5, -11, -16
1503704026855,7, -7, -6, -3, -3, -2, 5, 6
1503704026877,-36, -4, -8, -1, -3, -1, 0, -4
1503704026900,9, -6, -11, -3, -1, -2, -3, 7
1503704026915,2, -6, 1, -2, -1, -1, -6, -2
1503704026937,2, 0, -2, 0, 7, 1, 10, -9
1503704026960,-23, -5, 1, 0, 12, 8, -2, -4
1503704026981,8, 1, 0, -4, -7, -8, -6, -3
1503704026997,9, 4, 3, 1, -5, -1, -1, 4
1503704027020,-10, 1, 3, -3, -2, 2, 5, -5
1503704027034,0, -3, -3, 1, 0, -4, -2, 5
1503704027057,2, -10, -9, -4, -6, 2, -4, -29
1503704027080,7, -3, 7, 0, -3, -4, -1, 4
1503704027101,15, -2, -5, -1, -2, 0, -2, -1
1503704027119,-19, 0, -1, 0, 1, -4, -4, 7
1503704027140,33, 15, 2, 1, -2, -8, 5, 8
1503704027161,8, -1, 3, 4, 16, 8, 10, 10
1503704027177,-17, 2, 0, -3, -9, -2, 20, 6
1503704027200,21, 3, 0, -1, -4, -4, 0, 16
1503704027223,-40, -10, -3, 0, -8, -12, 7, -7
1503704027237,0, 3, 3, 0, 4, -15, -14, 13
1503704027260,-1, -2, 1, -7, -9, -33, -19, -9
1503704027281,5, -3, 0, 2, 0, 15, -7, -9
1503704027297,-6, -5, -6, -4, 0, 6, -7, -9
1503704027320,-44, -9, -4, -1, 6, 14, 3, -9
1503704027341,-4, 0, 2, 0, -3, -2, -13, 4
1503704027357,18, 4, 6, -2, -3, 11, 14, -21
1503704027380,23, 2, -4, 5, 10, 3, 14, 13
1503704027401,14, 5, 1, 5, 2, -4, -13, 7
1503704027424,11, 15, 7, -4, -2, 1, -1, -5
1503704027440,-5, -9, -7, -3, -7, -2, 0, 1
1503704027462,-27, -8, -4, -1, -2, 3, -1, 7
1503704027477,25, 0, 3, 3, -2, -4, -7, -2
1503704027499,19, 8, 11, 2, 0, 0, 1, 1
1503704027530,-23, -14, -6, -3, 0, 5, 8, -57
1503704027537,17, 1, -4, -1, -3, -7, -8, 8
1503704027560,-23, 0, 0, 0, 1, 4, 0, 8
1503704027581,17, -2, -4, -2, -3, -2, -1, 13
1503704027604,-52, -9, -5, -5, 7, 6, 3, 9
1503704027626,43, 0, -3, -10, -12, 4, 7, 5
1503704027635,21, 0, -3, -1, 6, 9, 3, -12
1503704027649,18, -1, 1, 0, -3, -4, 4, -14
1503704027672,-7, -3, 1, 3, -15, -22, -20, 20
1503704027680,25, 1, 0, -6, -9, 1, 4, -10
1503704027702,12, -2, 2, 7, -4, -8, -12, -6
1503704027717,-17, -5, -4, -9, -10, -21, -3, 9
1503704027740,1, -8, -3, -1, -3, -9, -14, -3
1503704027762,-25, 0, 0, 2, 11, 0, -11, -14
1503704027777,29, 3, 6, 3, 11, 6, 5, 27
1503704027800,5, -1, -4, 0, -3, -1, 6, 1
1503704027825,8, -3, -3, 0, 7, 16, 2, 12
1503704027837,31, 6, 2, -6, -6, -24, 3, 15
1503704027860,35, 4, 2, 2, 5, 2, -34, -13
1503704027881,32, 1, -2, 0, -6, 0, -3, 5
1503704027897,-23, -2, -4, 0, -3, 10, 6, -6
1503704027920,-36, -2, 1, -5, -2, -6, 4, -7
1503704027942,-2, -13, -12, -7, -9, 6, 6, 11
1503704027958,-19, -9, -10, 1, -1, -3, 7, -19
1503704027980,-1, 8, 5, -2, -1, 0, -2, 12
1503704028002,-35, -13, -2, -1, -5, -2, 1, -28
1503704028026,8, -1, 0, -1, 0, -2, -1, 1
1503704028039,2, 8, 10, 2, 2, 1, 0, 1
1503704028062,0, 5, -4, -2, 3, 10, 5, -9
1503704028084,2, 2, 2, 0, -1, 0, 2, -3
1503704028100,12, 6, 12, 2, -1, 1, 2, -1
1503704028121,-27, -7, 2, 0, -1, -3, 0, -2
1503704028144,9, 0, -6, -4, -1, -3, -6, 1
1503704028160,18, 9, 1, 2, 2, -1, -1, 14
1503704028181,-4, -4, -4, -4, -7, -5, -10, -2
1503704028204,-9, -5, -1, 8, 3, -3, -5, 2
1503704028219,-9, -7, -1, -3, -3, -8, -4, -5
1503704028235,15, 4, -2, 2, 0, 3, 2, -12
1503704028250,-6, 25, 29, 4, -5, 1, 4, 4
1503704028272,6, -21, -10, 6, 6, 0, -10, -11
1503704028295,10, 15, -2, -4, -6, 4, -1, -28
1503704028309,0, -9, -13, 3, 3, 2, -10, -21
1503704028332,9, 3, 5, 2, 1, 7, 17, 15
1503704028355,-6, 0, -4, 1, 2, -3, -6, -28
1503704028370,-8, 7, 3, -2, -7, -7, -13, 11
1503704028394,-2, 1, 6, -2, 1, -4, 0, -4
1503704028414,-3, -7, -6, -1, 5, -2, -4, -2
1503704028430,-15, -8, -7, -3, 19, 5, 10, 10
1503704028452,18, -2, -1, -2, -5, 4, -10, -15
1503704028475,-16, -9, -4, -2, -4, -10, -7, -12
1503704028490,61, 11, 2, -1, -10, -12, 6, 4
1503704028512,5, 3, -1, -2, -5, 6, 7, 20
1503704028535,-8, -4, -4, -1, -3, -3, -5, -22
1503704028549,3, -8, -13, -2, -3, 3, 5, 13
1503704028564,-27, -4, -8, -5, -1, 0, -1, 33
1503704028579,-18, -5, 0, 0, -1, -6, -2, -33
1503704028597,-26, -13, -7, -1, 3, 2, 5, 35
1503704028610,31, 8, 1, -1, -5, 1, -4, -5
1503704028633,1, -5, -7, 2, -2, -3, -6, -8
1503704028655,9, 7, -4, -3, 0, -4, -2, -4
1503704028670,-15, -4, 0, -2, 2, -3, -1, -4
1503704028692,10, 2, 1, -5, -3, -1, -9, -13
1503704028715,-4, -5, 2, -3, -14, 5, 9, 1
1503704028722,-7, 4, -3, 3, -1, -2, 2, -1
1503704028744,2, 3, 4, 2, -4, -2, -3, -7
1503704028759,3, 12, 0, -2, 5, -8, -11, 5
1503704028775,-2, -9, -3, -2, 2, -2, -1, -9
1503704028790,6, 2, -8, -1, 4, 2, 10, -6
1503704028812,5, 4, 6, 1, -6, -7, -2, 26
1503704028835,0, 4, 0, -2, -3, -5, -27, 6
1503704028850,6, 10, 4, 1, 4, 5, 2, -7
1503704028873,-6, -1, -2, -1, 17, -2, 2, -12
1503704028896,-8, -7, -3, -2, 2, 8, 1, -9
1503704028918,-11, -1, -2, 2, 1, -27, -2, 14
1503704028934,-60, -1, 4, 6, 4, 5, 5, -6
1503704028955,59, 15, 1, -2, -3, 13, 2, 11
1503704028977,-14, -3, -1, -5, -6, -6, 5, -17
1503704028992,17, 12, -6, -2, -3, 2, -1, 8
1503704029015,8, -14, -2, -2, -1, 2, -1, -6
1503704029038,-15, -7, -2, -7, -5, -2, -2, -24
1503704029052,-29, -8, 7, 3, 0, -1, 0, 20
1503704029075,-15, -8, -7, 5, 6, 2, 4, -4
1503704029081,-43, -8, -2, -3, 4, -2, -2, 3
1503704029105,23, 3, -3, 3, 0, 1, -4, 3
1503704029112,2, 1, -1, 0, 2, -2, 2, -2
1503704029135,18, 0, 1, -1, 2, 1, 11, 0
1503704029157,7, 2, 2, 2, 2, 0, -8, 3
1503704029172,-10, -6, -1, -2, 1, -2, 0, -9
1503704029201,-41, 11, -7, 4, 4, -2, -9, -7
1503704029217,10, -15, -5, 3, 2, 1, 0, 3
1503704029234,17, 2, 3, 1, -2, 0, -6, 14
1503704029247,3, -1, 5, 3, 3, -1, 1, -3
1503704029255,4, 9, 6, 1, -3, 0, 0, 22
1503704029277,-3, -4, -6, -3, -5, -3, -2, -17
1503704029292,9, -1, 5, -1, -2, -1, 6, -7
1503704029314,24, 11, 10, 3, 3, -1, -1, -13
1503704029337,-23, 2, -1, -2, 0, 2, 5, 27
1503704029352,0, -12, -5, -7, -1, -3, -1, -4
1503704029375,9, -3, -3, 1, 3, 4, -9, -1
1503704029397,-1, -1, -1, -4, -3, 12, -1, -2
1503704029412,2, -1, -5, -5, 2, -6, -4, -4
1503704029435,-93, -12, 0, 1, 12, 8, 19, -14
1503704029457,5, 3, 3, 12, -3, -1, -1, -24
1503704029473,19, 1, 0, -3, 1, 0, -3, -2
1503704029495,10, 2, -2, -2, -5, -13, -12, -12
1503704029517,31, 9, 0, -2, -2, 2, -10, 15
1503704029532,6, -7, -5, -9, 5, -43, -44, 14
1503704029554,-57, -2, 2, -5, -20, -35, 6, -4
1503704029578,15, 2, 5, 15, 29, 20, 14, -1
1503704029592,61, 1, -3, -6, -14, 5, 1, 1
1503704029615,-15, -4, 0, 0, 1, 14, 9, -3
1503704029638,0, -2, -5, -2, -6, 6, 0, -16
1503704029652,6, 0, 0, -4, -4, -5, 0, 3
1503704029669,-20, -7, -1, 2, 4, 3, -3, -8
1503704029690,1, 4, 8, 4, 2, 2, 3, -3
1503704029706,-4, 9, 13, 4, 0, 1, 3, 12
1503704029727,-11, 6, 19, -3, -2, -1, -4, -11
1503704029735,-4, 9, 10, 4, 2, 3, 2, -12
1503704029757,6, 5, -1, -1, 1, 3, 4, -5
1503704029773,4, -20, -8, -7, -8, -8, -8, -5
1503704029794,-32, 2, 7, 2, 2, 1, 1, -6
1503704029817,9, 22, 13, 4, -3, 6, 8, 2
1503704029832,-4, -10, -5, -4, -1, -1, -3, -5
1503704029854,62, -3, -3, 0, 8, 3, -1, 9
1503704029878,-1, -6, 0, 2, -4, 1, -4, -2
1503704029900,12, 9, -3, -7, -12, -9, -2, 29
1503704029915,-2, -24, -13, -4, -5, -3, -4, -11
1503704029939,-23, -1, 1, 3, 1, 2, 1, -11
1503704029959,-5, 8, 6, 0, 4, 9, -5, 3
1503704029975,-2, -2, 3, -3, 18, -18, -1, -3
1503704029997,-9, -5, -3, 0, -12, -2, 2, 28
1503704030020,-8, -1, -5, -1, 7, -1, 1, -12
1503704030034,8, 13, -4, 5, 0, 6, 1, -4
1503704030057,-7, -18, -12, -5, -9, -2, 0, -7
1503704030080,-2, -3, 4, -2, -9, 5, 0, -42
1503704030094,-14, 4, 3, -2, 15, 22, 5, -7
1503704030117,3, 7, 3, -2, -32, -20, -5, 38
1503704030140,-6, -1, 2, -1, 8, -1, 7, -1
1503704030156,-6, -9, -4, -1, -3, -3, 2, -1
1503704030177,17, 3, -3, -2, 0, -5, 2, 12
1503704030199,-1, -11, -3, 0, 2, -4, -8, -3
1503704030215,-20, -7, 1, 2, 0, 0, 1, 5
1503704030238,-4, 5, 2, 1, -1, -7, -5, -4
1503704030259,-6, 9, 6, 1, 3, 3, -3, 0
1503704030274,-33, -11, -5, -3, -2, -2, -7, -6
1503704030290,-15, -9, -2, -1, -1, -4, -2, -37
1503704030307,9, -3, -1, 3, 0, 0, 2, 53
1503704030327,7, 2, -5, -2, -4, -3, -6, -12
1503704030350,-3, 5, -6, -5, -1, -3, -2, 4
1503704030365,-16, -3, 1, -6, -13, -7, -4, -16
1503704030388,-11, -6, -2, -4, -4, -5, -2, 7
1503704030410,0, -8, -2, -4, -13, -1, 4, 21
1503704030425,-9, -1, -2, 0, 8, 0, -2, -17
1503704030454,2, 3, 8, 6, 7, -1, -1, 8
1503704030470,-32, 6, 0, -1, -2, 0, 5, -7
1503704030486,5, -24, -7, 0, 2, -3, 0, 3
1503704030511,5, 8, 1, 3, 7, 2, -9, -2
1503704030530,16, 6, 5, 1, -3, -3, -3, 20
1503704030545,3, 25, 5, 1, 3, 5, 8, 10
1503704030568,10, -12, -1, 0, -1, -2, -12, 8
1503704030590,-44, -16, -6, 0, -1, -2, -2, 19
1503704030605,-9, -17, -9, -7, -3, -1, 1, -10
1503704030628,11, -2, -24, -5, 0, -2, -1, 1
1503704030650,-26, 0, 9, 2, 1, -2, -2, -55
1503704030665,6, -17, -19, -6, -2, -1, -1, -7
1503704030688,27, 27, 18, 5, 0, 3, -2, -7
1503704030712,-3, 1, 10, 2, 0, -2, -7, 5
1503704030725,4, -2, 4, -2, -1, -2, 3, 8
1503704030748,11, 2, 1, -2, -1, 0, 2, 2
1503704030770,-15, -23, -3, 2, 2, -2, -1, -14
1503704030792,5, 1, -7, -1, -5, 0, 3, 6
1503704030808,-12, 20, 12, -2, 3, 0, -1, 0
1503704030830,-13, -1, -11, 0, -3, -5, -7, -8
1503704030853,12, 3, 0, 1, 2, 3, 1, -22
1503704030868,0, -1, -1, -2, -4, 0, 5, -9
1503704030890,9, 1, 4, 1, 2, 1, -3, -1
1503704030914,5, -6, -3, 1, 29, 14, 5, 11
1503704030930,-7, 0, 3, 0, -22, -11, -3, 6
1503704030950,4, -2, 0, -3, -9, 6, 2, 8
1503704030979,4, -3, -6, -2, -2, -5, -3, 1
1503704030988,-1, -5, 3, -3, 0, -10, -5, -19
1503704031013,-8, -9, 7, -1, -4, 0, -1, 13
1503704031032,4, 2, -1, 1, 0, 2, 2, -6
1503704031048,-4, 0, -3, -1, 2, 5, 4, 9
1503704031070,23, -1, -9, -2, -3, -7, 0, 52
1503704031092,6, 18, 34, 8, 0, 0, -3, -8
1503704031107,-4, -1, -16, -5, -4, -1, -5, 15
1503704031130,14, 6, -5, -3, -4, -4, -2, -15
1503704031152,-7, -2, -4, 0, 6, 8, -9, -6
1503704031167,-1, -2, -2, 0, 0, -2, 0, -11
1503704031190,-15, -10, -10, -3, -1, -2, -4, -44
1503704031214,9, 13, 21, 2, 4, 2, 2, -6
1503704031227,28, -8, -11, -4, -8, -6, 7, 81
1503704031250,-61, -9, -2, 3, 3, -15, -12, -11
1503704031272,12, -2, -3, 0, -2, -11, -10, -22
1503704031282,7, 3, -1, -2, 0, 0, 3, 14
1503704031288,-19, 1, -4, -4, 0, 5, 2, -59
1503704031310,5, -4, -3, -2, 0, 6, 1, 8
1503704031332,-40, 11, 21, 3, 1, 1, -2, 1
1503704031348,58, 0, -9, -4, -4, 0, 3, 5
1503704031370,-12, -7, -6, 1, -16, 37, 9, 0
1503704031392,-6, -2, 0, -1, -19, -12, 1, 3
1503704031407,7, 1, -6, 0, 10, -8, 5, 17
1503704031437,15, 0, -1, 0, 5, -6, -5, 2
1503704031452,18, -1, 0, 5, 14, 4, -1, 2
1503704031467,-49, -8, 1, -3, 14, -8, -3, -4
1503704031490,8, -5, -6, -4, -10, -3, 6, 8
1503704031512,-4, 0, -2, -3, -1, -3, -2, -4
1503704031527,-1, 3, 10, -4, -5, -1, -1, -15
1503704031550,-8, -8, -7, -4, -1, -2, 0, 5
1503704031572,14, 0, -3, -3, -5, -1, 2, -7
1503704031587,-8, 1, -2, 0, 1, 0, -2, -3
1503704031610,-5, -9, -3, 1, -2, -8, -6, -8
1503704031632,2, 4, 2, -1, -4, 2, 0, 2
1503704031647,-11, -12, -1, -2, 1, 0, -1, 3
1503704031670,25, 4, 4, -1, -2, -1, -3, -20
1503704031693,-33, -11, -5, -5, 4, 3, -12, -1
1503704031714,22, 10, -2, 0, 2, -2, -9, -26
1503704031730,2, -1, -4, -1, -3, 3, 8, 21
1503704031752,-15, -5, 3, 1, -4, -13, -2, 5
1503704031774,9, 5, -6, 0, -1, -2, -3, 9
1503704031784,-10, -9, -8, -5, -4, -2, -3, -1
1503704031804,-53, -10, -2, 0, 0, 2, 1, -7
1503704031820,-10, -7, -3, 0, -4, -7, -4, -16
1503704031842,0, -6, -3, -3, -6, -2, -3, -1
1503704031864,25, 2, -1, -1, 3, 13, 14, 17
1503704031879,2, -1, -3, -1, -2, -9, -4, -3
1503704031902,24, 6, -2, -4, 0, -2, -1, -8
1503704031924,22, 7, -4, -1, 0, 18, -3, -26
1503704031939,19, -1, -3, -7, -5, -1, 0, -9
1503704031962,-1, -1, 1, 3, 0, -6, -1, -1
1503704031985,-18, 8, -1, -1, -3, -9, -8, 13
1503704031999,3, -7, -3, -2, -3, -4, -4, 10
1503704032022,57, 4, -5, 1, 2, 2, 0, -1
1503704032044,-3, 1, 6, 2, 2, -1, -1, -1
1503704032060,0, -3, -3, -1, 3, 7, 3, -1
1503704032082,-12, -14, -10, -2, -2, -6, -1, -1
1503704032104,-28, -12, 5, 3, 1, -2, 2, 7
1503704032121,-15, 6, -3, -2, -3, -5, 1, -3
1503704032142,8, -2, 0, -1, 0, -1, 1, 2
1503704032164,-8, 2, 3, -4, -5, -1, -3, -3
1503704032179,21, 5, 1, -3, -8, -7, -6, 5
1503704032202,-46, -6, -2, -3, -1, 0, -4, -6
1503704032224,8, -1, 1, 0, -1, -2, -6, 1
1503704032239,5, -1, 4, 4, 4, 1, -3, -4
1503704032262,-5, -10, -4, 0, -1, -1, -4, 0
1503704032284,-21, 5, 4, 9, -3, -14, 6, 1
1503704032299,-2, 3, 0, -3, -5, 1, 0, -2
1503704032322,10, 0, -2, -3, 0, -9, 0, -2
1503704032344,-2, 0, -1, -2, 4, 6, 1, -3
1503704032360,25, -8, -4, -5, -2, 0, 0, -2
1503704032382,3, 0, -3, -4, -1, 6, -5, -4
1503704032405,-5, 0, -7, -3, 2, -2, -6, 2
1503704032419,-5, 0, 8, 3, 5, 7, 3, 3
1503704032442,-20, -6, -3, -6, -6, -6, -5, -4
1503704032466,-25, -8, -6, 1, 3, 4, 5, 0
1503704032480,18, 7, 4, 4, 6, -2, -5, -4
1503704032502,-6, 1, 13, 3, -6, -2, -2, 1
1503704032526,7, -5, 2, -4, 0, 1, 0, 0
1503704032540,-10, -7, -3, 3, 3, 2, 4, 1
1503704032562,7, -2, -7, -2, -3, 0, 5, 1
1503704032584,13, 8, 13, 6, 0, 0, 4, 8
1503704032599,-3, 2, -8, -3, 1, 0, 1, -5
1503704032623,-14, -3, -7, -3, -6, -2, -6, -7
1503704032644,-8, -1, 3, -2, 0, -3, -2, -9
1503704032666,-7, -1, -3, 1, 1, -2, 7, 2
1503704032682,6, -6, -2, -2, -3, 0, 1, -1
1503704032711,10, 17, 5, -1, 14, -2, -9, -2
1503704032727,1, -7, -4, -5, -7, 6, 0, -3
1503704032742,-3, -8, -10, -2, -5, -2, 0, -5
1503704032765,0, -5, -1, -1, -2, -2, 0, 2
1503704032786,4, -1, -3, -2, -2, 0, 3, 7
1503704032802,-1, 0, -3, 2, -2, -4, -11, -13
1503704032825,-3, -4, 2, -1, -3, -1, 3, 2
1503704032846,6, 18, 12, 2, 0, 2, 2, 6
1503704032862,-2, -10, -4, -2, 0, -1, -1, -5
1503704032884,1, -7, -6, -2, 0, -2, 1, -11
1503704032906,-3, 2, 0, 2, 0, -1, -6, 1
1503704032915,-9, -9, 0, -4, -5, -3, 4, -7
1503704032937,3, 14, 5, -2, -1, 0, -9, 2
1503704032953,-5, -9, -1, 0, -1, 1, 10, 22
1503704032974,6, 22, 8, 1, 1, 2, 1, -6
1503704032997,3, -12, 0, -2, 0, -1, 2, -4
1503704033012,-9, -7, 0, 1, -1, 0, -1, -5
1503704033035,-2, -31, -18, -7, -3, -2, -4, 5
1503704033057,2, 1, -3, 3, 2, 0, -4, 0
1503704033072,0, -5, -2, -2, -2, -2, -13, -12
1503704033094,-2, 6, 3, -1, 0, 1, 6, 4
1503704033117,0, 0, 8, 5, 1, -2, -1, -13
1503704033132,9, 0, -1, 2, -3, -1, 1, 15
1503704033154,-3, -1, -7, -6, -4, -3, 3, -6
1503704033178,-1, -5, -2, -3, 0, -2, 3, -10
1503704033195,4, 3, -2, -2, 0, -3, -2, 29
1503704033214,-6, -1, -2, 0, 2, 1, -4, -26
1503704033237,0, 8, -2, 0, -2, 0, 0, 6
1503704033253,0, -8, -1, 0, 1, 0, -1, -10
1503704033274,-11, -9, -4, -2, -2, -2, -2, -1
1503704033297,1, -4, -2, 0, 1, -1, -1, -3
1503704033312,3, 14, 5, 4, 2, 1, 1, -1
1503704033334,3, 20, 16, 2, 0, -3, -16, -8
1503704033357,-2, -7, -4, -4, -2, 3, 1, -5
1503704033373,-1, -6, -4, -3, -2, 0, 1, -4
1503704033396,-8, -11, -13, -6, -3, -1, 4, -4
1503704033417,0, 8, -4, 0, 3, -2, 2, 7
1503704033432,-3, -4, 6, 4, 2, -1, -3, -16
1503704033457,-3, 1, 1, -3, -5, 2, 1, -2
1503704033484,5, 8, 0, -1, 1, -3, -3, 7
1503704033493,0, -8, -5, -1, -2, 0, 0, 7
1503704033515,-2, -8, -5, -2, -4, -3, -2, -4
1503704033540,-2, 7, -1, -3, 0, -2, 2, 1
1503704033552,-1, -8, 1, -5, -5, -3, 0, -5
1503704033574,3, -21, -2, -1, -2, 3, 4, 9
1503704033598,0, -5, 0, 0, 2, -2, -3, 5
1503704033619,2, 21, 7, -3, -5, -1, -1, -2
1503704033634,-2, 0, 2, 5, 3, 1, 0, -8
1503704033657,-3, -8, -3, -1, 1, -1, -2, -5
1503704033679,-1, -3, 1, -2, -1, -1, 5, 25
1503704033694,-2, 11, 14, 4, 1, 0, -2, -16
1503704033717,-4, -10, -7, 3, 1, -4, -7, -13
1503704033740,1, 5, -2, 1, 1, -1, 0, 3
1503704033755,3, 7, -3, -5, 0, 1, 3, -2
1503704033777,-2, 1, 1, 0, 0, 0, -3, -2
1503704033800,-3, -12, -8, -3, -4, 2, 6, 9
1503704033814,-2, -5, -7, -4, -3, -3, -1, 3
1503704033839,7, 21, 7, 2, 1, 0, -3, -4
1503704033859,-1, 3, 1, 5, 1, -2, -8, -2
1503704033874,-2, -8, -4, -1, -1, -3, -2, -3
1503704033898,-3, 8, 1, -1, 0, -1, 1, -7
1503704033919,1, -6, -4, 2, 1, 1, 0, -1
1503704033935,3, 3, -2, -1, -2, -2, -2, 0
1503704033957,-7, -19, -3, 0, 1, 2, 5, 0
1503704033986,1, -3, -3, -3, -1, 2, 0, 2
1503704034002,5, 6, 3, 7, 2, 1, 1, -3
1503704034017,-4, -10, 0, -7, -5, -2, 4, 4
1503704034040,4, -1, -4, -3, -1, -2, 2, 3
1503704034054,-2, -8, -3, 0, 0, 1, -3, -3
1503704034077,-7, 1, 4, -5, -5, -3, -2, -4
1503704034101,0, 2, -5, -7, -2, -4, -8, -1
1503704034114,1, -1, 0, 2, -4, -2, 0, -3
1503704034137,-1, 3, 3, 4, 2, -2, -5, 6
1503704034159,-7, -1, 2, 3, 4, -1, -1, -10
1503704034174,0, -8, -5, -2, -1, -2, -6, -5
1503704034197,-3, -1, -3, -6, -5, 0, 4, 3
1503704034219,3, 0, -1, 4, 1, 0, 4, 4
1503704034236,-4, -2, -1, -1, -4, -4, -3, -10
1503704034257,1, -4, 0, 2, 6, -2, 2, 2
1503704034279,-7, -6, 1, -5, -5, 3, -3, -5
1503704034294,-11, 3, 0, 0, 0, -2, -1, 12
1503704034317,4, 9, 0, -5, 0, -1, 0, -15
1503704034339,-5, -16, -11, 7, 1, -4, -10, 13
1503704034354,-10, -7, -6, -11, -7, 3, 5, -9
1503704034378,6, 17, 18, 5, 4, 1, -1, -10
1503704034399,6, 6, 2, -3, 0, -1, 4, -4
1503704034414,-8, -6, -7, -1, -1, 0, -2, 0
1503704034438,3, 1, 5, -1, -1, 2, 4, 15
1503704034459,4, 8, -3, 5, 0, -5, -9, -13
1503704034474,-4, -13, -8, -2, 0, 2, 1, -2
1503704034497,7, 5, 11, 3, -1, 2, 6, 0
1503704034519,-1, -3, -5, -14, -5, -3, -2, -14
1503704034542,-1, 6, -1, 8, 3, -1, -2, 6
1503704034557,3, -13, 5, 10, -13, 0, -7, 17
1503704034580,-15, -7, -8, -16, -1, 0, 6, -9
1503704034602,3, 11, 15, 31, 3, 3, -1, -19
1503704034617,3, -17, -9, 1, 4, -3, 1, 26
1503704034641,15, 76, -62, 9, 6, -3, -9, 4
1503704034662,1, -128, 42, -14, 8, -5, 6, -25
1503704034677,6, 89, 77, -5, -49, 0, 17, 44
1503704034699,-15, 127, -108, -19, -78, -4, -2, 36
1503704034722,41, -128, -107, 4, -15, -6, -21, -33
1503704034744,127, -128, 66, -2, 87, 0, -11, -39
1503704034759,-40, -48, 66, -4, 45, -1, -3, 14
1503704034782,-120, 119, 104, 11, 23, -7, 13, 8
1503704034797,-79, 71, 16, 11, 8, -3, -6, -22
1503704034819,-31, -22, -15, -17, 1, 4, 9, 6
1503704034843,16, 6, -20, -9, 44, 0, 13, 55
1503704034857,7, 4, -13, -3, 14, 1, -1, 1
1503704034879,15, 3, -6, -6, 22, 5, 3, 1
1503704034902,10, 13, 7, 3, -4, 1, -2, 0
1503704034918,-1, -8, -4, 9, -6, 0, 0, -27
1503704034940,0, -1, -3, 11, -69, -7, -9, -14
1503704034962,4, -2, -3, -6, -6, -12, -7, -1
1503704034977,-3, -19, -14, -9, -22, 3, 8, 0
1503704034999,5, 24, 12, 6, 2, 4, -1, -12
1503704035022,-2, -13, -7, -6, 10, 5, -19, -2
1503704035037,4, 4, 2, -2, 20, 6, 15, 16
1503704035059,-1, -9, -5, -7, -44, -14, -24, -16
1503704035082,-5, -9, -8, -9, 15, 9, 6, -13
1503704035097,-2, -8, -3, -5, -26, -8, -2, -4
1503704035119,5, -2, -2, 2, 14, 1, -4, -12
1503704035142,1, -5, 4, 10, 16, -2, -5, -4
1503704035157,1, 3, 9, 0, 6, 4, -1, 8
1503704035179,-2, -9, -4, -2, -5, -2, -3, 8
1503704035195,-5, -6, -6, -11, -6, 0, 3, -12
1503704035210,3, 3, 3, 12, 5, 1, 2, -19
1503704035232,-1, 4, 2, -17, -11, -3, 3, 16
1503704035248,1, 3, -2, -4, -10, -2, -5, -6
1503704035277,5, 9, 6, -7, 2, 4, 0, 3
1503704035292,3, 1, 1, 1, -5, -8, 0, 6
1503704035314,-3, -9, -6, -4, -1, -1, -1, -1
1503704035330,3, 2, 2, -2, 3, 1, 0, -1
1503704035352,2, -8, -8, -4, -2, 0, -4, -7
1503704035367,0, -6, -2, 5, 1, 1, 1, 5
1503704035390,3, 2, 2, 2, -4, 2, -1, 0
1503704035413,-5, 6, 4, 3, 15, 8, -4, -8
1503704035427,-4, -3, -1, 5, 3, -6, 2, 4
1503704035450,-3, -6, -8, -7, -6, 0, 2, 2
1503704035473,7, 24, 4, -1, 0, 0, -3, 6
1503704035494,2, 5, -1, 1, 2, -4, -3, 5
1503704035512,-2, -2, 4, 2, -1, 0, -7, -4
1503704035532,-2, -10, -2, 8, -2, -1, -1, -5
1503704035554,-5, -2, -1, -2, -3, -1, 1, -6
1503704035570,-3, -17, -7, -3, 0, -2, 1, -6
1503704035592,-2, 8, 5, 10, 6, -1, 0, -7
1503704035614,2, -8, -4, -12, -6, -1, 5, 4
1503704035630,-6, -3, 2, 10, 2, 0, -1, -3
1503704035653,5, 5, -1, -9, 0, -2, -5, 0
1503704035674,-3, 0, 0, -1, 4, 1, -4, -1
1503704035690,5, 14, 7, 9, 2, 2, 0, 4
1503704035713,1, 8, 6, -3, 1, 0, 3, 1
1503704035734,3, -9, -1, 4, 0, 5, -4, -1
1503704035750,-4, 0, -2, 1, -3, -4, 1, -6
1503704035773,-3, -2, -6, -1, 11, -4, 0, 0
1503704035780,-3, -5, -1, 1, 1, -2, -1, -1
1503704035802,0, -5, 4, 6, 8, 0, 1, -3
1503704035824,1, 1, -2, 3, 4, 2, -5, -6
1503704035839,-2, -1, 0, -9, -7, -12, 0, -3
1503704035862,-1, 1, 0, 11, -6, -1, 1, 1
1503704035885,2, 9, 3, 1, 1, 1, -2, -1
1503704035899,-2, -5, 3, -5, 1, 4, 5, 3
1503704035922,3, 4, 6, 4, 3, 4, -1, -1
1503704035947,-7, 7, -2, 6, 5, 2, -1, 2
1503704035959,1, -1, 0, 1, 2, 1, 0, -6
1503704035982,-3, -5, -1, 9, 9, -1, -2, -3
1503704036004,1, -2, -3, 0, -4, -1, -3, -6
1503704036019,1, -2, -5, -9, -2, -1, -2, 2
1503704036042,-3, -4, 0, -7, -3, 0, 1, 0
1503704036064,1, 4, 3, -1, -2, -2, -4, -2
1503704036081,-1, -5, -5, -2, -3, 0, 1, -1
1503704036102,0, -1, 3, 5, 9, 0, -4, -3
1503704036124,-2, 1, -3, -1, -1, 0, -5, -2
1503704036139,-2, -2, 2, -2, -3, -2, 1, -1
1503704036162,2, 1, -3, -6, -7, 1, 1, 2
1503704036185,2, 13, 5, 1, -2, 0, 2, 0
1503704036200,0, -7, -4, 1, -5, -11, 0, 2
1503704036222,-1, -1, 2, 15, 15, 1, 2, -4
1503704036244,-1, -3, -2, -2, -8, 1, 1, 0
1503704036259,-1, -3, 4, 4, 1, -1, -1, -4
1503704036283,-5, -3, -3, -4, 3, -1, -5, -1
1503704036304,-3, -7, -2, -3, -5, -4, 0, 1
1503704036321,-2, -4, -4, -8, 2, -3, -1, 0
1503704036342,0, -3, -5, -10, -9, 0, 1, 0
1503704036364,4, 4, 1, 0, 2, 1, -2, -3
1503704036386,-1, -4, 0, -2, -1, 1, -3, 0
1503704036401,-2, -1, -1, -5, -1, 0, 0, 0
1503704036426,1, 2, 2, 7, -3, 1, -2, -3
1503704036446,-1, -3, -6, -10, 14, 10, 1, -3
1503704036462,0, -1, -5, 2, -2, -4, -4, -2
1503704036484,-2, -6, 0, 3, -2, -2, 0, -1
1503704036507,-2, 1, -1, 0, -3, -4, -2, -2
1503704036522,-3, -2, -1, 0, 12, -13, 2, 2
1503704036552,-1, -5, -3, -14, -16, 1, 2, 2
1503704036567,0, -1, -2, 2, -6, 0, -1, -3
1503704036581,1, 24, 8, -2, 1, -3, 1, 0
1503704036597,1, -1, -2, -2, -1, 0, -1, 1
1503704036612,1, 1, 2, 5, -1, -1, 1, 1
1503704036635,-2, 5, 3, -10, -7, -1, 1, -3
1503704036657,-3, -2, -4, -4, -6, 0, 3, 1
1503704036672,-2, -9, -2, -7, 1, 1, -2, 0
1503704036695,2, 7, 9, 11, 6, -3, -2, 3
1503704036717,-6, -5, -5, -6, 7, 10, -11, -4
1503704036732,2, 4, 4, 5, 7, -5, 3, -5
1503704036756,1, 2, -1, -1, -5, -5, 2, -3
1503704036777,-4, 10, 1, 2, 1, 1, 2, 0
1503704036792,2, -6, -4, -10, -10, -5, 5, 4
1503704036815,-1, 3, 3, -12, -7, -11, -4, -3
1503704036837,2, 5, 4, 7, 4, 0, 0, -4
1503704036857,0, 2, 2, 13, 4, 1, -6, -1
1503704036875,-5, -8, -7, 2, -5, -1, 0, 1
1503704036897,-2, -7, -7, -6, 1, 0, -1, 0
1503704036913,-2, -8, -5, 2, 4, 3, -1, -3
1503704036935,1, 4, 6, -3, -4, -2, -1, -5
1503704036959,1, 0, 3, 6, 5, 2, 6, 1
1503704036972,1, 0, -1, 0, -4, -1, 2, 3
1503704036995,1, 0, 0, -11, -15, -1, -4, 0
1503704037017,-2, 0, 4, 7, 4, 7, -1, -2
1503704037032,-3, -2, -2, -6, -4, -2, -1, 0
1503704037056,-3, 0, -1, 5, 4, -4, -5, -6
1503704037077,-2, -1, -3, -3, 1, 0, 2, 1
1503704037093,1, -3, -4, 0, 1, -1, -2, -1
1503704037115,1, -5, -4, 1, -1, -2, -5, -6
1503704037137,1, 3, -4, -9, -5, 0, 1, -2
1503704037152,0, -4, -3, 12, 7, 1, 1, 5
1503704037175,-4, -5, -2, 2, -5, -2, -5, 8
1503704037197,0, -1, -3, -4, -4, -2, -2, -25
1503704037212,-1, 3, -1, -4, 3, -2, -3, 2
1503704037235,-1, -3, 2, -3, -4, 0, 2, 1
1503704037258,0, -1, 0, -3, 2, -2, 0, 2
1503704037272,1, -1, 0, 5, 2, 1, -4, 1
1503704037295,1, -1, -1, -4, -1, 1, -7, 0
1503704037316,0, 2, -1, -1, -1, -2, -4, -1
1503704037324,2, 7, 6, -5, -6, 2, -2, 5
1503704037346,-2, -5, -2, 0, -1, 2, 1, -4
1503704037368,0, 1, 2, -14, -17, 0, -1, 1
1503704037384,2, 0, 0, -4, -1, 0, 5, 1
1503704037407,-4, -6, -4, 2, 14, 15, 2, -2
1503704037428,1, 4, 5, -7, 2, 0, -3, -2
1503704037437,-3, -4, -4, -13, -9, 1, 0, -2
1503704037460,0, 4, 4, 0, -3, -3, 4, 0
1503704037475,-1, 2, 1, -5, -3, 0, -1, -1
1503704037497,0, 6, 4, 3, 1, 0, 0, -1
1503704037519,-3, -11, -3, 9, 4, 1, -4, -3
1503704037537,0, 2, -2, 4, 7, 2, -3, -4
1503704037558,-3, -3, -4, -4, -7, -4, -4, 0
1503704037579,-2, -4, -3, -3, -5, 1, 9, 1
1503704037595,2, 3, 7, 5, 3, -2, -4, -3
1503704037617,-1, -3, -4, 2, 0, 0, 0, -3
1503704037639,-1, -3, -1, -1, -2, -2, -3, -1
1503704037662,-5, -5, 2, -4, -2, -3, -3, -8
1503704037676,0, 0, -6, -1, -2, 0, -1, 0
1503704037699,0, -2, -1, -3, 1, 0, 1, 1
1503704037715,0, -6, -2, -6, -7, 0, 4, 3
1503704037736,0, -4, -3, 0, 0, -2, -6, -1
1503704037766,3, 0, 0, -3, 0, -1, 4, 4
1503704037775,-1, 1, 3, 9, 2, 2, 0, -2
1503704037798,1, -1, 3, -3, 4, 3, 0, -2
1503704037829,-3, 3, 2, -5, -1, -1, -1, 2
1503704037848,-3, -1, 2, 2, 3, -1, -2, -3
1503704037865,0, -4, -1, 4, 1, 2, 2, 0
1503704037887,-4, -9, -9, -9, -1, 2, 1, -5
1503704037909,-3, 7, 5, 3, 3, 1, 0, -4
1503704037924,1, 0, -1, -7, -4, 0, 1, -1
1503704037946,1, 5, 1, 2, 4, 1, -3, -2
1503704037969,-6, -8, -5, 3, 4, -3, -1, -3
1503704037984,-2, -10, -4, -9, -4, 0, 2, 1
1503704038006,4, 2, 5, 0, 2, 1, -1, 0
1503704038015,-1, 1, -2, 8, -1, 9, 1, 2
1503704038037,1, 4, 2, 1, -8, -5, -1, -6
1503704038064,-3, -7, -2, -2, 2, -3, 0, -3
1503704038082,1, 6, 5, -1, 6, -1, -2, -1
1503704038097,-4, -7, -2, 1, 2, -2, -2, 0
1503704038119,-2, -7, 1, -2, 3, -4, -3, -2
1503704038133,-3, -10, -2, -10, -10, 1, 2, 0
1503704038148,2, -2, -3, -1, -11, -11, -2, 0
1503704038157,-3, -7, -5, 5, -2, -1, -3, -4
1503704038179,1, 9, 7, 7, 6, -3, -6, -5
1503704038200,-4, 1, -1, 4, 2, 2, -1, 2
1503704038216,9, 24, 15, 0, 1, -3, -1, 0
1503704038239,-4, -3, -6, -9, -6, 0, -2, 0
1503704038265,1, 5, -3, 3, 2, -4, -3, -4
1503704038268,-3, 2, 5, 5, -1, -3, -3, -6
1503704038291,0, -8, -12, -4, -3, 0, 1, 1
1503704038306,1, -4, -7, -3, -5, 0, 0, 7
1503704038332,-3, -3, -4, 0, -2, 0, -1, -2
1503704038337,0, -2, 1, -2, 0, 1, -2, 3
1503704038359,-2, -6, -1, -2, 6, -2, 1, 2
1503704038381,3, 9, 1, 10, 6, -4, -5, -6
1503704038401,-3, -8, -1, -6, -6, -2, 2, -3
1503704038419,-3, -10, -8, -3, -5, -1, 1, 4
1503704038427,-3, -2, -1, 1, 14, 2, -2, -4
1503704038448,0, -4, -3, 0, -3, -2, 1, 1
1503704038457,-5, -6, -5, -1, 2, -1, -2, -19
1503704038479,0, 6, -1, -4, -5, -4, 0, -1
1503704038502,-1, 2, 5, -3, 3, 0, 0, -1
1503704038516,2, 15, 11, 6, 17, 2, -6, 14
1503704038540,-2, -7, -6, -7, -10, -3, -3, -7
1503704038561,3, -5, -5, -16, -1, -1, 1, -3
1503704038576,-3, 3, -4, 0, 17, 4, 0, 7
1503704038591,-2, -5, -4, -2, 8, -2, -5, -7
1503704038607,2, 3, 5, 15, 10, 1, -1, -15
1503704038628,0, -8, -3, 2, 0, -1, 0, -1
1503704038637,4, 10, 9, 6, 2, 0, 0, 3
1503704038659,0, -8, -8, -5, -8, -4, 2, -2
1503704038681,-2, -9, -5, -3, -8, -3, 1, -7
1503704038696,3, 2, -1, -3, 6, -1, -4, 13
1503704038719,-1, 3, 2, 4, -4, -2, 0, -1
1503704038742,2, 10, 5, -5, 0, -2, -6, -6
1503704038757,-1, -3, -1, 8, -4, 0, 0, 0
1503704038779,0, 0, -2, 4, 7, -3, -3, -5
1503704038787,-2, -5, -2, 3, -10, -5, 1, 0
1503704038809,0, -2, -1, -4, 6, -5, 0, -4
1503704038831,-2, -4, -1, 2, 23, 8, 0, 2
1503704038846,-1, -3, 1, -9, -17, -5, -2, -5
1503704038868,2, 3, 6, 4, -4, -5, -1, -2
1503704038891,-1, 13, 3, -3, -8, -2, 0, -4
1503704038907,-2, -9, -8, 6, -1, 0, 0, -5
1503704038928,4, 1, 2, -2, -4, -5, -6, -1
1503704038951,-1, 2, 2, -4, 0, -3, -2, -2
1503704038968,-5, -4, -2, -6, -6, -1, -3, 1
1503704038988,0, 4, 2, -4, -5, -2, 1, 1
1503704039011,0, 1, -2, 7, -4, -2, 2, 2
1503704039020,2, 7, 7, -7, 3, 0, -2, -1
1503704039042,-3, -7, -4, 10, 13, 4, 4, 0
1503704039057,0, -1, 2, -5, 0, 0, 0, -2
1503704039079,-1, -2, -6, -3, -1, -1, 2, 0
1503704039109,0, 1, -4, 0, 2, -1, 1, 2
1503704039131,2, 1, 6, 2, 0, 0, 0, -1
1503704039147,2, 11, 7, 9, 9, -2, -2, -3
1503704039170,-2, -1, -2, -3, -2, 0, 0, 0
1503704039191,1, -2, -3, -7, -4, -2, -2, -2
1503704039213,-1, 1, -2, 10, 5, -4, -12, -7
1503704039228,0, -2, 0, -3, -3, -3, -1, 0
1503704039251,-2, -3, -5, -13, -11, 0, 3, -1
1503704039274,-3, -8, -3, -7, -9, 1, 3, -2
1503704039288,-4, -4, -3, -5, -3, 0, 0, 1
1503704039311,-3, -4, -3, -5, 0, -1, 0, -2
1503704039333,-1, 7, 0, 1, -2, -2, -5, -1
1503704039342,-1, 3, 2, -3, 0, -1, -2, -3
1503704039364,1, 1, 1, -5, -2, -1, -2, 3
1503704039380,-4, -6, -8, -7, -10, 0, 3, 0
1503704039401,-1, 0, 0, -1, -2, -2, 2, 0
1503704039424,-3, 6, -3, 3, -1, 0, -2, -5
1503704039439,-2, -4, 5, 0, 4, -2, -2, 2
1503704039461,1, -2, 0, -1, -1, 0, -3, -2
1503704039484,-3, -3, -3, -5, -13, -13, -3, 0
1503704039499,0, 0, -3, 5, 6, 3, -3, 0
1503704039521,-2, -6, -2, -10, -9, 0, 2, -1
1503704039544,-3, -3, -4, 4, 5, 1, 2, 0
1503704039559,0, 0, 2, 8, 6, -1, 3, -3
1503704039581,-1, -5, -7, -1, -2, -3, -14, 0
1503704039588,-6, -11, -7, -3, 4, 1, -1, -4
1503704039612,4, 0, 1, 8, -7, -9, 0, 1
1503704039635,-1, 7, 2, -4, 0, 0, -2, -3
1503704039657,-1, -3, -5, -12, -10, -2, 0, 1
1503704039673,-4, -5, -8, -5, -5, -2, 1, -2
1503704039679,-1, 1, -1, -7, -6, 0, 0, 0
1503704039701,1, -2, 10, 2, -6, -3, 4, 2
1503704039724,-2, -6, -11, 0, 0, 0, -1, -2
1503704039740,0, 4, 2, 6, 4, -1, -4, -8
1503704039761,-2, 3, -1, 0, 2, 1, 4, 1
1503704039784,-2, 3, 2, -13, -3, 1, -3, 2
1503704039799,4, 5, -1, -5, -6, -1, 0, 1
1503704039821,0, -4, 2, 11, 1, -1, -2, 3
1503704039844,-2, 0, -7, -8, -2, -2, -2, -2
1503704039859,-1, 1, 1, 1, -3, 0, 1, -5
1503704039882,0, -10, 3, 1, -2, -1, -2, 0
1503704039904,-5, -9, -3, -13, -9, 0, 2, -2
1503704039919,0, -1, -6, -1, -2, -2, -2, 0
1503704039935,0, 8, 1, 0, 2, 1, 1, 4
1503704039957,-9, -10, -2, 4, -2, -2, 0, -4
1503704039976,-3, 6, 9, 14, 3, 1, -3, 0
1503704039994,-2, -9, -10, -16, -5, 0, 0, -1
1503704040017,-1, -8, -9, -6, -11, -3, 1, 2
1503704040032,1, 0, -3, 3, 5, 1, 2, 1
1503704040055,1, -2, -3, -2, -7, 0, -2, -5
1503704040077,1, 11, 6, 6, 7, 0, 0, -5
1503704040092,2, 5, 6, 3, 7, -3, -4, -1
1503704040115,-4, -8, -2, -2, -4, 0, 0, 4
1503704040137,-1, -9, -7, -12, -9, -3, -10, 7
1503704040153,-1, -5, -1, 6, 2, 3, 1, -15
1503704040177,2, 2, -1, -3, 2, -3, -1, -9
1503704040197,5, 19, 15, 17, 16, -1, -5, 2
1503704040212,-2, -9, -14, -11, -9, 0, 4, 9
1503704040234,-1, -13, -11, -10, -7, -2, -1, -4
1503704040257,-2, 0, 3, -3, -3, 0, -1, -2
1503704040272,-1, -6, -4, -13, -8, 0, 2, 9
1503704040295,-2, 2, 1, 10, 2, 0, -10, -19
1503704040317,-3, -1, -1, -5, 14, 4, 1, 0
1503704040332,-2, 9, 3, -5, -3, 7, -2, -6
1503704040348,-2, -3, -4, -4, -9, -2, -2, -1
1503704040361,7, 13, 9, 14, 12, 2, -2, -4
1503704040384,2, -1, -1, -3, -2, -1, 1, -4
1503704040406,-3, -3, 0, -9, -1, 0, 0, 3
1503704040423,6, 7, 0, -4, -2, -1, 7, 1
1503704040445,-1, -5, -4, 6, -4, -2, -3, 0
1503704040466,-4, -7, -1, 1, 0, -2, -2, -2
1503704040475,4, 5, -3, 9, 8, 0, -3, 0
1503704040497,3, 4, 3, -1, 1, 0, -1, 14
1503704040513,-2, 1, 0, -5, -3, 0, 2, -15
1503704040535,0, -4, -7, -2, -5, -3, 0, 10
1503704040557,-2, -5, -2, 1, -1, -4, -13, -10
1503704040580,-3, -5, -3, -1, -1, 0, 7, -2
1503704040595,-1, 4, 2, 11, 3, -1, 1, -9
1503704040617,-3, -1, -2, -5, -5, 5, -2, 0
1503704040632,-1, 2, 2, -3, 2, -16, -2, -12
1503704040655,-2, -6, -6, -21, -31, -8, -9, 3
1503704040677,5, 2, -2, -5, -2, 1, 4, 15
1503704040692,-1, -7, -5, 4, 10, 5, 3, -13
1503704040707,0, -6, -6, -14, -8, -3, -1, 14
1503704040722,-2, -6, -4, -1, -6, -1, -2, 18
1503704040744,-2, -4, -2, -4, 5, -5, -2, -23
1503704040767,3, -1, 9, 13, 11, 1, -9, -32
1503704040782,-6, -16, -11, -7, -7, -3, -7, 9
1503704040805,1, 8, 1, -3, -8, 0, 4, -20
1503704040827,-3, -12, -6, 1, -1, -1, 0, 7
1503704040842,2, 15, 0, 1, 5, 1, 3, 27
1503704040865,-4, -2, -7, -1, -3, -2, -4, -31
1503704040872,-3, 6, 4, -4, -3, -2, 3, -27
1503704040895,6, 8, 5, 8, 1, 1, 1, 15
1503704040917,1, 5, 3, -2, -3, 0, -2, 9
1503704040932,-2, -5, -2, -2, -1, 0, 1, 11
1503704040955,7, 5, 4, -2, -3, -1, -8, -7
1503704040977,3, 1, -2, 0, 0, 0, 4, 47
1503704040992,-3, 1, 4, 0, 0, 1, -1, -58
1503704041016,-8, -13, -9, -1, 0, -1, -2, -4
1503704041037,-1, 2, 3, 0, -3, -2, -1, 11
1503704041059,-5, -4, 1, 0, -3, -1, 2, -4
1503704041075,-2, -4, -3, 3, -1, -1, 0, -6
1503704041097,-2, -7, -7, 1, 1, -1, 1, -3
1503704041119,5, 8, 8, 1, 1, -1, 1, -23
1503704041135,-7, -5, 2, -4, -4, 1, 0, 4
1503704041157,2, -1, -7, -5, 17, 12, -2, 6
1503704041179,-9, -5, -5, -4, -7, -4, 1, -10
1503704041195,-9, -12, -2, 1, -1, -7, -5, 4
1503704041217,5, 8, 7, 3, 5, -1, 3, 23
1503704041239,-3, -4, -3, -9, -6, -3, -3, -9
1503704041258,10, 11, 4, 3, 0, -2, -3, -4
1503704041277,-4, -2, -1, 4, -2, -1, -1, 3
1503704041299,11, 11, -3, -3, -7, -3, -1, 9
1503704041315,-2, -7, -3, 4, 1, -1, -3, -7
1503704041337,-28, -3, 2, -2, -3, -1, 2, -11
1503704041361,9, 3, -6, -4, -4, -1, -1, -10
1503704041375,7, -1, -4, -2, -6, 0, 0, 19
1503704041397,-2, -1, 2, 3, -2, 0, -1, 1
1503704041419,-1, -2, -10, -5, 0, 0, 0, 7
1503704041435,-5, -8, 0, -2, 0, -1, -2, -14
1503704041460,-2, -1, 1, -5, -2, -1, -1, -7
1503704041479,6, 0, 3, 2, 4, -1, 1, -2
1503704041495,10, 2, 0, -4, -2, -3, -4, 15
1503704041521,-6, -4, -7, 0, 2, -2, -5, -11
1503704041539,1, 3, 4, 4, 0, 0, -3, -5
1503704041559,4, -4, -1, -5, 0, 0, 1, -5
1503704041577,0, -2, -1, -1, -3, -3, -2, 3
1503704041600,-6, -1, 0, -2, -2, 0, 1, -4
1503704041614,-13, -11, -4, 0, -4, 0, 1, -11
1503704041637,-4, -16, -11, -9, -5, 1, 2, 2
1503704041666,6, 4, -2, -1, 2, -2, -2, 1
1503704041674,5, 2, 0, 1, -1, 0, -2, 3
1503704041697,7, 1, 4, -1, -5, -1, 1, 0
1503704041720,-3, 9, 4, -1, 2, -2, 0, -3
1503704041742,5, 2, 2, -3, -1, -1, -1, -2
1503704041758,5, 2, 4, 7, 4, 0, -1, 15
1503704041779,1, 1, 2, 2, 0, -2, 1, 7
1503704041794,0, 6, 2, -1, 0, -1, -8, 6
1503704041817,-9, -10, -9, -5, -1, 0, -2, -17
1503704041839,-6, -6, -1, -3, -3, 1, 0, -2
1503704041857,-2, -8, -6, -2, -5, -1, 1, -4
1503704041878,-1, -1, -1, 3, 2, -1, -2, -1
1503704041899,-3, 12, 1, 3, 4, -2, -5, -6
1503704041915,1, -6, -3, -1, -8, -1, 1, 3
1503704041937,1, -1, -1, 2, 2, -2, -3, -3
1503704041959,2, 2, -4, 4, 3, -2, -1, 2
1503704041967,-4, 1, 7, -2, -9, -1, 1, 4
1503704041982,-1, 2, 0, 0, 1, 1, 1, 1
1503704041998,-4, -1, 2, -5, -1, 1, 1, -19
1503704042019,10, -3, -3, -3, -1, 0, 2, 2
1503704042041,4, 3, 1, -3, -1, -2, 1, 7
1503704042059,-5, 0, 0, -1, -2, -2, 1, -1
1503704042079,-6, 0, 3, 4, 1, 0, -3, -14
1503704042101,-5, -1, 1, 1, 4, 0, -8, -7
1503704042117,-3, -1, -2, -1, 0, 1, 6, 6
1503704042139,-15, -9, -2, -6, -4, -1, 3, -11
1503704042162,16, 0, 1, -1, -3, -3, -2, -2
1503704042177,-6, -6, -10, -3, -3, -3, 0, 22
1503704042199,-5, -2, 0, 0, -2, -2, -1, -15
1503704042225,0, 2, 1, 3, 2, 0, -3, 5
1503704042238,-2, 4, 10, -2, -3, 3, 2, 5
1503704042260,8, 12, -4, -2, 2, -1, -1, 2
1503704042281,-25, -4, -9, -3, 1, -2, -7, -8
1503704042291,17, 2, -3, -4, -1, 0, 1, 2
1503704042311,13, 1, -2, -2, -1, 3, 11, 6
1503704042327,-11, -3, 0, -1, 2, 1, -3, -11
1503704042349,-8, 3, -1, 2, 1, 3, -2, 2
1503704042371,14, -3, 1, -2, 0, -4, 1, -1
1503704042386,0, -6, -5, -2, -3, -1, -4, -6
1503704042409,0, -3, 1, -3, -1, -1, -1, -1
1503704042431,-5, 3, 1, 2, 3, -1, -2, -3
1503704042446,-13, -7, -2, 0, 1, 4, 2, 3
1503704042469,-14, 1, 0, -2, -2, -1, -5, -1
1503704042493,25, 4, -6, -2, 0, -2, -2, -1
1503704042506,-22, -16, -1, -3, -4, -3, -3, -3
1503704042530,7, 6, 3, 1, 1, -2, 0, 1
1503704042551,7, 1, 4, 2, 3, 2, 2, 2
1503704042567,0, 1, 2, -4, -6, -3, 1, -5
1503704042589,-3, 4, 1, 0, 1, -1, -1, 1
1503704042611,-5, -6, -3, -2, -2, -2, 2, 2
1503704042627,-1, 4, 3, 0, 2, 0, -1, -1
1503704042649,-4, -3, -3, 0, -1, 1, -9, -13
1503704042672,-7, -11, -12, -5, -1, -2, -3, 0
1503704042686,-24, -5, 0, 1, 0, 0, 1, 4
1503704042709,50, 11, -1, 2, -1, -2, 3, 4
1503704042732,17, -2, -4, -2, 0, 0, -1, 7
1503704042746,-5, -8, -4, -3, -7, -2, 0, -2
1503704042769,13, 6, 2, -2, 0, 0, -2, 12
1503704042791,-6, 2, 2, 1, -2, 0, -1, -11
1503704042806,5, 6, 2, -5, -2, -3, -1, -9
1503704042829,-1, 4, 8, -1, 0, 7, 2, 3
1503704042851,9, -2, 2, -1, -1, 0, -3, -7
1503704042861,-6, -7, -4, -1, -3, 0, -1, 6
1503704042881,-21, -1, -1, -3, -2, 5, 1, -1
1503704042899,6, -2, 2, -1, 0, -2, 3, -8
1503704042919,5, -3, -5, -4, -5, -5, -5, 4
1503704042941,7, -2, -5, 1, 0, -3, -2, 4
1503704042964,25, 6, 2, -2, -3, -1, -2, 10
1503704042980,-1, -6, 1, 2, 2, -5, -5, -7
1503704043001,9, 11, 2, 5, -6, 3, 16, -5
1503704043024,-6, -2, 3, 0, -6, -9, -8, -1
1503704043039,-41, -5, -3, 0, 0, -1, -5, 1
1503704043063,12, -1, 0, -3, 1, -2, -4, -4
1503704043084,-2, -4, -9, -4, -3, 9, 3, -1
1503704043099,-1, 4, 1, 2, 22, -1, -5, -2
1503704043121,2, -7, -3, -1, -6, -4, 2, 6
1503704043144,-5, 11, 9, -2, -3, -3, -3, -15
1503704043160,15, -12, -7, -5, -1, 2, 4, 43
1503704043181,-2, -2, -3, 0, 0, 1, -8, -12
1503704043204,0, 0, 3, -1, -1, 0, -1, -4
1503704043219,13, -2, 0, 4, -2, -2, -1, -7
1503704043241,-20, 1, -1, -3, -1, -3, 0, -3
1503704043266,-3, -15, -4, 1, -2, 0, 2, -7
1503704043279,-5, -1, 4, -1, -2, 0, 3, -3
1503704043301,0, 1, 4, -3, -2, 0, -2, -8
1503704043324,-22, 4, 6, 5, 3, 1, 1, -1
1503704043340,-22, -2, 3, 1, 2, 0, -2, 0
1503704043361,-8, 6, 17, -4, -2, -1, 3, 22
1503704043384,-1, -5, -9, 0, -2, -4, -6, -13
1503704043399,14, -1, -7, -4, -4, 7, 2, -5
1503704043421,4, 1, -2, -4, 4, 32, 22, -1
1503704043444,12, -3, -5, -4, -8, -8, 1, 3
1503704043459,-2, -12, -9, -2, 1, -11, -10, -23
1503704043481,-2, 9, 4, 9, 15, -6, -20, -14
1503704043505,5, 2, -2, 4, -3, -5, 0, 8
1503704043519,9, 7, -12, -10, -4, 1, 1, 9
1503704043534,-1, 1, -7, -1, -2, 3, 4, 3
1503704043549,-7, -2, -9, -4, 1, -2, -4, -8
1503704043575,36, -3, -1, -3, 1, 2, 6, 8
1503704043593,12, -3, -9, 2, 4, 0, -1, -6
1503704043609,-7, 4, 15, -3, -8, -3, 1, 2
1503704043634,-15, 7, 19, 4, 3, 1, -1, -3
1503704043653,2, 4, 8, 2, -2, -1, 1, -3
1503704043669,6, 2, -6, -1, -2, -2, -3, 21
1503704043691,-6, -4, -6, 0, 1, 2, 0, -3
1503704043713,-5, -6, -2, 1, -4, -18, -2, -2
1503704043729,-11, -3, -2, 1, 8, 30, -28, -6
1503704043751,-3, 2, 0, 1, -12, 23, 3, -8
1503704043774,-5, 3, 1, -4, 7, -9, 5, -9
1503704043789,2, 5, 2, -4, 0, -7, -2, -4
1503704043811,-20, -13, -13, -4, 5, -3, 3, -6
1503704043836,38, 7, 14, 0, -2, -7, 3, 9
1503704043856,0, -9, -1, 2, -7, -7, -1, -3
1503704043872,8, 11, -2, 1, 3, -6, 2, 21
1503704043893,-11, -5, 6, 4, 5, -2, 1, -13
1503704043916,1, -26, -33, -4, -5, -2, 0, -2
1503704043931,9, -16, -10, -1, 1, 1, -5, -5
1503704043947,-11, 2, 0, 2, -2, 1, -1, 5
1503704043961,-3, -1, 4, 2, -3, -5, -2, -9
1503704043984,3, 0, -2, -4, -3, -3, -2, 2
1503704044007,2, 5, 6, 3, -2, -5, -1, 1
1503704044021,-1, 5, 5, -5, -10, -26, -2, -12
1503704044044,1, 2, 3, 2, -15, -21, -4, -9
1503704044051,-4, -3, -1, -1, -3, -7, 7, 2
1503704044073,-2, -1, -1, 3, 0, 1, 3, -4
1503704044095,0, -9, -16, 0, 7, -4, 1, 14
1503704044112,15, -18, -18, -5, -7, -3, 0, -11
1503704044133,10, 45, 40, 11, 0, -3, -1, -4
1503704044156,-74, -18, 11, 2, 3, 0, -1, -5
1503704044173,34, 3, 2, -1, 2, 1, 2, 7
1503704044193,1, 12, 3, 1, 1, -1, 2, -8
1503704044216,-2, -6, -4, -4, -2, -2, -1, -5
1503704044239,-1, -4, -8, -3, 1, 0, 7, 4
1503704044261,10, -2, -5, -7, -3, 9, 5, 8
1503704044276,6, -2, -1, 1, 2, -4, -3, 13
1503704044291,-36, -11, -5, -5, -6, -2, -6, -8
1503704044314,1, -9, -7, 1, -2, -4, 0, -14
1503704044336,7, 52, 38, 10, 1, -1, 0, 72
1503704044352,37, 2, 2, 7, 4, 0, -2, -23
1503704044373,36, -13, -6, -8, -2, -2, -3, 2
1503704044396,9, 0, -2, -2, -3, -5, -4, -24
1503704044412,-10, -10, -10, -2, 0, -1, 4, -9
1503704044433,-17, -13, -6, -2, 0, 0, -4, -15
1503704044456,-14, -7, -7, -2, -3, -3, -3, 2
1503704044474,2, 1, -4, -1, -1, 5, -6, -12
1503704044493,-12, 1, -1, -5, -6, -40, -5, 9
1503704044516,-3, 0, 1, 11, 49, 14, 15, -14
1503704044532,-30, -17, -15, -10, -14, 15, 5, -26
1503704044553,-4, 18, -17, -5, -12, -1, -6, 8
1503704044576,-59, -29, -33, -8, -8, -6, -11, 1
1503704044592,14, -7, 3, 3, -4, 1, -2, 4
1503704044613,18, 14, 17, -2, -8, -3, 1, 4
1503704044636,13, -1, 0, 0, -2, 5, -1, 1
1503704044652,21, 4, 9, 1, -2, -1, 1, 7
1503704044676,2, -4, 3, 1, 0, 0, 14, -1
1503704044696,3, 1, 5, 1, 2, 2, 4, -1
1503704044719,-5, 5, 4, 2, -4, -10, -8, 3
1503704044734,12, 18, 15, 2, -2, 1, -4, 1
1503704044757,-12, -26, -18, -2, 1, 5, -1, 8
1503704044779,2, -16, -9, -3, 1, 1, -3, -1
1503704044794,-6, -16, -30, -4, -4, -1, -6, -4
1503704044817,17, 22, 30, 1, -3, -3, -2, 20
1503704044840,-4, -11, -6, 0, 4, 4, -6, -14
1503704044854,-4, 5, 1, -5, -18, -17, -14, -18
1503704044877,1, 9, 5, -2, 8, 68, -29, -2
1503704044899,-12, -1, 2, -4, -21, -21, 10, 3
1503704044907,4, -4, -6, 2, -2, -13, 6, -8
1503704044929,11, -2, 2, -1, -1, -12, -4, 9
1503704044944,21, -1, -2, -2, -6, -7, -8, 24
1503704044966,-11, 3, 8, 4, 12, 9, -7, -9
1503704044989,0, 2, -12, -2, 6, 10, -3, 1
1503704045004,2, 18, 14, 3, -2, -3, -5, -10
1503704045026,18, -11, -7, -1, -6, -5, -2, 11
1503704045049,-1, -1, -8, -7, -4, -3, -2, -2
1503704045064,-14, 11, 28, 0, -6, -1, -3, -8
1503704045086,15, -20, -6, -2, -1, 0, 0, -1
1503704045111,-7, -2, 0, 2, -4, -1, 3, 8
1503704045124,-8, 2, -6, -3, -3, 1, 11, -2
1503704045146,6, 0, 2, -2, -1, 1, 1, -1
1503704045161,10, 2, 0, -1, -4, -1, -3, -7
1503704045178,12, 2, -20, -6, 1, 0, -3, 8
1503704045200,40, 8, 4, 1, -3, 0, 3, 22
1503704045221,-4, -2, -1, 0, -1, 22, 4, -3
1503704045237,-1, -2, 3, 2, -4, -4, -2, -4
1503704045262,8, -3, 0, 1, -1, -6, 1, -1
1503704045282,-11, 7, 17, 5, 5, -1, -6, -17
1503704045297,8, 9, 15, 1, 0, -1, 4, 58
1503704045319,1, -7, -13, -3, -3, -7, -1, -27
1503704045342,-4, -7, -9, -6, -17, -10, -3, -11
1503704045357,-4, -3, -6, -4, -3, -8, -11, 4
1503704045380,-13, 28, 22, 2, 1, -2, 1, -43
1503704045402,-2, -27, -11, -2, 5, 4, 3, 10
1503704045417,4, -2, 0, 0, 0, 2, 1, -21
1503704045439,4, 4, 9, 4, 5, 0, -4, 18
1503704045462,5, 1, -1, 2, 1, -1, 0, 6
1503704045477,0, -5, -7, -5, -6, -16, -2, 2
1503704045499,4, 4, -4, 1, 13, 16, 1, -9
1503704045522,-5, -6, -2, -4, -7, -3, -1, -6
1503704045544,3, 4, -11, -2, -2, -1, 3, -19
1503704045559,1, 0, -5, 0, -1, 2, 1, -6
1503704045582,-9, -17, -3, -4, 0, -1, 1, -38
1503704045597,-26, 1, -1, -1, 2, 0, -3, -9
1503704045619,-7, -24, -7, 1, -3, 0, -4, -17
1503704045642,11, 23, 26, 9, 4, 1, 0, 19
1503704045657,-9, -20, 9, 2, -1, 1, 1, 14
1503704045681,-10, -8, 1, 0, -2, 1, 1, 6
1503704045686,-5, -1, 4, -1, 1, 2, -2, -8
1503704045709,-7, -1, -5, -2, 3, 11, 2, -6
1503704045732,-11, -5, -2, -2, -2, -4, 1, -6
1503704045748,-1, 1, -4, 0, -3, -5, -1, 2
1503704045769,-6, -4, -10, -1, -2, 0, 2, -7
1503704045792,-11, -3, 0, 3, 1, -3, -5, 5
1503704045806,-5, -12, -6, -4, -2, -7, 1, -26
1503704045829,4, -10, -7, -2, -1, -1, 2, 13
1503704045853,12, 21, 18, 3, 1, -2, 2, 4
1503704045866,-5, 8, 1, -4, -5, -2, -2, -10
1503704045889,3, -14, -3, -3, -4, 2, 1, 3
1503704045912,-3, 1, 5, 6, 3, -1, -5, -13
1503704045927,0, -11, -9, -4, -2, -2, -2, 15
1503704045951,-4, -3, 0, -3, 1, 2, -3, -18
1503704045971,-1, -9, 3, 1, -2, -1, -3, 2
1503704045986,7, 1, -6, -3, -3, -2, 6, 54
1503704046009,1, 6, -7, -3, -4, -1, 3, 8
1503704046019,2, -7, -14, -6, -5, -2, 1, 11
1503704046039,1, -13, -14, 0, 0, -2, -3, -11
1503704046062,4, 4, 15, 4, 2, 0, -2, 20
1503704046077,4, -1, -8, 0, 0, 0, -2, 14
1503704046099,1, -16, -7, -2, 0, -3, -1, -11
1503704046127,-16, 6, -2, -6, -4, -2, -2, -14
1503704046137,-5, -13, -7, -4, -7, -3, -3, -42
1503704046153,-8, -32, -7, 10, 5, -5, -3, 11
1503704046166,-12, -19, -3, 7, 4, -1, -4, -45
1503704046190,13, -2, -13, -12, -7, -4, 0, 41
1503704046211,10, 1, 3, -5, -1, 1, 12, 55
1503704046234,-1, -8, -10, -9, -5, 1, -5, 3
1503704046249,9, 22, 4, 4, 3, -2, -6, -11
1503704046271,-39, -1, 3, 8, 4, 2, -6, -13
1503704046286,8, 19, 6, 1, -2, 0, -1, -49
1503704046313,9, -11, 0, -5, -5, -2, 2, -6
1503704046338,-10, -1, 7, 9, 8, 5, -4, -53
1503704046346,-16, 6, 11, 4, 7, 1, -3, -13
1503704046369,18, -14, -7, -17, -13, 2, 8, -15
1503704046392,-26, -30, -7, 1, -4, -8, -16, -42
1503704046409,-2, 15, 13, 21, 15, 4, -7, -23
1503704046430,15, 13, -3, -11, -4, -2, 9, 61
1503704046453,2, -11, -6, 2, -6, -7, -3, 49
1503704046466,16, 4, -10, -9, -3, 1, 5, 49
1503704046489,-4, -12, 4, 3, 1, -4, -2, -68
1503704046511,-4, -4, 5, 3, 4, 0, -9, -40
1503704046526,10, 42, 14, -12, -7, -1, 3, 67
1503704046549,5, -12, -16, -9, -9, 1, 21, 34
1503704046571,-9, 6, -6, 3, 7, -1, -4, 10
1503704046589,-14, 6, 3, -2, -6, 1, 2, 15
1503704046602,-2, -15, -8, -10, -7, 1, -1, 1
1503704046617,-2, -2, -3, 1, -3, -1, -6, -43
1503704046639,-1, 3, 3, 3, 5, -2, -3, 9
1503704046662,5, -2, 2, 4, 2, 1, -16, -4
1503704046684,-2, -10, -5, -2, -3, 0, 12, 1
1503704046699,1, -1, 3, 6, 4, -2, 2, 11
1503704046722,-5, 1, -1, -4, 7, -1, -12, 1
1503704046744,3, 6, 1, -3, -2, -2, 2, -19
1503704046759,2, 8, 7, 5, 4, 0, 20, -11
1503704046782,-2, -5, -2, -2, -1, -1, -8, 27
1503704046804,-1, -5, -3, 0, -8, 0, -1, 9
1503704046819,-1, -1, 1, 0, -5, -1, 0, 23
1503704046842,-2, -2, -2, 3, 2, 0, -1, -32
1503704046864,-4, -8, -6, -6, -3, -1, -6, -15
1503704046887,-1, -3, -3, 2, -11, 0, 1, 3
1503704046902,-1, -1, 2, -4, 7, -2, 1, -32
1503704046924,-6, -4, -12, -12, -3, -3, -3, 39
1503704046940,-5, -3, 0, -3, -3, 1, 1, 31
1503704046962,3, 2, 1, -6, -2, -1, 1, -37
1503704046984,-1, -1, 1, 5, 0, -1, -5, -17
1503704046999,0, -1, -1, 4, 1, -2, -2, -19
1503704047029,7, 15, 25, 10, 3, 0, -2, 38
1503704047044,-10, -3, -12, -7, -4, 0, -1, 3
1503704047059,4, -4, -1, 1, 0, -2, -1, -3
1503704047082,-3, -7, -6, -2, -1, 0, 2, -9
1503704047104,-21, -3, -7, -8, -2, 0, -1, 11
1503704047119,10, 8, 14, 15, 4, -1, 1, -3
1503704047142,15, 3, 5, 7, 1, -1, -2, 4
1503704047149,-2, -11, -2, -3, -1, 1, -6, -4
1503704047171,-5, -21, 1, 3, -2, -4, 2, -1
1503704047194,1, 12, 5, -7, 1, 1, 1, 0
1503704047208,24, 6, -2, 16, -2, 0, 0, 8
1503704047231,-9, -3, 2, 0, 0, -3, -3, 2
1503704047253,0, 1, 0, 0, 0, 1, 0, 3
1503704047269,2, 6, 10, 2, 2, 1, 1, -3
1503704047292,-17, -6, -6, -4, -2, -2, -1, -4
1503704047313,1, 2, 7, 1, 1, -1, 0, 2
1503704047322,-4, -7, -3, -5, -1, -1, -2, -2
1503704047344,3, -8, -5, -1, -2, -1, -1, -1
1503704047374,-3, -8, -3, 0, 1, 0, 3, 2
1503704047389,0, -7, -8, -8, 0, 2, 2, -1
1503704047412,-2, 3, -1, 0, -3, -3, 3, -1
1503704047434,0, 6, 8, 6, 3, 0, 0, 1
1503704047449,-2, -5, -7, -4, -2, 1, 0, -2
1503704047472,-1, -2, 1, 1, 0, 0, -2, -1
1503704047494,-2, -3, -6, -3, -4, -1, -5, -5
1503704047515,-1, -1, -2, -1, -1, 0, -2, -2
1503704047532,1, 2, -3, -4, -3, -5, -3, -2
1503704047554,2, -1, 0, -2, 0, -1, 2, 4
1503704047563,-4, -8, -5, -3, -2, -1, -11, -5
1503704047584,-1, -4, -3, -2, -1, 0, 1, -1
1503704047606,-4, -8, -2, 0, -1, 0, 0, -4
1503704047622,0, -3, 0, -1, -2, -2, 0, -5
1503704047644,-1, -1, 1, 0, 1, -2, 0, 2
1503704047666,0, 4, 2, -1, 0, 0, 0, 1
1503704047689,-2, -3, 1, -1, -2, 0, 0, -1
1503704047705,-3, -8, -7, -3, -1, -1, -1, 0
1503704047726,1, 1, 2, 2, 1, 0, -1, -1
1503704047742,2, 3, 2, 0, -2, -1, -1, -1
1503704047764,-1, -1, 0, 0, 0, -1, 0, 0
1503704047793,-2, -1, -3, 0, -1, -2, 0, -4
1503704047802,-1, -7, -7, -1, 0, -2, 1, -2
1503704047824,2, 3, 2, -2, -3, 0, -1, -1
1503704047846,0, 2, 0, 1, 0, -1, -4, -2
1503704047864,-2, -3, 0, -2, 0, 0, -2, -1
1503704047883,0, 2, 1, -1, -1, 1, 0, 0
1503704047906,-1, 2, -1, -2, 0, 0, -2, -1
1503704047922,-3, 0, 4, 1, -1, 0, -1, -1
1503704047944,-1, -3, -4, -1, -2, -1, 0, -3
1503704047967,0, -5, 0, 2, 0, 0, -1, 1
1503704047982,4, 1, -1, -1, 0, -1, -1, 1
1503704048004,1, 1, 0, -1, -1, -2, 0, 1
1503704048026,0, -5, -2, -3, 1, 1, 0, 1
1503704048042,-2, 0, 1, -1, -4, -2, -2, -1
1503704048065,1, -1, -2, 0, -2, -1, 0, -2
1503704048086,-8, -6, -3, -1, -2, -2, 1, -1
1503704048109,-1, 2, 1, -1, 0, -1, -1, -2
1503704048124,-8, -2, 2, -1, 1, 1, -2, -1
1503704048146,1, 7, 5, 2, 0, -2, 0, 0
1503704048162,0, -4, -6, -2, -2, -1, -3, -1
1503704048184,2, -4, -2, -3, -1, -1, -1, -2
1503704048208,1, 1, -1, 0, 1, -1, 1, -3
1503704048222,-1, 0, 0, 0, 0, -1, -2, -2
1503704048244,7, -7, -4, -2, -2, -1, -1, 0
1503704048267,-4, 0, -1, 1, -1, -1, -1, -1
1503704048282,-2, 4, -1, -2, -1, 1, 2, 0
1503704048304,-2, -1, 3, 0, -1, -1, -4, -5
1503704048326,-7, -5, -2, -1, -2, -1, -1, 0
1503704048342,-1, 5, 2, 0, -1, 1, -1, -1
1503704048364,-1, 9, 0, 0, 0, -1, -2, -3
1503704048386,1, -1, -2, -2, -1, -1, 0, 0
1503704048402,0, -5, 2, 0, -2, 0, 0, 0
1503704048424,-2, -1, -2, -2, 0, 1, 1, -2
1503704048446,-2, 1, 4, -1, 0, -3, -1, 1
1503704048462,-4, -7, -4, -1, -1, 0, -2, -1
1503704048484,0, -7, -2, 0, 0, -1, -1, 0
1503704048506,1, -1, -1, 0, -1, -3, -2, -1
1503704048529,0, -5, -3, 0, -2, 1, -2, -1
1503704048544,1, 3, 0, 0, -2, 0, -1, -1
1503704048568,0, -2, -3, -2, -1, -2, -1, -3
1503704048589,1, 18, 11, 1, -2, 0, -2, -2
1503704048605,0, -5, -2, -3, -1, -1, 1, 1
1503704048626,-2, -2, -2, -2, 1, -1, -1, -1
1503704048649,1, -1, -1, -1, -3, -4, -1, 0
1503704048656,-2, -3, -3, 0, 0, 0, -1, 0
1503704048678,-1, -2, 0, 0, 0, -1, -2, 0
1503704048704,0, 0, -1, -1, -2, 0, -1, -1
1503704048715,-1, -2, 0, 1, -2, -1, -1, -1
1503704048738,-1, -1, 0, -1, 1, -1, -1, -1
1503704048754,0, -2, 0, -2, -2, -2, 0, 3
1503704048776,-5, 0, -1, 0, -1, -2, 1, -1
1503704048798,1, 1, 1, -2, -1, -2, -1, -1
1503704048814,0, -2, -1, 0, -2, -2, -1, 0
1503704048837,0, -4, 0, 0, 2, 0, -1, 0
1503704048858,-1, 3, -1, -1, -3, -2, -1, -2
1503704048874,2, -4, -1, 0, 1, 0, -4, -4
1503704048895,0, -3, -2, -2, 0, 0, -2, -1
1503704048918,-2, 1, -2, 0, -1, 1, -2, 0
1503704048934,-9, -1, -1, -2, 0, -1, -2, 0
1503704048956,5, 2, 0, -1, -2, 1, 2, 2
1503704048980,4, 11, 0, -1, -1, 0, -2, 0
1503704048994,5, -2, 2, 0, 0, -2, 0, -4
1503704049016,-23, -5, -2, 0, -1, -2, 2, -3
1503704049039,-1, -4, -2, 12, 12, 4, -2, -5
1503704049054,-12, 2, 3, 1, -18, -6, 3, -2
1503704049076,-8, -2, 0, -4, -7, -5, -1, 3
1503704049098,-9, -6, -6, -14, -10, -3, 3, -4
1503704049114,13, 1, 7, 0, 9, 0, -1, 3
1503704049135,6, 4, 1, -4, -4, -4, 0, 0
1503704049158,8, -5, -2, -2, 6, 3, -3, 1
1503704049175,-22, -9, -2, 1, -1, 0, -1, -7
1503704049195,25, 3, 1, 6, 4, -1, -2, 25
1503704049218,-9, 0, 0, -3, -4, 1, 2, -11
1503704049234,21, -8, -7, -7, -3, -2, -1, 1
1503704049255,14, -5, -8, -2, -3, -1, 1, 11
1503704049264,17, -12, -10, 2, 0, 1, 1, 13
1503704049286,-27, 2, 9, -2, -2, 1, -1, -30
1503704049309,-9, -2, -2, 1, 2, -4, -7, 7
1503704049324,-1, 1, 0, 3, 1, 0, 0, -11
1503704049346,-3, -2, 1, 0, 0, -1, -3, -11
1503704049369,6, 2, -2, 2, 3, 1, 4, 10
1503704049391,-16, -9, 6, -4, -3, -1, 0, 12
1503704049406,18, 15, 8, 0, -2, 1, 2, -3
1503704049429,-2, -1, 0, 2, -6, 3, 1, 29
1503704049444,-9, 0, -3, -6, -11, -7, -3, 6
1503704049467,5, -2, -4, 4, 6, 1, -1, 8
1503704049489,14, 21, 29, 10, 6, 1, -1, -7
1503704049512,19, -3, -20, -6, -7, -3, -6, 20
1503704049526,6, 0, -8, -8, -7, -30, 0, 1
1503704049549,-4, -3, -1, 10, 22, -21, 16, 14
1503704049556,2, 8, 13, 16, 49, 17, -9, 5
1503704049578,6, 8, 6, -1, -13, -4, -3, -19
1503704049601,14, 3, 0, -1, -6, 0, -4, -5
1503704049617,-15, 10, 3, 1, -5, 0, 2, 0
1503704049638,0, -4, -5, -1, -4, -9, -9, -5
1503704049660,2, -9, -8, 2, 19, 27, 3, 10
1503704049669,4, 4, 5, -6, -8, -1, -4, 0
1503704049691,-2, -10, -17, -8, -14, -2, -11, -5
1503704049706,-16, -4, 5, 10, 18, 16, 2, -5
1503704049721,4, -1, -2, -2, -5, -2, -1, -2
1503704049736,-4, 5, 2, 1, -7, -4, -9, -8
1503704049758,3, 15, 9, 5, -7, -5, -2, 0
1503704049781,4, -6, -4, 3, 4, -8, 1, 0
1503704049796,1, -1, 2, 0, 2, 0, 1, 0
1503704049819,0, 2, 4, -2, 4, 17, 7, 3
1503704049844,-15, -6, -4, -4, -11, -19, 1, -6
1503704049864,18, 4, 3, 0, 2, 1, 7, 37
1503704049879,2, -4, -2, 2, 2, 8, -2, 1
1503704049902,-15, -2, -3, 3, 2, 1, -4, -14
1503704049924,-18, -2, 0, -3, 0, -4, -1, 8
1503704049939,6, -11, 3, -1, 0, 3, 6, -20
1503704049962,5, -2, -5, -1, 1, -4, -8, -4
1503704049984,5, 7, 2, -3, -1, -2, -1, -3
1503704049999,12, 19, 13, 6, -2, 0, -8, -9
1503704050022,21, 2, 0, 0, -6, -4, 0, 6
1503704050045,-7, -2, -2, -4, 12, 4, -1, 2
1503704050059,-10, -3, 0, -1, 0, -1, -3, -6
1503704050082,-8, -18, -11, -1, 5, 3, 4, 7
1503704050104,-14, -16, -14, -8, -7, 0, 0, -6
1503704050119,25, 18, 17, 0, 1, -3, -3, 10
1503704050142,13, 0, -9, 3, 0, -4, -4, -6
1503704050164,-9, 0, -4, -5, -2, 9, 1, 2
1503704050180,4, 2, -2, 0, -14, -1, 1, -1
1503704050202,-16, -3, 3, 2, -2, -6, -3, -4
1503704050224,5, -7, -4, -3, -3, -1, -2, -33
1503704050239,-5, 10, 7, 2, 3, -2, -5, -17
1503704050262,-7, 4, -7, -6, 1, -1, 2, -8
1503704050284,0, -7, -3, -2, 0, 0, 0, 6
1503704050306,-9, -10, -4, -8, -5, -5, -1, 3
1503704050322,-3, -4, 1, 1, -1, -3, -5, 12
1503704050344,-8, -2, -4, 4, 2, -2, 0, -6
1503704050359,-5, -11, -8, -6, 0, -3, 1, 3
1503704050383,0, -12, -10, -3, -2, 0, 0, 18
1503704050405,-61, -10, 5, -5, -6, -3, -1, 12
1503704050419,-16, -20, -8, 4, 1, 3, -1, -17
1503704050442,27, 12, 7, 2, 1, -1, -2, -1
1503704050464,6, 6, 3, 11, 19, 6, -1, -3
1503704050482,10, 14, 7, -1, -5, -5, -2, 0
1503704050508,7, 7, -4, -4, 9, 3, -6, 3
1503704050524,8, 9, 5, -1, -6, -5, -5, -3
1503704050539,2, -3, 0, -4, -6, 4, 1, 1
1503704050562,-1, 0, 0, -1, -5, -1, 1, -2
1503704050569,10, 4, -1, 1, 12, 7, -1, 3
1503704050591,-8, -7, -3, -2, -1, 14, 0, -4
1503704050619,9, -1, -2, 0, -1, -7, -6, -15
1503704050644,10, -5, -5, -3, 1, 0, 2, 17
1503704050652,7, 0, 3, -1, -2, 0, 7, 12
1503704050674,-1, -6, -3, -2, -5, -4, -17, -9
1503704050684,4, -3, -3, 0, 1, -2, 0, 6
1503704050704,3, 2, 2, 0, 0, -4, 3, -25
1503704050720,29, 4, 5, 8, 3, -2, -2, 30
1503704050742,-10, -5, -24, -6, -3, -1, -4, -3
1503704050764,1, 8, 7, 0, -1, 1, -2, -10
1503704050779,-14, 1, -2, -1, -2, -1, 2, 3
1503704050802,2, 2, 5, 1, 1, 1, 0, -1
1503704050825,-5, -2, 5, 1, -1, 0, 0, -18
1503704050839,-9, -6, -2, -1, -3, -2, 2, -7
1503704050862,0, 3, 4, 0, 0, 5, 2, -5
1503704050885,8, 1, 3, 1, 3, -1, 2, 5
1503704050899,0, -3, -3, -4, -4, 4, -3, -4
1503704050922,23, 1, 0, -1, -1, 0, -1, 3
1503704050944,-18, -11, -6, -3, -3, -7, -6, 8
1503704050960,5, -1, -1, 3, 1, 11, -1, 2
1503704050981,15, -1, -1, 3, 10, 2, 4, -13
1503704050989,17, 1, -2, -2, -7, 7, 5, 18
1503704051011,-8, -9, 1, -6, -31, -16, -8, 1
1503704051034,4, 4, 2, 2, 16, 2, 1, -2
1503704051048,-46, 6, 12, 4, 5, 5, 0, 10
1503704051071,34, 12, 12, 3, -3, -2, 3, -1
1503704051095,-8, -5, -8, -1, 2, 1, 9, 7
1503704051108,9, 0, 4, -2, -15, -8, -2, -28
1503704051124,10, 5, 5, 5, 4, 3, 0, 5
1503704051139,-4, 5, 2, 1, 2, 4, -3, 1
1503704051162,-5, -2, 0, 0, -2, -2, -7, -3
1503704051186,-12, -3, 0, 0, -1, 1, -3, -6
1503704051199,9, 12, 4, 0, 0, 1, -3, -5
1503704051222,4, 2, 20, 3, -1, 1, 0, -4
1503704051244,10, -7, -10, -5, -2, -1, -1, -6
1503704051259,9, 1, -4, -1, -2, 1, 1, 3
1503704051282,-12, -6, -2, 0, -2, -2, -1, -3
1503704051304,-4, -5, -1, -1, -2, -7, -8, -6
1503704051321,-9, -3, -6, -2, -1, 7, 9, -6
1503704051342,0, -2, -3, -4, -6, -24, 0, 19
1503704051364,2, 1, 2, 2, 1, 4, -12, -1
1503704051388,5, 21, 18, 2, -7, 0, -2, -15
1503704051394,-1, 0, 40, 10, 2, 6, -1, 3
1503704051416,-29, -6, -11, -1, 12, 4, -2, -8
1503704051432,13, 7, -7, -3, 0, 1, 1, -15
1503704051456,12, 12, 8, 8, 4, 2, -3, -3
1503704051476,2, -4, -12, -3, -2, -3, -4, 5
1503704051493,3, -1, -17, -3, -4, 3, -3, 9
1503704051513,-8, 18, 16, 5, 1, -1, 0, 9
1503704051537,13, 3, 1, -6, -2, 6, 0, 10
1503704051551,-7, -12, -10, -3, -5, -15, -5, -6
1503704051577,-7, -9, -2, -5, -15, -22, -11, -3
1503704051582,-5, 1, 6, -1, -2, -3, 4, -2
1503704051604,-8, 1, -1, -2, -2, -6, -10, -1
1503704051626,-4, -1, -2, -2, 7, -21, -5, -7
1503704051642,-3, -3, -3, 0, -3, -12, 11, 1
1503704051664,-6, 8, 3, 1, -2, 3, -5, -20
1503704051686,-6, -1, 10, 1, 0, -2, -13, 3
1503704051701,-8, -24, -6, 7, 3, -2, -4, 11
1503704051724,12, -17, -26, -13, -6, -2, -2, 2
1503704051746,-38, -3, 0, 0, 0, 2, -4, -5
1503704051754,-13, 10, -3, 1, -1, -5, -1, -4
1503704051776,-2, -15, -8, -4, 1, -2, 0, 5
1503704051792,-1, 3, 11, 3, 5, 1, 4, -2
1503704051814,-12, 0, -7, -2, 0, -4, -5, 0
1503704051836,8, -3, -7, 0, -3, -3, 0, 3
1503704051851,5, 5, 5, -1, -2, 0, 1, 5
1503704051873,-5, 3, 0, 0, 0, -1, -4, -11
1503704051896,-7, 6, 8, -1, -3, 0, -2, -5
1503704051912,-12, -8, -7, -3, -2, -8, -12, -46
1503704051934,-8, -2, 0, 0, 4, 0, 6, 22
1503704051958,15, 9, 10, 1, -1, -1, 5, 16
1503704051972,0, -2, -7, -1, 1, 4, -1, -6
1503704051995,31, 5, 4, 0, 2, -2, -5, -12
1503704052016,-17, -22, -15, -7, 0, 2, 4, 14
1503704052032,-1, 13, 3, 0, 1, -3, -2, 9
1503704052053,-20, 7, -9, -1, -2, -4, -5, -6
1503704052076,-1, -8, 2, 1, 6, -3, -4, 4
1503704052098,2, -8, 1, -1, -6, -2, -1, -3
1503704052113,17, 9, -9, -2, -7, -5, 3, -5
1503704052143,5, 4, 14, 1, 1, 5, 0, 5
1503704052151,-8, -22, -12, -4, 0, -1, -3, -20
1503704052174,-32, 1, 0, -1, -6, -4, 2, 16
1503704052197,-7, -4, -10, 0, 0, 0, 3, 11
1503704052211,-12, 1, 1, 0, 0, -4, -4, -12
1503704052234,24, 11, -1, -3, -2, 3, 3, -1
1503704052256,-9, 1, 6, 2, 3, 2, 1, 3
1503704052278,12, 0, -1, -1, -2, 1, -1, -3
1503704052295,9, -6, 0, 3, 14, -4, -1, 6
1503704052316,4, -2, 6, 12, 35, 34, 17, 6
1503704052338,14, 3, 5, -2, -18, -14, -7, -19
1503704052353,4, -1, 2, -2, -3, 0, -3, 1
1503704052376,-13, 0, 0, 0, 2, -28, -3, 4
1503704052398,-87, -36, -28, -12, -24, -5, -4, 2
1503704052413,9, 25, 14, -6, -8, 0, -1, -46
1503704052437,23, 14, -5, 4, -6, 1, -1, 12
1503704052458,2, -1, 5, 3, 6, 4, -2, 4
1503704052473,7, -7, 1, -2, 3, 4, -1, 5
1503704052496,27, 3, 10, 3, -10, -11, 1, 6
1503704052518,6, 0, -1, -4, -10, -1, -2, 9
1503704052534,7, -4, -2, 3, -8, -7, -5, 3
1503704052556,-4, 2, -3, -5, 1, 3, -1, 3
1503704052578,-42, -16, -8, -4, -10, -15, -3, -16
1503704052594,-9, -5, -7, -3, 8, 25, -1, 1
1503704052609,-4, 1, 2, -1, -4, -12, -1, 10
1503704052624,-2, 1, -2, 1, 75, 59, 5, -4
1503704052647,-6, 5, -11, -3, -31, -27, -7, -7
1503704052669,-36, -4, 23, 7, -8, -7, -9, 8
1503704052684,19, 8, 1, -4, -6, 6, 2, 4
1503704052706,19, 11, 9, 0, -4, -5, 3, 5
1503704052730,12, -5, 1, -2, -8, 2, 1, 0
1503704052744,-10, -31, -23, -6, -8, -5, -1, -3
1503704052766,-1, -7, -6, -1, -2, -2, -5, -3
1503704052789,-14, -8, -4, -4, -1, -2, -2, -3
1503704052804,2, 1, 0, 0, -3, -21, 0, -4
1503704052826,6, 6, 4, 3, 12, -19, -9, -2
1503704052849,-9, -2, -3, -2, -1, -45, -5, -3
1503704052865,2, 4, -1, -2, 9, 25, -2, -3
1503704052886,-1, -1, 0, 3, 0, 10, 4, 1
1503704052909,11, 27, 8, -4, -19, 5, 3, -18
1503704052924,-12, -5, -5, -1, -5, -2, -3, -17
1503704052946,53, 70, 49, 18, 5, 17, 6, 8
1503704052969,-22, 11, 6, 3, 4, 9, -3, 11
1503704052984,8, -23, -10, 0, -3, 3, 5, 4
1503704053007,16, -21, -11, -4, -2, 3, -2, 9
1503704053028,2, -10, -9, -5, -3, 3, 1, 3
1503704053044,-14, -18, -13, -6, 0, 18, 7, 3
1503704053067,4, -2, -6, 2, -3, -7, 4, -16
1503704053088,-18, -10, -5, -5, 0, -3, -7, -20
1503704053104,-36, -17, -6, -3, -7, -3, 0, 11
1503704053127,-9, -25, -7, 0, 0, -2, 3, 23
1503704053148,-13, -1, -6, -1, -2, -6, -3, -24
1503704053164,15, 6, 8, -1, 1, 2, 0, 40
1503704053179,8, 50, 29, 3, -2, 2, 10, 19
1503704053201,18, 5, -11, -3, -7, -2, 3, 10
1503704053216,-26, -13, -11, -3, 2, -3, 3, 15
1503704053239,-11, -15, 3, -4, -3, -4, 2, -61
1503704053261,0, -9, -5, -3, -5, 0, 0, -7
1503704053277,8, -9, -2, 0, 3, 2, 1, 12
1503704053299,-37, 15, 16, 3, 1, -4, -2, -22
1503704053321,2, -19, 8, 0, 1, -4, -4, -28
1503704053337,7, -1, -14, -6, -6, 0, -3, 14
1503704053359,3, 3, -9, 1, 0, 8, 1, -3
1503704053381,-4, 12, -5, -1, 0, -12, -1, -6
1503704053396,8, 4, -1, 1, -1, 3, 4, -14
1503704053419,0, -14, -5, -2, -6, -3, -5, 14
1503704053444,-4, -1, 9, -1, -1, 2, -1, 13
1503704053456,23, 10, -2, -3, 3, 1, 4, 43
1503704053479,2, -9, -8, 0, 1, 1, -10, -17
1503704053503,-8, 3, 5, 1, -1, 1, -5, -25
1503704053516,13, 22, 8, 4, 3, -1, -2, 8
1503704053547,4, -12, 0, 0, -1, -1, 1, -27
1503704053570,10, 7, 0, 0, -1, 0, -3, 14
1503704053592,-33, 5, 3, -2, -1, 1, 2, -34
1503704053607,19, 9, 3, 3, 2, 0, 0, 15
1503704053629,-2, -2, -4, -2, 8, 2, -2, 10
1503704053651,4, -5, -2, -3, -4, -2, 1, 1
1503704053666,-8, -12, 0, 0, -2, 0, -3, 5
1503704053688,17, -8, -3, 1, 1, 12, 6, 34
1503704053711,7, 1, 0, 0, -7, -9, -3, 5
1503704053727,2, 16, 2, -1, -3, -3, -2, -6
1503704053741,6, -15, -12, -6, -1, 0, -5, -5
1503704053756,2, 9, 1, -2, -4, -4, -4, -14
1503704053779,-9, 21, 28, 6, 1, -1, -2, -31
1503704053800,-10, -4, -6, -1, 0, -2, -1, -13
1503704053816,9, 8, -3, 1, 2, 1, 6, 3
1503704053839,24, 1, -1, -3, -1, 1, 1, 10
1503704053860,-14, 11, -2, 1, 0, -5, 1, -3
1503704053876,5, -20, -12, -5, -2, -2, 1, 18
1503704053898,-4, 6, 7, -3, -2, -2, 0, -19
1503704053920,7, -7, -3, 4, 0, -2, -6, 9
1503704053936,-19, -22, -3, 3, 2, -5, -5, -4
1503704053958,5, 4, -4, -8, -5, -1, 0, 26
1503704053982,7, -4, -6, -3, -3, 2, 3, -2
1503704053996,3, -4, 0, -1, -1, -1, -1, -1
1503704054018,-25, 3, -5, -6, -2, -2, -2, -13
1503704054027,-2, -5, 1, 1, -5, -2, -3, -14
1503704054049,-7, 15, 4, 4, 3, -2, -2, -24
1503704054074,2, -1, -2, -9, -5, 0, 0, 2
1503704054079,1, -4, 0, 4, 3, -1, -1, 22
1503704054100,5, 1, 1, -2, -4, 2, 2, -6
1503704054123,-7, 18, 14, 1, 1, -3, -3, -10
1503704054140,8, -17, -11, -8, -7, -1, 3, 25
1503704054160,7, -4, -7, -2, 0, -1, -3, -11
1503704054183,-5, 19, 5, 8, 2, 0, -5, -13
1503704054199,8, -5, 2, 7, 5, -3, -8, -11
1503704054220,-3, 1, 2, 3, 0, -1, 0, 1
1503704054243,1, -15, -9, -6, -5, -1, 3, 34
1503704054258,-8, 8, 8, 1, 3, -1, -2, -61
1503704054280,-6, -12, 0, 0, 1, -1, 1, 14
1503704054303,6, -9, -11, -2, -3, 0, 2, -1
1503704054323,-23, -13, -1, 0, 3, 0, -4, -20
1503704054342,-6, 9, 10, 3, 3, 2, -1, -33
1503704054363,10, 5, 2, -1, -1, 1, 11, 63
1503704054372,14, -1, 8, -3, 0, 1, 5, -30
1503704054394,-7, 0, 13, 14, 11, -3, -13, -45
1503704054409,4, -3, 1, -16, -13, 1, 5, -4
1503704054431,0, 6, 2, 1, -6, 2, -3, -25
1503704054454,15, 14, 4, 5, 12, -3, -7, 56
1503704054470,-2, -9, -10, -16, -12, 1, 4, 33
1503704054491,-9, -7, -5, 3, 3, -2, 3, -10
1503704054514,-3, -15, -12, -3, -6, -1, 2, 11
1503704054528,-2, -9, -4, 4, 5, -1, -7, -36
1503704054551,-1, -10, -9, -9, 0, -2, 7, 11
1503704054558,-12, 7, 1, -9, -5, -5, -11, -44
1503704054580,0, -2, 5, 0, -1, -3, -2, 9
1503704054603,-9, 8, 5, -3, -1, -1, 0, 34
1503704054619,-1, 4, -9, -2, -1, -2, -4, 7
1503704054640,-3, -12, -5, 5, -1, 1, -6, -1
1503704054663,-11, -15, -8, -6, -9, 1, 1, -27
1503704054679,-5, 0, 0, 0, 5, 1, -1, 27
1503704054700,1, -8, -5, -5, -4, 0, 3, -43
1503704054723,2, -2, 0, -5, 1, -2, -3, 15
1503704054738,3, 2, 1, -4, 0, 2, 2, 15
1503704054760,-12, -11, -6, -1, -4, -2, -5, 7
1503704054783,8, 3, 1, 3, 3, -1, 0, 13
1503704054798,1, 5, 6, -1, 2, 1, -2, -1
1503704054820,-3, 0, 4, 3, 3, -1, -2, 23
1503704054843,-5, 2, -1, 3, -4, -2, -2, 70
1503704054858,0, -2, -7, -5, -2, -3, 0, 6
1503704054880,0, -11, -7, -3, 1, 1, 1, -12
1503704054902,-23, -8, 0, -3, -1, -2, 1, 5
1503704054916,-3, -5, 0, 2, -1, 1, -1, -29
1503704054933,-1, -10, -1, 1, 0, -4, -3, -108
1503704054949,-14, 1, -2, -1, -1, -1, -1, 18
1503704054971,-9, 1, 0, -1, -1, 0, -3, 48
1503704054993,-3, 4, 2, 3, 2, 1, 0, 35
1503704055008,33, -2, -4, -4, -1, -1, 0, -4
1503704055031,-9, -1, -2, -6, -3, -1, 0, -1
1503704055055,26, 12, 10, 2, 0, -1, -1, -5
1503704055076,-22, -4, -2, -5, -2, -3, 0, -3
1503704055091,-11, -5, -3, 1, -1, -1, -3, -1
1503704055115,-29, -14, -6, 2, 0, -2, -3, -9
1503704055136,-1, 3, 2, 1, -1, -1, 0, -2
1503704055152,1, 3, 9, 2, 1, -1, 0, -1
1503704055173,3, -5, -5, 1, 0, 0, 0, -2
1503704055182,4, 0, 3, 0, -2, -1, 1, 0
1503704055204,6, 3, 1, -1, 0, -1, -2, -5
1503704055226,2, 26, 16, 4, 3, 1, 0, 16
1503704055241,-2, -8, -8, -2, -2, -3, -1, 0
1503704055264,-8, -9, -2, -3, -1, 0, -1, -12
1503704055287,11, -3, 2, 4, 3, 0, 0, -6
1503704055301,1, -5, -3, 0, -2, 0, 1, -4
1503704055316,-2, 3, 1, 2, 2, 0, 1, -5
1503704055331,7, 3, 3, -5, -1, 0, -1, -13
1503704055353,5, -2, 5, 2, -1, 0, -2, -8
1503704055361,2, -10, -4, -3, -1, -1, -1, -9
1503704055384,-10, -1, -1, 0, -2, -1, -3, 6
1503704055406,-25, -8, -5, -6, 0, -1, -2, -3
1503704055421,12, 5, 2, -1, -1, -3, -1, 2
1503704055444,9, -7, -3, 1, -2, -1, 1, 4
1503704055466,-4, 4, 6, -1, -1, 0, 4, -5
1503704055489,3, 2, 2, -2, -1, 0, -1, 0
1503704055504,12, 7, 3, -2, -3, -3, -1, -4
1503704055526,0, -2, -4, 1, 2, -1, -4, -3
1503704055550,1, -3, -3, 1, 0, 0, -3, 2
1503704055564,-1, -11, -5, -1, -2, 0, 0, 11
1503704055587,0, 3, 6, 0, 0, 0, 0, -3
1503704055608,-1, -4, -2, -2, -1, -1, -3, -2
1503704055624,-5, -2, -3, 1, -1, -2, 0, 1
1503704055646,3, 15, 7, -3, -1, -1, -1, -25
1503704055661,-1, 11, 8, 4, 2, -1, 1, 8
1503704055685,-4, -5, -2, -1, -1, 0, 0, -2
1503704055707,7, 1, -3, -3, -3, -2, -9, 15
1503704055722,2, -2, -5, -4, -1, 2, 1, -1
1503704055753,3, -6, -7, -1, 0, -3, 1, -8
1503704055773,-3, -1, 1, -1, -1, 0, 2, 0
1503704055796,-7, 0, 0, -2, -3, -1, -1, 10
1503704055811,0, -1, -1, -1, 1, -1, -3, -8
1503704055828,16, 3, 0, -2, -1, -1, 1, -1
1503704055849,-3, 0, -2, 0, -1, -2, 2, -12
1503704055864,-1, 3, 5, -1, -2, -1, 0, 17
1503704055887,-2, -7, -6, -4, -2, 0, -1, -1
1503704055909,-9, -3, -5, -3, -1, -2, 0, 3
1503704055925,-4, -4, -1, -1, 1, -1, -5, -17
1503704055946,3, 5, -3, 1, 0, -1, 4, 6
1503704055969,-2, -11, -2, 0, -2, 0, -8, -9
1503704055986,-3, 0, 3, -2, 0, 1, 0, -11
1503704055998,0, -8, -4, -2, 0, 0, -4, -5
1503704056013,-14, 0, -2, -4, -2, -1, 4, -7
1503704056036,2, 1, 4, 2, 0, 1, -1, -4
1503704056058,3, -1, 1, -1, 0, -4, -6, 1
1503704056073,4, 11, -2, -1, -1, 0, 0, -1
1503704056096,-1, -3, -5, -2, 0, 0, -1, 8
1503704056120,2, 3, -1, 3, 0, -1, -1, -4
1503704056134,-1, 2, 4, 0, 2, 0, -2, -2
1503704056158,-1, -7, -1, -4, -3, 0, -2, -2
1503704056178,0, 0, -3, -2, -1, -4, -11, -3
1503704056194,6, -5, 6, 2, 0, 0, 2, 25
1503704056216,-2, 0, -3, -1, 0, 0, 2, -2
1503704056239,-3, -1, -3, -3, -2, 0, -3, -8
1503704056257,2, -1, 2, -1, 0, 0, 0, -1
1503704056276,-1, -3, -1, -1, 0, 1, 0, -2
1503704056299,1, -2, 0, -1, -2, -1, 8, 9
1503704056314,-1, -3, -4, 1, -2, -3, -2, 4
1503704056336,-6, -8, -7, -5, -2, -4, -7, -13
1503704056359,2, 2, 1, 1, 0, 2, 3, -1
1503704056373,-2, 2, 3, 1, 1, -2, -2, -3
1503704056396,-5, -2, -1, -4, -2, -2, -5, -5
1503704056418,-3, -1, -1, -1, -2, 0, -11, -11
1503704056434,-1, 0, -1, 0, 0, -1, 2, -1
1503704056457,0, 1, 0, -2, -1, 0, 1, -7
1503704056478,-2, -8, -4, -3, 0, -1, 1, 1
1503704056494,0, -3, -3, 1, -2, 0, 0, 9
1503704056516,0, 0, -3, -2, -1, 0, -4, -5
1503704056539,2, 2, 0, -1, -1, 0, 2, 10
1503704056554,-7, 1, 0, -1, 12, 10, -2, -17
1503704056581,0, -1, 1, 0, -5, -3, 0, 7
1503704056599,1, 9, 6, 1, -5, -3, -1, -5
1503704056613,2, -6, -1, -3, -2, -1, -6, -11
1503704056636,-5, -4, -3, -1, -3, -6, 0, 8
1503704056659,1, -1, -1, 1, 13, 2, 7, 4
1503704056675,1, -5, 5, 1, -6, -2, 0, 1
1503704056696,-2, -8, -6, -3, -5, -3, 0, 11
1503704056718,6, 4, -4, -1, -12, -10, -1, -13
1503704056734,3, -2, -3, -2, -2, -2, -2, 4
1503704056758,-3, 4, 7, 2, -2, 3, -2, -5
1503704056778,3, 14, 2, 1, 3, 0, 3, -4
1503704056796,0, -8, -5, -2, -2, 0, -8, -6
1503704056809,-1, -2, 0, 1, -6, -2, -4, 2
1503704056825,1, 1, 3, -1, 12, 3, -2, -3
1503704056846,7, 5, 2, 3, -1, 0, 0, -7
1503704056869,-5, -2, 2, 0, -1, -1, -5, -5
1503704056884,7, 16, 9, 1, -1, -2, -9, 2
1503704056906,4, -13, -7, -5, -5, 0, 5, -5
1503704056930,-7, -5, -4, -1, -1, -4, -3, 0
1503704056951,-1, -6, -5, 0, -4, -2, -6, 1
1503704056966,-4, -18, -5, -4, 2, 4, 3, -2
1503704056988,1, 3, -1, -2, -1, -1, 6, 16
1503704057011,-9, 1, 0, -1, -2, -3, 0, -31
1503704057040,1, 7, 10, 1, -1, 0, 2, 29
1503704057056,-1, -3, -7, -2, -3, -2, -3, -12
1503704057078,-3, -3, -2, 1, -9, -6, 0, -10
1503704057101,2, -2, 2, -3, -2, -4, -1, -2
1503704057116,0, -2, 0, -2, -1, 4, -2, -9
1503704057139,-3, -3, -13, -5, 2, 0, 1, -9
1503704057162,14, 8, 6, 2, 2, -1, 4, 28
1503704057170,0, 2, -5, -1, -2, 1, -6, 1
1503704057191,-3, -8, 0, -2, -3, 0, -2, -1
1503704057207,3, -3, -7, -2, 1, 0, 0, 4
1503704057230,-3, 5, 0, -2, -1, 0, 0, -11
1503704057237,5, 10, -1, 0, -2, 1, 1, -2
1503704057259,-7, -5, -4, -2, -1, 1, -3, -11
1503704057281,1, -2, 2, 0, 1, 0, 1, 3
1503704057297,-2, -7, -6, -1, 0, -2, 0, 2
1503704057319,-3, 0, 1, 0, 0, 0, -2, -5
1503704057341,4, 5, 11, 1, -2, -6, -1, -3
1503704057356,-3, -15, -2, -1, -1, -1, -6, -46
1503704057379,-1, -3, -4, 0, 3, 1, 0, 2
1503704057401,-1, 4, 4, -1, -4, -3, -5, 9
1503704057416,3, 9, 10, 2, 0, 2, 3, 10
1503704057439,-7, -18, -11, -5, 0, -3, -7, 2
1503704057462,3, -5, -2, -3, -11, -5, 4, 12
1503704057476,-2, -4, -3, 0, 7, 1, -1, 0
1503704057499,0, 0, -3, 3, -1, 0, -2, 3
1503704057521,-10, 19, 20, 1, 2, 2, 0, -2
1503704057537,-9, -6, -8, -4, 0, 3, 4, -10
1503704057558,-4, -4, -9, 1, 0, -2, -2, 12
1503704057581,0, -4, -8, -2, -2, -2, 3, -1
1503704057598,5, 3, 8, 1, 1, 2, 2, 6
1503704057618,-2, -7, -4, 0, -3, -3, -4, -12
1503704057641,-1, -8, -10, -5, -3, -3, -12, -6
1503704057656,10, 15, -5, -2, 0, -1, 2, 6
1503704057678,-8, 11, 9, 1, -1, -2, 0, -16
1503704057701,10, -22, -10, -2, 1, 3, -3, 2
1503704057716,-10, -24, -4, -3, -1, -1, 0, 6
1503704057739,5, 11, 9, 1, 0, 0, 6, 22
1503704057762,-1, -20, 1, -1, 1, -1, 0, -19
1503704057782,6, 1, -7, 0, -2, -2, 2, 1
1503704057791,0, 1, 2, 0, -1, 0, -13, -12
1503704057807,-6, -5, 1, -1, 0, -2, -2, -15
1503704057829,7, -14, -5, 0, -1, -1, 1, 20
1503704057851,4, -7, 0, 0, -1, 3, 7, 9
1503704057875,-7, 0, -1, -4, -1, -1, -1, -3
1503704057889,1, -3, 2, 1, 0, 0, 2, -17
1503704057911,11, -3, -1, 0, -3, -1, 0, 30
1503704057934,4, -8, -6, 0, -3, 1, 3, 7
1503704057949,-23, -32, -17, -4, -1, -3, -2, -6
1503704057971,28, 64, 24, 2, 2, -2, 3, 4
1503704057993,-10, -23, -4, -3, 0, 0, -6, 1
1503704058009,-14, -4, 0, -4, -5, 0, -3, -6
1503704058032,-3, -22, -8, 0, 0, -2, -18, 5
1503704058053,18, 0, 6, 1, 1, -2, 5, 21
1503704058070,-3, -11, -12, 0, 0, 0, 6, 11
1503704058091,7, 0, -1, 1, -1, 0, 4, 5
1503704058113,-5, 2, -3, -3, -1, 0, -3, -29
1503704058137,-7, -6, -1, -1, -1, 2, 2, -22
1503704058151,-6, -1, -5, -5, -2, 0, 3, 5
1503704058173,-18, -26, -3, -1, 0, -1, 2, -8
1503704058189,-5, 3, 8, 1, 1, 0, 5, 18
1503704058211,10, 6, -3, -1, -2, -2, -3, -6
1503704058235,-2, 2, -1, 0, 0, -1, -1, -10
1503704058249,1, 9, 4, 1, 0, -2, -6, -8
1503704058271,-9, -7, -1, -1, -1, 1, -3, -5
1503704058293,8, -2, -1, -1, 1, -1, -2, -1
1503704058309,-6, -2, -5, -3, 0, 0, -3, -2
1503704058331,3, 6, 2, -2, -1, -1, -10, -8
1503704058354,-21, 3, 3, 1, 0, -1, 3, 0
1503704058370,7, 2, -1, -1, -3, -1, 0, 2
1503704058391,4, 8, 3, 1, -2, -1, -1, -2
1503704058413,-3, 8, 4, 0, 1, 0, -1, 19
1503704058429,8, 7, 12, 1, 0, 1, 6, -15
1503704058451,24, 10, -3, -2, -1, 1, 0, 17
1503704058473,1, 4, 23, 6, 2, 0, -3, -15
1503704058489,15, -4, -13, -4, -1, -2, 0, 8
1503704058511,-3, 17, 6, 0, 0, 1, -2, 7
1503704058533,-9, -18, -2, -2, -4, -1, -1, -24
1503704058549,-15, -2, 5, 0, 0, -3, -11, -13
1503704058572,9, -16, -19, -5, -2, -1, 0, 8
1503704058593,-8, 1, -1, -2, 1, 0, 1, -3
1503704058609,-10, -6, -6, -1, -1, -5, -7, -6
1503704058631,-7, -14, -5, -2, -2, -1, 7, 14
1503704058653,3, 3, 4, 2, 2, 1, 0, -7
1503704058669,-2, 3, -2, -1, -2, -1, -1, -20
1503704058691,3, 14, 3, 0, -2, -1, 0, 4
1503704058713,2, -7, -5, -3, -3, 0, 1, -3
1503704058729,-1, -9, -7, -2, -1, 1, 1, 18
1503704058751,10, 10, 4, -2, -3, 0, 6, 9
1503704058774,-1, -6, -4, -1, -1, 0, -2, -2
1503704058796,1, 1, -1, 1, 1, -1, 3, -12
1503704058811,-3, 9, -3, 0, -1, -5, -2, 0
1503704058833,-2, 23, 5, 1, -1, -2, -4, -5
1503704058856,-6, -16, -5, 1, 0, -1, 2, 4
1503704058871,-2, -13, -3, -5, 0, -1, -3, -10
1503704058893,-11, -31, -18, 0, -3, -1, -4, -42
1503704058916,-3, 38, 18, 8, 3, 0, -3, -36
1503704058931,-2, -26, -10, -2, -4, 0, -6, -19
1503704058953,2, 1, 2, 0, -1, -3, -4, 2
1503704058976,7, 13, 12, 2, 2, 1, -2, 39
1503704058991,-9, -4, -10, -7, -2, -1, 4, 14
1503704059013,-5, -11, -6, -2, 0, 1, 4, 35
1503704059036,-13, -48, -11, -6, -2, -4, -10, -26
1503704059051,8, 12, 1, 1, -2, 1, 3, 13
1503704059075,4, 7, 5, 3, 0, -1, -2, -18
1503704059096,4, 15, 3, -1, 2, 1, -2, -43
1503704059111,13, 10, 0, 0, 0, -1, -1, 27
1503704059133,-6, 12, 3, -6, -6, -2, -1, -27
1503704059156,-10, -36, -11, -7, -4, -3, -2, 9
1503704059171,7, 9, 6, 1, -2, 1, 5, 48
1503704059193,-9, 10, 3, 4, 1, 1, -3, -51
1503704059216,-4, 2, 2, 5, 4, 2, -2, -22
1503704059230,1, -15, 4, -3, -4, -1, -2, 25
1503704059253,1, 1, -2, 4, 0, -1, 3, 0
1503704059282,-4, -8, -8, -2, 1, 1, 1, -10
1503704059290,-2, 6, 2, 2, -2, 4, 1, 24
1503704059314,-14, -14, -12, 1, -3, -3, -9, -51
1503704059321,-10, 2, 0, 2, 3, -1, -13, -64
1503704059344,0, -19, -10, -11, -8, -6, -1, 19
1503704059365,17, 23, 7, 3, 15, 2, 0, 0
1503704059381,-5, -25, -9, -8, -11, 0, 8, 27
1503704059402,-5, 0, -6, 4, -3, -2, 2, 17
1503704059425,-9, -7, -6, 0, -3, -4, -5, 20
1503704059441,-21, -25, -16, -7, -5, -5, -8, 8
1503704059462,-13, -16, -3, 0, 2, 1, -1, -49
1503704059489,8, 10, 14, 6, 3, 4, 8, -34
1503704059501,5, -4, -6, -3, -2, -2, 0, 7
1503704059523,4, 31, 15, 1, 3, 1, -5, -12
1503704059557,-11, -34, -16, -9, -8, -3, 0, -11
1503704059561,-2, -7, 2, 1, 2, -1, -1, -2
1503704059598,0, -7, -5, -8, -10, -1, 5, 18
1503704059614,-4, -22, -7, -2, -1, -1, 1, 35
1503704059636,0, 10, -1, -6, -7, -5, -5, 4
1503704059651,0, 9, 2, 0, -1, 0, 0, -20
1503704059673,-6, -6, -2, -3, -2, -2, -4, -11
1503704059696,-2, -6, -1, -2, -5, -3, -1, 41
1503704059718,-13, -12, -8, 1, -7, 1, -7, -26
1503704059733,15, 14, 15, 3, 6, 1, 5, 2
1503704059756,0, 2, -3, -4, 2, 0, -1, -1
1503704059781,-5, -5, -4, -2, -1, -3, -1, 7
1503704059793,-1, -2, 0, -2, -3, -1, 0, -9
1503704059817,-1, -5, -4, -2, -4, -2, -3, 7
1503704059838,0, 5, 5, 5, 2, 1, -3, -29
1503704059853,4, 1, -1, -2, -1, -1, 1, 7
1503704059876,-2, -2, -2, 0, -1, -1, 2, -11
1503704059898,3, 5, 3, 2, 0, 0, 0, 4
1503704059915,-3, -4, -1, -2, -1, 0, 0, -5
1503704059936,-5, 0, 1, 0, 0, 1, 1, 5
1503704059958,-3, 2, -1, 0, 0, -1, -3, -13
1503704059973,1, -12, -5, -3, -1, -1, -2, 4
1503704059988,1, 4, -2, -1, -1, -3, 2, 7
1503704060003,1, -1, -2, -1, 0, 1, -4, -5
1503704060019,-1, -1, 2, -2, -2, 0, 2, 13
1503704060033,2, 8, 4, 0, 2, -3, -3, -30
1503704060057,-1, -8, -2, -5, -2, 2, -1, -5
1503704060078,-2, -8, -4, -2, -1, 0, -1, 19
1503704060093,0, -6, 0, 5, 0, 0, 3, -48
1503704060116,-8, -10, -1, -3, 1, -1, -1, -58
1503704060138,-14, -2, -4, -7, -6, 0, 0, 51
1503704060153,9, 6, -8, 0, -1, -3, -1, 31
1503704060176,-4, -8, 2, 4, 0, -3, -3, 10
1503704060198,-7, 9, -2, -3, -15, -4, -2, 4
1503704060213,-1, 1, -2, -2, -3, 0, -1, -1
1503704060236,10, -3, -6, -14, -1, -2, 0, 0
1503704060258,5, 2, 3, -1, 3, 0, 0, -2
1503704060273,5, -6, -4, -1, 1, 0, -2, 0
1503704060296,0, 8, 7, 7, 3, 1, 0, 8
1503704060318,9, -4, -1, -5, -3, -2, -1, 3
1503704060334,-4, -1, 16, 10, 9, 4, -1, 0
1503704060356,-8, -5, -14, 11, -2, -2, -3, -5
1503704060378,11, 1, 2, -14, -1, 0, -1, 1
1503704060393,-8, 1, -6, 2, 2, 1, 0, -3
1503704060417,-3, 2, 10, 2, 3, -2, 1, -1
1503704060438,-5, -6, -5, -8, -2, -2, -1, 1
1503704060454,-4, 8, -2, 0, -2, -3, -1, 2
1503704060476,22, -3, -6, -3, -1, 1, 0, -4
1503704060498,-9, 1, 4, 12, -1, 1, -3, -3
1503704060514,-13, -16, -3, -5, -3, 0, -2, -3
1503704060537,-4, 5, 8, 1, 3, -1, 0, 0
1503704060561,9, 10, 7, 0, -2, -1, -2, -6
1503704060573,7, -5, 0, -3, -3, -2, -2, -2
1503704060596,-3, 13, 2, -1, -1, 0, 0, 1
1503704060619,-3, 6, -6, -1, -3, -1, 2, 2
1503704060649,-7, 2, 14, 2, 0, 0, 1, 1
1503704060671,3, -2, -6, -2, -1, -2, -1, 1
1503704060687,-9, -7, 6, 1, -1, 1, 0, -3
1503704060709,-1, 3, 1, 0, 0, 0, -1, -2
1503704060731,25, 0, 1, -3, -1, -1, 0, 1
1503704060747,-11, -2, -3, -1, 0, -3, -2, -1
1503704060769,13, -1, -3, 0, -2, 0, -1, 1
1503704060791,-20, 3, -3, -1, 0, -1, -3, 0
1503704060806,-6, -4, -7, -2, -2, -2, -2, -5
1503704060829,-7, -2, 0, -1, 0, 2, 0, -2
1503704060854,-7, -2, -1, -1, -1, -1, 0, -2
1503704060874,-2, 12, 2, 2, 0, -2, -3, -6
1503704060896,2, -7, -1, -3, -1, -1, 0, 2
1503704060899,-31, 4, 1, -1, -2, 2, -1, -2
1503704060921,0, -7, -3, -3, 0, -2, -1, -2
1503704060941,2, 11, 0, 0, -1, -2, 0, 2
1503704060956,-23, -7, 7, 3, 0, 1, -2, -3
1503704060979,7, -6, -2, -1, -2, 1, -1, 0
1503704061001,8, 3, -4, -1, 0, -2, 1, -3
1503704061016,3, 4, 1, -2, 1, -1, 1, 2
1503704061038,9, 8, 5, 1, -1, 0, -1, 2
1503704061061,7, -9, -6, -2, -1, -3, 0, -1
1503704061076,11, 7, -3, -3, -3, 0, -1, -3
1503704061098,4, 3, 6, 1, 0, -2, 0, -1
1503704061123,8, -9, -6, -1, -3, 1, 0, 0
1503704061136,-15, -14, -3, -2, -1, -1, -1, -2
1503704061152,-1, -6, -1, -2, -2, -1, -1, 0
1503704061166,-19, -12, -3, -1, -1, 1, -2, -3
1503704061190,7, -3, -6, -3, -2, -3, -1, 1
1503704061211,-3, -3, 1, 1, 1, -3, -1, -1
1503704061226,-21, -5, -1, 0, -3, 0, -1, -4
1503704061249,4, -3, 0, 0, 0, -1, -1, -2
1503704061271,12, 6, -1, -2, -3, -1, -2, 2
1503704061286,-3, -2, -1, -1, -1, -1, -5, -4
1503704061309,-4, -7, -3, -2, 0, 1, 1, 2
1503704061332,-1, 1, -2, -2, -2, -3, -4, 1
1503704061347,17, 10, 1, 1, -2, 0, -2, 0
1503704061369,-1, -2, -1, 1, -1, -1, 1, -3
1503704061392,-7, -6, -1, -1, 1, -1, 0, 0
1503704061399,5, 0, 2, 0, -2, -1, 0, 0
1503704061421,-1, 3, 4, -1, 1, 1, 0, 3
1503704061436,-14, 0, 4, 0, 0, -1, 0, -3
1503704061459,-10, -3, -2, 1, 0, -2, -1, -1
1503704061480,-20, -12, 1, -2, -1, -2, 0, -3
1503704061496,12, 3, -3, 0, -1, 0, -1, 1
1503704061518,5, 7, 1, 0, 0, 1, 1, -1
1503704061541,8, -5, -6, -2, -2, -1, -3, -1
1503704061556,-2, 0, 0, -1, 0, 0, -4, -4
1503704061578,3, 0, 1, -1, -1, -2, 2, 1
1503704061601,0, 3, -3, -1, -2, 1, -1, 0
1503704061623,1, 3, 7, 0, -1, -1, 0, -1
1503704061638,-3, -8, -6, 0, -4, -1, -1, -2
1503704061661,-1, 0, -1, 0, 0, 0, 1, -1
1503704061683,-8, -2, -6, -3, -1, -1, -1, 0
1503704061698,22, 23, 17, 3, 1, -1, 0, 1
1503704061720,-10, -16, -16, -3, -1, 0, -2, 0
1503704061750,5, -5, -3, -4, 0, -1, 0, -3
1503704061760,0, 2, 4, 2, 0, 0, 2, -1
1503704061780,-5, -4, 1, -1, 0, -2, -2, -2
1503704061803,-2, 4, 1, 1, 0, -2, 1, 1
1503704061818,2, -1, 1, 1, -3, -2, -1, 0
1503704061841,-9, -6, -4, -3, -3, -1, -1, -2
1503704061863,-2, -2, -4, -3, -2, -2, 0, 2
1503704061878,3, 0, 2, 2, -1, 0, -1, 0
1503704061901,-4, -12, -6, -6, 1, -1, 0, 0
1503704061911,6, 0, 4, 2, 1, -2, -1, -1
1503704061931,3, 2, 1, -2, -2, 0, -2, -1
1503704061953,3, -3, -2, -5, -2, 1, -4, 10
1503704061969,-1, -9, -7, -7, -5, -2, 1, -8
1503704062005,-4, 3, 2, 0, -4, -1, 0, -3
1503704062020,0, -1, -2, -2, -2, -1, -3, 1
1503704062043,-9, -1, 0, 0, 0, -2, 0, -1
1503704062058,6, 20, 7, -1, 0, 2, 2, 0
1503704062080,0, -7, -4, -1, -1, 0, 0, 1
1503704062104,7, -1, -1, -1, 0, -2, -4, -9
1503704062118,5, -2, -2, -4, -1, 0, 0, 3
1503704062147,-3, -1, 5, 2, 0, -2, -3, -3
1503704062163,-7, -9, -6, 0, 0, -3, 0, 0
1503704062178,-13, 1, -1, 1, 0, 1, -2, 0
1503704062201,-1, 2, 1, -3, -2, 0, -3, 1
1503704062209,5, 3, -2, -1, 1, -1, -3, 4
1503704062231,-1, -4, -1, -1, -2, -1, -2, -1
1503704062253,0, 1, 0, 1, 1, -5, 4, 8
1503704062269,-26, -7, -2, -1, -3, -2, -6, -10
1503704062291,3, -6, -7, -5, -1, 0, -3, -4
1503704062313,4, 3, 9, 2, 2, 0, 0, -6
1503704062332,5, -1, -2, -4, 0, 1, -2, 4
1503704062351,2, -3, 1, 4, -2, 1, 5, -3
1503704062377,7, 5, 2, 2, 2, 0, -5, 7
1503704062389,-1, 4, -1, 0, -2, -2, -1, -5
1503704062419,1, -3, -3, -4, -3, 0, 1, -6
1503704062442,-5, -9, -7, -3, -2, -1, -1, -2
1503704062466,0, 21, 11, -3, -5, -2, -5, -14
1503704062478,6, -6, 9, 5, -1, 0, 2, 18
1503704062504,4, -34, -27, -9, -1, -1, -1, 9
1503704062523,-8, -9, -6, -4, -2, 0, -2, 2
1503704062545,-1, 0, 0, 1, 1, 0, -2, -9
1503704062560,-6, 3, 2, 1, -1, -2, -5, -16
1503704062583,0, 3, -1, -3, -1, -2, -4, -20
1503704062605,-1, 8, 4, 0, 0, 0, 3, 1
1503704062620,0, 1, 5, 2, 1, 0, -2, 3
1503704062643,4, 9, 13, 1, 1, -1, -2, 6
1503704062668,0, 6, 5, 2, 0, -2, 3, -2
1503704062680,-3, -9, -4, -1, 1, -1, -2, 3
1503704062704,-7, -4, -5, -1, -2, -1, -3, -2
1503704062725,-3, -3, -1, -2, -3, -3, 0, -6
1503704062742,-3, -3, -13, -5, -2, -1, -2, 8
1503704062763,-3, -15, -14, -4, -3, -1, -2, -7
1503704062785,13, 7, 4, 3, 2, -2, 1, 4
1503704062802,3, 12, 6, 0, -1, -2, -1, 0
1503704062823,-3, -6, -3, 1, -1, 0, -2, -3
1503704062845,-8, -4, 5, -1, -1, 0, 1, 7
1503704062860,4, 23, 11, 3, 1, -1, 1, -6
1503704062883,0, 0, 0, -1, -1, -1, 1, -1
1503704062905,3, -9, -10, -4, -1, -3, -4, -5
1503704062920,-3, 2, 6, 2, 1, 2, -1, 2
1503704062943,2, 4, 2, -1, -2, -3, 2, 13
1503704062951,2, -1, 0, -2, -1, 3, 6, 4
1503704062974,-3, 1, 3, 0, 1, -4, -5, -3
1503704062996,0, -4, -4, -3, -1, -1, -3, -2
1503704063011,-1, 0, 1, -3, -3, 1, -1, -2
1503704063033,-1, -4, -9, -2, -2, -1, 0, 19
1503704063056,-2, 12, 13, 8, 3, 0, -1, -38
1503704063071,-6, -23, 8, 2, 1, 1, -2, -17
1503704063093,-51, -4, -7, -6, -4, -3, -1, 8
1503704063116,8, 0, -4, -1, -1, 0, 2, 6
1503704063131,17, 3, 0, -2, -2, -1, 0, 2
1503704063154,4, -2, 0, -5, -1, -1, -4, 6
1503704063176,-1, -2, -7, -4, -4, -2, 2, 5
1503704063191,10, -1, -1, 2, 0, 0, -2, -1
1503704063213,27, 5, -2, 2, 3, 1, -1, 1
1503704063237,11, 1, 0, -1, -1, -2, -2, -7
1503704063251,-4, 8, -1, 0, 0, -1, 4, 15
1503704063274,-7, -4, 0, -3, 0, 1, 1, -13
1503704063295,-2, -1, 0, 0, -2, 0, -3, 1
1503704063311,-12, -11, -6, -1, -2, -1, -2, -11
1503704063334,-4, -7, -4, -1, 1, -2, -2, -18
1503704063356,2, 0, 4, -2, -2, 0, 1, 6
1503704063373,6, 1, -1, -2, -1, 1, 1, 8
1503704063404,-5, 2, -1, -2, -2, -3, -9, 2
1503704063422,-7, 3, 0, 4, 0, -2, -2, -1
1503704063431,4, 3, 2, 0, -1, -1, 2, 6
1503704063460,-4, -3, -3, -2, -4, 1, -2, 1
1503704063476,-2, -7, -1, -2, -2, -1, -2, -3
1503704063498,14, 3, -7, -2, 0, 0, 3, 0
1503704063514,0, -1, 4, -1, 0, 0, 3, 5
1503704063535,1, -3, -6, -5, -1, 1, 5, 3
1503704063558,-15, 3, 4, 3, 3, -6, -6, -14
1503704063574,5, -1, 0, 1, -1, 0, 0, -1
1503704063595,-9, -2, -1, 0, -2, -2, -1, 1
1503704063618,8, 4, 12, 3, 1, 1, 2, 15
1503704063633,4, 7, 9, 4, 0, -1, -11, -8
1503704063656,0, -5, -10, -8, -6, 1, 5, 18
1503704063678,-48, -11, -4, 5, 13, 11, -1, 5
1503704063693,7, 1, 6, 5, 3, -1, 6, 24
1503704063715,25, 1, -5, 0, -3, -4, -3, -13
1503704063738,14, 4, -2, -5, -6, -3, 9, -18
1503704063746,4, -3, 1, -5, -10, -25, -9, -17
1503704063767,-3, -1, 8, 6, 35, 5, -3, 2
1503704063783,9, 6, 8, 3, -7, 6, 7, 9
1503704063806,6, -5, 2, -2, -10, -3, -5, -7
1503704063827,4, 1, -2, 0, -3, 7, 5, 4
1503704063843,5, -7, -3, 0, -4, -5, -1, 0
1503704063866,25, 0, 9, 2, 0, 5, 0, -13
1503704063887,14, 0, -5, -1, -2, -1, 1, 4
1503704063903,-19, 4, 7, -2, -3, 0, 2, 3
1503704063925,5, -1, -3, -1, -11, -25, -4, 15
1503704063934,2, 6, 3, 2, 8, 20, 6, 12
1503704063956,-9, 4, 3, 0, -7, -13, 4, 14
1503704063978,19, 8, 6, 3, -17, -11, -1, 3
1503704063994,33, 5, -1, 0, 12, 5, 0, -10
1503704064016,22, 0, -1, -5, -5, -2, -11, -35
1503704064038,-29, -1, -2, -1, 1, 2, 8, 11
1503704064053,-19, -6, -3, 1, 3, -1, -5, -26
1503704064077,-40, -10, -1, -1, 3, -3, -13, 10
1503704064098,-17, 0, 0, 0, 0, 8, 6, 7
1503704064114,36, 0, 1, -1, -1, -1, 4, 38
1503704064135,5, -14, -8, -3, -1, 2, 18, -14
1503704064158,2, 5, 1, 1, -2, -6, -6, 8
