1503615955784,-5, -2, 0, -1, -2, 3, -1, -1
1503615955799,-3, 6, 4, 0, 0, -1, -2, -3
1503615955821,-2, -4, -1, 0, -1, 0, 0, 1
1503615955843,-1, -1, 8, 2, 0, -1, 1, -1
1503615955859,4, 2, -4, -3, 0, -3, -1, -2
1503615955882,-1, -3, 0, 4, 4, 1, -1, -1
1503615955903,0, 5, -1, -4, -4, -2, -1, -1
1503615955919,2, 0, -1, -2, -3, -4, -1, -1
1503615955941,-1, 5, 4, 0, 0, 0, -2, -4
1503615955963,7, 6, -2, -2, 0, -1, 1, 0
1503615955979,-9, -6, -1, 2, -3, -2, -1, -1
1503615956002,4, -14, -2, -1, 1, -1, 0, -1
1503615956024,-1, 2, -5, 1, -3, -2, -1, -1
1503615956046,-1, -2, -3, -2, 0, 0, -1, -1
1503615956061,-3, -3, -2, -2, -1, 0, 0, 0
1503615956083,-4, -7, -4, -1, -1, 0, -3, -1
1503615956106,-12, 12, 3, -2, -2, -3, -2, -1
1503615956121,11, -1, -3, -1, 0, 1, 0, 3
1503615956144,12, 7, 1, -1, -2, -1, -4, -2
1503615956167,-1, 9, 5, 0, -1, -1, 0, -2
1503615956181,0, -3, 6, -1, -1, 1, 1, 0
1503615956203,-5, -10, -4, 0, 2, -1, -1, -2
1503615956226,-6, -3, -2, -3, 0, -3, -1, -5
1503615956241,-14, -19, -4, -2, 0, 0, -2, 0
1503615956265,0, -6, -1, 1, -3, -1, -1, 0
1503615956288,1, 3, -1, -2, 0, -2, 1, 0
1503615956302,1, 17, 4, 2, 0, 2, 0, -2
1503615956323,4, -10, -1, 0, -3, 2, -1, 1
1503615956346,4, 0, -3, -2, -1, -1, -2, 2
1503615956361,4, 6, 7, -1, 0, -2, 1, 2
1503615956383,1, 0, 0, -1, -1, 0, -1, 0
1503615956406,-16, 2, 0, 1, -1, -1, 1, -5
1503615956423,5, -7, -3, -1, 0, -2, -3, 1
1503615956443,1, -10, -9, -2, -1, -1, 1, -1
1503615956472,-5, 10, -1, -2, -1, 0, -1, -2
1503615956481,5, 8, -2, -2, -1, -1, -1, 2
1503615956496,3, 8, 1, -2, -1, 0, 0, 0
1503615956511,3, 2, 0, -1, -1, 0, 1, 2
1503615956533,7, -10, -6, -1, -2, 0, -3, -3
1503615956557,-2, -3, -3, -3, -1, -1, -2, 0
1503615956564,0, -2, -3, -1, -2, -2, 0, 0
1503615956586,2, 4, 0, -2, 0, -2, -1, 1
1503615956601,1, 5, 0, -1, 0, -2, 2, 0
1503615956624,-3, -6, 4, 0, 0, -2, -1, -3
1503615956646,-8, 8, -3, -3, -2, 1, -3, 2
1503615956661,3, -2, -5, -1, -1, -1, 1, -2
1503615956684,-1, 3, 0, 0, 0, 1, -2, -1
1503615956706,0, 4, 2, 1, 0, -1, 0, 2
1503615956721,-1, -2, -4, -3, 1, 0, -2, -1
1503615956743,1, -3, -1, -1, -2, 0, 2, -3
1503615956766,2, -6, 1, 1, -1, -2, -2, -5
1503615956781,4, 10, -2, -2, -1, -3, -2, 2
1503615956803,9, 8, 1, -3, -2, -1, 2, 0
1503615956826,-1, 2, -4, 0, 0, -2, -2, -4
1503615956841,-4, -11, -2, 1, -1, 0, -1, 0
1503615956863,5, 8, -2, -4, -3, -1, -5, 3
1503615956886,-6, -8, 1, 1, 0, 0, 2, 3
1503615956902,-1, 1, 6, 2, 0, 0, -1, -3
1503615956923,-1, -9, -1, -1, 0, 0, 1, 1
1503615956946,-1, -22, -2, 0, -1, -1, 0, -4
1503615956970,-12, 5, 0, -3, -2, -2, -4, -3
1503615956983,-7, -2, -1, 0, 0, -1, 1, -3
1503615957006,-1, 2, -1, -2, -1, -1, -1, -2
1503615957033,5, 6, 12, -2, -3, 0, -2, 3
1503615957043,-3, -1, -7, 0, 0, 0, -1, -4
1503615957066,-2, -9, 0, 0, 0, 1, -1, -2
1503615957088,2, 0, -3, -2, -3, -2, 0, 3
1503615957104,2, 5, -1, -1, 0, 0, 0, -1
1503615957129,-16, -6, -6, -2, -2, -3, -3, -2
1503615957148,9, 9, 4, -1, 0, -1, -3, -1
1503615957165,1, -2, -7, -2, -1, -2, 2, 3
1503615957186,3, -5, -6, -1, 1, 1, 0, 2
1503615957208,1, 5, -5, 0, 1, -2, -2, -3
1503615957223,-11, -14, 2, -1, -2, 0, -2, -6
1503615957245,2, 3, 1, -1, -3, -1, -3, 2
1503615957268,2, 5, 0, -3, -1, -4, 1, 2
1503615957283,2, 3, -1, 0, -1, 1, 0, -1
1503615957306,1, 5, -4, -2, -1, 0, -1, -3
1503615957330,-3, 6, 0, -1, 0, -1, 1, -4
1503615957343,-10, -4, 5, 2, 1, 0, -2, -1
1503615957366,8, 9, 0, 2, 0, -1, -1, 0
1503615957388,-4, 1, -1, -3, -3, -1, 0, 0
1503615957403,4, -7, -1, -1, 3, -1, -2, 2
1503615957426,-3, -3, -1, 1, -1, 2, 2, 1
1503615957448,0, -9, -7, -1, -1, -1, 0, 0
1503615957464,6, 3, -4, -4, -1, 1, 0, 2
1503615957486,2, 5, 1, -1, 0, -1, -3, -1
1503615957509,-7, 0, 1, 1, -3, -1, -1, -3
1503615957523,-5, -3, 1, 1, 1, -1, -3, -1
1503615957545,4, -3, -4, -1, -1, -2, 2, 0
1503615957568,-1, 6, 2, 0, -2, -2, 0, 1
1503615957584,-1, -7, -3, -3, -1, -1, -1, -2
1503615957606,-1, -6, -1, 0, -1, -1, -2, 1
1503615957628,9, 7, 0, -2, -2, -1, -1, -2
1503615957643,-2, 11, 6, 1, 0, -3, -2, 0
1503615957667,-1, -9, -8, -2, 2, 0, 0, -2
1503615957688,-1, -3, 2, 0, 1, 0, -2, 1
1503615957711,3, -3, 2, 1, -1, 0, 0, 1
1503615957726,-8, -9, -2, -3, -2, 0, 0, -2
1503615957748,-5, 1, -6, -1, -2, 1, 0, -5
1503615957769,7, 6, 3, -4, -4, -1, -1, -1
1503615957786,4, 2, 2, 0, 0, -2, -1, 0
1503615957808,6, 9, 2, 0, -1, 0, 0, 5
1503615957823,-6, -8, -5, -1, -2, -1, -1, -5
1503615957846,-2, -1, 0, 0, -1, 0, 0, -1
1503615957869,-10, -17, -10, -2, -2, 0, -1, -3
1503615957883,-3, -7, -2, -1, -2, -1, 1, 0
1503615957906,-1, -1, 0, 2, 1, -1, -1, 0
1503615957928,-10, -1, 3, -1, 0, -2, -2, -4
1503615957951,6, 4, -2, -2, -1, 0, -3, 3
1503615957968,-16, -7, -5, -2, -2, 0, 2, -1
1503615957988,4, -8, -2, 0, 1, -2, -1, -1
1503615958011,-1, -5, -3, 0, -1, 0, -3, -2
1503615958026,1, 2, 1, -1, 0, -1, 2, 2
1503615958049,7, 11, 2, 1, -3, 0, 0, -1
1503615958071,4, 15, 4, -1, 3, -2, 0, -2
1503615958086,1, -4, -1, -3, -2, -1, -2, 0
1503615958108,3, -1, 0, -1, -1, 0, 0, 2
1503615958131,3, 1, 6, 1, 0, -1, 0, 1
1503615958146,-6, -3, -5, 0, -2, 0, -1, -3
1503615958169,-4, 0, -2, -3, -2, -1, -2, -1
1503615958191,-6, -7, -1, -2, -1, -2, -3, -3
1503615958206,-4, 3, -4, 0, 0, -2, -4, -3
1503615958228,-2, -2, -1, -2, 0, 0, 2, 0
1503615958251,3, 4, 1, -2, 1, 0, -1, 0
1503615958266,-12, -9, 0, -1, -1, -1, -1, -3
1503615958288,0, 1, -1, -2, -1, -1, 1, 0
1503615958313,-14, -24, 5, 0, 0, 1, 1, -1
1503615958326,3, 8, -4, 0, -2, -3, -2, -4
1503615958348,12, 4, 1, 1, -2, 0, 0, 4
1503615958371,3, 14, 2, -3, -1, -2, -4, -2
1503615958386,-1, 11, -1, -2, 2, 1, 1, 0
1503615958409,-7, -13, -7, -2, -3, -1, -2, -1
1503615958431,3, 1, -2, -2, -3, -1, -4, -1
1503615958446,2, 0, -5, -2, 0, -1, -2, 0
1503615958468,2, 0, 3, 4, 3, 2, 1, 0
1503615958491,3, 2, 4, 1, -2, -4, 2, -2
1503615958506,-3, -8, -7, -2, -2, 1, -1, -1
1503615958528,14, 10, 0, -1, 1, -1, -1, 1
1503615958551,-18, -13, -2, 0, -2, -1, 0, 0
1503615958566,-3, -10, -5, -2, -2, 0, 2, -1
1503615958588,-1, -4, -2, 0, 0, 0, 0, -1
1503615958611,-6, -5, 2, 0, 0, -1, -3, -3
1503615958625,-11, -6, -8, -2, -3, -3, -1, -2
1503615958648,11, 7, 5, -1, 0, -3, 0, 1
1503615958672,6, 11, 1, -2, 1, 0, -2, -1
1503615958686,7, 14, 5, 0, 2, 1, -1, -1
1503615958708,0, 0, -2, -1, -1, -1, -2, -2
1503615958731,-1, -13, -7, -2, -3, -1, -1, 2
1503615958746,-4, -6, 2, 0, -1, -2, -1, -1
1503615958768,-3, 1, -2, 0, 1, -2, 0, -2
1503615958791,3, -2, -4, -2, 0, 1, 0, 1
1503615958807,0, -5, 0, 1, -3, -2, -1, 1
1503615958835,0, -1, -1, 0, 0, 1, 0, 1
1503615958857,-10, -4, 1, 2, 0, 1, 1, 0
1503615958859,4, 0, -2, 0, 0, -3, -3, -1
1503615958882,-5, -4, 1, -2, -1, -1, -2, -3
1503615958903,0, 10, 3, -1, 0, 0, -2, -1
1503615958919,-6, -8, -3, -2, -2, -2, 1, 1
1503615958941,5, -1, -3, -1, -2, 0, -1, 1
1503615958963,-4, -5, -2, 0, 2, -3, -3, -5
1503615958979,-2, -6, 1, -1, -3, -1, -2, 0
1503615959001,-18, -24, -6, 1, -2, 0, 0, -7
1503615959009,-3, 0, -1, -2, 0, -1, -1, 0
1503615959031,-2, 5, 4, 2, -1, -3, -1, -1
1503615959052,4, 5, -4, -1, 0, -1, 2, 0
1503615959068,-2, -7, -2, -2, -2, -2, -2, -2
1503615959090,1, -2, -2, 0, 0, -2, 0, -2
1503615959099,-11, -21, -2, -1, -1, 1, 0, 3
1503615959121,2, 10, 0, 0, 1, 1, -1, -2
1503615959143,2, 3, 4, 0, -2, -2, 0, 1
1503615959159,1, -3, 0, -2, -1, -1, -1, -2
1503615959181,1, -5, -4, -1, 1, 0, 0, -1
1503615959203,1, -1, 0, 0, -1, -3, 1, 2
1503615959219,9, 13, 3, -1, 2, 0, -2, -2
1503615959242,-3, -2, -5, 1, -1, -1, -5, -3
1503615959263,-2, -2, -2, -2, 0, 1, 0, 0
1503615959279,-3, -9, 5, -1, 0, -1, 1, 3
1503615959302,-3, -1, 1, 0, -2, -1, 0, -4
1503615959323,3, 4, -4, -1, -3, -1, 0, -3
1503615959339,-9, -7, -6, -3, -2, -2, -5, -5
1503615959361,6, 3, 13, 2, 1, 0, 0, 4
1503615959383,5, -2, -9, -3, -1, -1, 1, 0
1503615959399,-4, 1, -4, 0, 0, 0, -1, -1
1503615959422,-1, -9, -3, 0, -2, -1, 1, 2
1503615959449,3, -3, -2, -1, -1, 1, 1, 3
1503615959459,-12, -1, -6, -2, 0, -2, -2, -3
1503615959481,7, 0, -2, -2, -3, -1, -1, 4
1503615959503,-2, -6, 0, -3, -1, -1, 0, -3
1503615959520,4, -19, -2, 0, -1, -1, -2, -3
1503615959534,-1, -5, 2, 0, -2, 1, -1, 0
1503615959548,-8, -7, -2, 1, 1, -1, -1, 0
1503615959570,1, 2, -1, -2, -1, 0, -2, 0
1503615959593,3, 9, 0, -3, -2, -2, 0, 0
1503615959608,-4, -1, 1, 0, -2, 0, -1, 0
1503615959630,-3, -4, -2, -4, -2, -1, -2, -3
1503615959654,1, -8, -8, 1, 2, 0, 1, -1
1503615959668,-9, -5, -2, 0, -1, -1, -1, -1
1503615959691,-5, -8, 4, 0, 0, -2, -1, -3
1503615959713,1, 1, 1, 2, 2, 0, 1, 2
1503615959728,-4, 4, -4, -2, -2, 0, -2, -3
1503615959751,3, -15, -3, -1, -4, -2, -2, 2
1503615959773,2, 6, 3, 0, 0, 1, -3, -1
1503615959795,-2, 0, -2, -2, -2, -3, 2, 0
1503615959810,-1, 1, -2, -2, 0, 1, -2, -2
1503615959833,2, 2, -1, -1, -2, -1, 0, 0
1503615959855,-1, -6, -3, 1, -1, -1, -2, -4
1503615959871,-3, 0, 0, -2, -2, -1, -2, 0
1503615959893,-1, 0, 0, 0, -3, 0, 0, 0
1503615959915,-4, 2, 0, -2, -13, -3, -1, -2
1503615959930,0, 0, 1, 5, 23, 1, -2, 1
1503615959953,0, 1, -1, -4, 1, -3, -1, 0
1503615959975,-1, -1, 1, -3, -13, -4, -4, -2
1503615959991,-5, 0, -1, 4, 4, 3, 3, -1
1503615960015,-3, -1, -2, 5, -8, -2, 0, 0
1503615960035,1, -4, -4, -5, 2, -2, 1, 3
1503615960051,2, -1, -1, -1, 1, 0, -1, -3
1503615960073,-11, -4, -4, -6, -9, -1, -1, -5
1503615960095,8, 9, 16, 3, 7, 2, 0, 3
1503615960117,3, -1, 1, -1, 1, 3, 0, -3
1503615960140,1, 0, -1, -1, 1, -2, -1, -6
1503615960155,0, -4, -2, -2, -3, -4, -3, 1
1503615960170,3, 5, 7, 5, 6, 2, 2, 3
1503615960193,-4, -4, -8, -9, -5, -6, -3, -13
1503615960222,0, -2, -6, 0, -1, 1, -2, 7
1503615960230,1, 0, 1, 3, 0, -2, 0, 8
1503615960253,-4, -2, -3, -2, 0, -2, -1, -1
1503615960275,-1, -2, -5, -2, -1, 3, 1, 3
1503615960291,2, 1, 4, 3, 0, 2, 4, 0
1503615960313,5, 0, -4, -4, 0, 3, 7, 4
1503615960335,-3, -1, 2, -1, -1, -3, -3, -7
1503615960353,-3, -1, -3, -2, -2, -2, -4, -8
1503615960373,-12, -1, 2, -2, -2, -2, 4, -5
1503615960395,-2, 0, 0, 4, 0, 3, -1, -3
1503615960410,3, 0, -5, -1, 1, 1, 7, -10
1503615960433,0, 0, 0, -1, 0, -3, -7, 6
1503615960455,4, -3, -1, 0, -5, -2, -4, 6
1503615960470,2, -1, -3, -1, 0, 10, -17, -11
1503615960493,16, -1, -1, -3, 0, 32, -2, 11
1503615960515,-28, -4, -4, -1, -3, 5, -21, -21
1503615960531,10, -2, 0, -3, 1, 59, 19, 12
1503615960553,3, -2, -1, -1, 0, -20, -18, 5
1503615960575,12, 0, 0, -2, 0, -19, -24, -3
1503615960590,-3, 8, 3, 1, 3, -24, 10, -2
1503615960613,-4, -5, -3, -4, -11, -62, 22, -1
1503615960635,-15, -3, -1, -1, -2, 2, 3, -14
1503615960653,-2, 1, -1, -2, 1, 12, 4, 0
1503615960673,-25, -5, -3, 1, 10, 39, 5, -30
1503615960696,-24, 4, -2, -4, -5, -18, -29, -7
1503615960720,11, -3, 0, 1, -1, -15, 12, 41
1503615960777,9, 2, -1, 2, 6, 30, -10, 11
1503615960785,-20, -3, 0, -4, -7, -4, 2, -17
1503615960793,5, -3, 3, 2, 2, -8, 10, -3
1503615960815,-4, 8, 7, 4, -1, -1, 10, -18
1503615960838,-9, -11, -13, -9, -10, -7, -2, 21
1503615960854,8, -2, -5, -3, -1, 3, 5, 23
1503615960875,-12, 0, 0, 1, 3, -3, -4, -5
1503615960897,-9, -5, -4, -10, -4, -7, 2, 3
1503615960913,-2, -1, 0, -1, -3, 1, -1, -13
1503615960935,-1, 3, 0, 1, 1, -2, 4, -2
1503615960958,36, 2, 0, -2, -4, 1, 5, 48
1503615960973,4, 2, 0, 4, 5, 14, 7, -6
1503615960995,14, 0, 5, 2, -4, -8, -1, -1
1503615961017,15, 3, 2, 0, 2, 4, -9, -7
1503615961025,23, -3, -5, -8, -4, 2, -4, 8
1503615961033,-14, 0, 0, 2, -3, -3, -10, -31
1503615961055,-6, -3, -2, 1, 0, -8, -7, 16
1503615961077,-12, 1, 0, 0, 0, 2, -2, -18
1503615961093,-31, -4, -6, -2, 0, -2, -4, -15
1503615961115,-7, 0, -1, 0, 0, -1, -4, 2
1503615961137,22, 17, 6, 2, 3, 1, 8, 13
1503615961153,2, -5, 2, -1, -3, -1, -2, 3
1503615961175,15, 3, 15, 2, 1, 0, 0, -4
1503615961198,4, 15, -16, -5, -1, -3, -6, -6
1503615961213,0, -17, -8, -2, 0, -1, 1, -1
1503615961235,-32, -50, -34, -7, -5, -4, -1, -5
1503615961261,-29, 28, 32, 7, -1, 1, 0, 0
1503615961274,13, -9, -12, -3, -2, -2, 2, -1
1503615961295,36, 12, 13, 3, 1, 0, 1, 0
1503615961318,13, 2, -1, 0, -1, 0, 1, -2
1503615961333,46, 31, 13, 3, 0, 0, 0, 9
1503615961355,-8, -23, -8, -4, -3, -2, -5, 2
1503615961377,-13, -7, -5, -2, 0, -4, -10, 4
1503615961400,-14, -4, -3, -1, 1, -2, -26, 6
1503615961424,-26, 0, 3, 0, 1, 3, 13, 2
1503615961437,-6, -2, -6, -1, -3, -1, 16, -9
1503615961453,-12, 0, 0, 1, 4, 8, 8, -1
1503615961476,-10, -13, -7, -4, -2, -5, -11, -12
1503615961497,4, 12, 14, 2, -2, -1, 1, -2
1503615961513,12, 10, -6, -3, -2, -4, 4, -2
1503615961535,-7, -13, -5, -4, -2, -1, -3, 0
1503615961559,15, -4, -1, -2, 0, 1, 18, 19
1503615961567,2, 4, -7, 1, -1, 0, 0, 0
1503615961588,-5, -14, -13, -4, -2, 0, -2, 4
1503615961603,2, -13, -9, -2, -2, -1, -2, 0
1503615961626,-10, 0, 4, 3, 1, 0, -3, 4
1503615961648,5, -2, 0, 4, 9, 3, 0, -2
1503615961670,0, 3, 0, -2, -3, 0, 1, 5
1503615961685,8, 3, -2, -3, -4, -1, 4, 7
1503615961708,-20, -9, 1, -2, 2, 0, -2, -3
1503615961731,-9, -3, 0, 1, -4, 0, 1, -1
1503615961745,7, -3, 8, 1, -3, -2, 1, 0
1503615961768,6, 1, -4, -3, -1, -2, -1, 3
1503615961790,-22, 1, 10, 0, -3, -1, -2, -4
1503615961798,19, 5, -2, 0, -1, -1, -3, -1
1503615961822,-15, -3, -2, -2, -2, -1, 1, -5
1503615961836,4, -4, 0, -1, -2, 0, 0, -1
1503615961857,-4, 14, 3, 0, 0, -1, 0, -1
1503615961880,11, -5, 4, 0, 1, -2, -3, 3
1503615961895,-3, 3, -3, 0, 0, -1, -2, -2
1503615961911,-10, -19, -4, -2, 0, 0, -2, -3
1503615961927,7, 2, -1, 0, 0, -2, 2, -4
1503615961948,-2, 0, -6, -4, -2, 1, 0, 1
1503615961971,20, 7, -3, -2, 0, -3, 0, 0
1503615961995,2, 1, 0, 3, -2, 2, -1, 4
1503615962009,-2, 1, 1, -2, 0, -4, 0, -6
1503615962031,-6, 7, 7, 5, 1, 2, 8, 8
1503615962045,-6, -8, -4, -5, -2, -2, -6, -3
1503615962068,3, 3, 1, -3, -2, -2, 3, -1
1503615962090,-7, -2, -2, -2, -1, -3, -9, -10
1503615962106,13, 9, 2, 0, 1, 0, -3, 10
1503615962129,0, -1, 1, -1, 1, -2, 1, 1
1503615962150,-13, -4, -2, -1, -1, -1, -4, -1
1503615962166,17, 1, 5, 3, 2, 0, -1, 0
1503615962188,-7, 0, -5, -3, -4, 0, 3, -2
1503615962210,-1, -5, -5, -1, 3, 0, 4, 3
1503615962225,-21, -9, -4, -5, -5, -3, -11, -17
1503615962248,26, 2, 0, 0, 1, 1, 3, 7
1503615962270,-2, -1, -3, -3, -2, 0, 2, 0
1503615962285,-11, 6, 3, 0, 0, -2, -1, 1
1503615962308,-12, -2, 1, 3, 0, 0, 4, 9
1503615962331,-6, -9, -2, -4, -2, -2, -14, -8
1503615962346,-18, -2, -2, -3, -3, 0, 4, 1
1503615962368,4, -5, -3, -2, -3, -3, -2, -2
1503615962391,14, 2, -1, 0, 1, -3, 3, 6
1503615962407,0, 15, 4, -2, 0, 2, 0, -2
1503615962428,3, 0, 2, -1, 0, 0, 0, 0
1503615962451,22, 1, 2, 2, 0, -2, -9, -1
1503615962466,-9, -6, 2, -1, 1, -1, 0, -1
1503615962488,5, -5, -1, -3, -1, -2, 4, -13
1503615962511,-1, -5, -2, 0, -2, 0, 0, -1
1503615962525,-26, 0, 2, -3, -1, 0, -3, -5
1503615962541,-7, 2, 2, 2, 0, -2, -10, -24
1503615962566,-2, 4, -6, 0, 0, -2, 0, 13
1503615962579,-11, -6, 4, -1, -3, 0, 0, 0
1503615962603,-8, -5, 0, -1, -1, 1, 10, 6
1503615962623,13, 3, -1, -4, 1, -2, 4, 2
1503615962631,3, -3, -2, 0, -3, -1, 1, 5
1503615962639,20, -7, -8, -5, -2, -6, -8, -2
1503615962661,8, -2, 1, 0, 0, 0, 1, 11
1503615962683,1, 4, 8, 1, 0, -1, -1, -1
1503615962706,-4, -1, -2, 1, -2, -2, -9, 6
1503615962721,13, 3, 0, 0, 1, 1, 2, 15
1503615962744,2, 2, 4, 0, -1, 2, 10, 3
1503615962758,-22, -9, -2, 0, 0, -1, -4, -15
1503615962773,18, 10, 10, 3, 3, 0, -4, -3
1503615962788,-16, -6, -4, -1, -2, -1, 3, -1
1503615962811,2, -9, -7, -2, -2, 1, 1, 10
1503615962819,18, 1, 2, 1, 1, 0, 1, -2
1503615962841,17, 42, 11, -1, -1, -1, -2, 0
1503615962863,-34, 10, -3, 0, -1, 0, -1, -13
1503615962878,17, -8, -1, 0, 0, 1, 2, 6
1503615962904,1, -11, -7, -4, -2, -2, 0, 8
1503615962923,-27, 1, -5, -2, -3, 1, 3, 1
1503615962930,14, -2, 0, 0, 1, 0, -5, 8
1503615962953,14, 26, 9, 3, 1, 0, 5, 6
1503615962970,12, 6, 19, 4, 2, 3, 4, 0
1503615962990,-12, -11, -7, -2, 0, -2, -2, -4
1503615963013,-15, 4, -7, -4, -1, -3, -3, -3
1503615963028,8, -10, -1, -2, -2, 0, 2, -1
1503615963050,-49, -9, 3, -1, -3, -4, -13, -11
1503615963073,-5, -7, -6, -1, -2, 0, -2, 2
1503615963088,4, -17, -7, -1, 1, 0, 1, 10
1503615963111,16, -3, 0, 0, -2, 0, -1, 2
1503615963133,-1, 3, -5, -2, -3, -2, 0, -9
1503615963148,-7, -2, -3, -2, 2, -1, 9, 6
1503615963173,2, 4, -3, -3, -3, 0, -1, -11
1503615963193,17, 4, -4, -2, -1, -3, 0, -5
1503615963209,4, -3, 5, 2, 3, 0, 0, -1
1503615963230,-28, 0, 4, -1, -1, 0, 5, 1
1503615963253,-5, 2, -1, -2, -1, -2, -5, 4
1503615963272,3, -4, -3, 0, 0, 0, 0, 8
1503615963290,2, -7, 8, 1, -2, 0, -4, 2
1503615963313,-13, -1, -4, -2, 0, 0, 2, -3
1503615963328,13, 37, -2, -2, -2, -1, -7, -5
1503615963351,4, -10, -3, -1, -2, 0, -6, -7
1503615963373,22, -17, -4, -2, -1, 0, 3, 5
1503615963388,-1, -1, 4, 2, -1, -3, -6, -14
1503615963411,-3, -4, -3, -4, 0, -2, -3, 6
1503615963433,-13, -11, -5, -1, 0, 2, 2, -2
1503615963448,-15, -3, 3, 0, 1, -3, -6, -1
1503615963474,-1, 3, 1, 0, -1, -1, -5, -2
1503615963493,0, 3, -1, 0, 0, -1, -1, -2
1503615963516,-3, 2, 0, 2, -2, 0, 1, 3
1503615963531,1, -1, 11, 1, 0, 0, 2, -1
1503615963553,-3, 0, -4, 0, -2, -3, 6, 5
1503615963562,-1, 0, -6, -2, -2, -1, -9, -7
1503615963584,-4, -6, -2, -1, 0, 1, -1, -13
1503615963607,28, -7, 0, -1, -1, 1, 4, -14
1503615963621,-5, 12, 3, -2, -1, 0, 16, 16
1503615963644,-46, -9, -1, -1, -1, -1, -4, -8
1503615963666,-16, 1, 6, 0, 0, -1, 1, 3
1503615963682,8, -10, 0, 3, -1, 1, -2, -4
1503615963703,8, 13, -4, -2, 0, -3, -4, 5
1503615963725,-1, 9, 4, 0, -1, -1, -3, -9
1503615963741,-2, 4, -6, -3, 0, 0, 5, 0
1503615963764,8, -7, -5, -1, -3, -1, 1, 4
1503615963785,12, -1, -4, -3, -2, 0, -3, -1
1503615963801,-8, -6, 4, 2, 1, 1, -2, -7
1503615963824,13, -3, 2, 0, -1, -2, 1, 2
1503615963845,-63, -14, -5, -1, 0, 1, -1, -2
1503615963861,9, -9, -8, 0, 1, -2, -1, -1
1503615963883,16, -2, -2, -1, -1, -2, -12, -1
1503615963905,5, 5, -2, -1, 0, 1, -3, -11
1503615963921,13, -6, 1, 0, -3, -2, -4, -15
1503615963944,15, 16, 8, 5, 0, 2, 10, 6
1503615963966,-38, 3, 5, 0, 0, -2, -1, -5
1503615963988,-54, -12, -6, -3, -4, -3, -2, 2
1503615964003,-12, -2, -1, -3, -4, -2, 5, 1
1503615964025,-5, 5, 0, -2, -2, 1, 5, 2
1503615964043,15, -11, -5, 0, -1, 0, -3, 8
1503615964063,11, -1, -4, -2, 1, 1, 0, 10
1503615964086,-1, 13, 6, 0, -1, -1, -1, -6
1503615964101,-8, 0, -3, -1, -2, -1, -1, 15
1503615964116,-13, 5, -9, -2, -1, 0, -2, -1
1503615964130,-7, 5, 2, 0, -1, -1, -1, 0
1503615964153,37, 5, 1, 2, 1, 0, -3, -6
1503615964177,8, -7, -4, -1, -1, -1, 3, -4
1503615964190,-19, -3, -3, -3, 0, -4, -5, 4
1503615964213,0, -9, -2, -2, -2, -3, -17, 0
1503615964236,-32, 5, -2, 0, 0, 3, 7, 2
1503615964250,17, 2, 1, -1, 0, 1, 8, 3
1503615964273,-22, -8, -1, -4, -3, -3, 12, -2
1503615964296,9, 1, -4, 0, -1, -1, 3, 10
1503615964318,-5, -7, -1, -1, 1, 0, -3, -1
1503615964334,-17, 4, 6, 1, -1, -1, -7, -16
1503615964355,-14, -1, -9, 0, 0, 0, 3, 0
1503615964370,-14, 1, 0, 2, 0, 0, -7, -5
1503615964393,-1, -1, 3, -2, -2, -1, -4, -6
1503615964416,22, 15, 7, 0, 2, -3, -7, 5
1503615964437,4, -7, -1, 1, 1, 2, 2, 0
1503615964455,15, 4, -8, -3, -3, -3, -4, -2
1503615964475,-18, -1, 3, 3, -1, 1, -1, 9
1503615964505,11, 2, 1, -1, 1, 0, 2, -4
1503615964514,-23, -2, 2, -4, -2, -4, -3, -25
1503615964536,2, -5, -6, -1, -3, 0, -2, -1
1503615964558,8, -3, 2, 1, -1, 1, 6, 10
1503615964573,14, 2, 1, 0, 0, 0, 2, 7
1503615964595,-5, -4, -4, -3, -1, -1, -4, -4
1503615964604,-14, -7, 4, 0, 0, -2, 7, -1
1503615964626,-6, -2, -2, 1, 1, -1, 0, 1
1503615964648,6, -5, -6, -3, -4, -3, -7, -4
1503615964663,-3, -10, 0, -2, -3, -1, -11, -18
1503615964686,-7, 9, 1, -1, 1, 1, 3, -6
1503615964708,22, -3, 1, 0, 4, 2, 3, 12
1503615964723,6, -1, -4, -3, -4, -3, -18, 1
1503615964747,-26, 8, 1, 1, 2, 0, 16, 8
1503615964768,-12, -9, -8, -1, -2, -2, 1, 8
1503615964785,-4, -4, 5, 1, 0, 0, 0, -2
1503615964805,11, 5, -2, -2, -4, -1, -1, 10
1503615964828,-12, 5, -2, -2, -1, 1, 2, 0
1503615964843,13, -9, -3, 1, 3, 4, -4, -5
1503615964865,-2, 0, 1, -1, -2, -3, -3, 4
1503615964888,-5, 0, 6, 2, 1, 0, -5, -5
1503615964903,-3, 0, -2, 3, 2, -4, -16, -23
1503615964925,-7, 17, -1, -5, -6, -3, 4, -14
1503615964949,-11, -2, 0, -3, -1, -3, -7, -1
1503615964963,-8, -6, 1, 0, 1, -3, -9, -7
1503615964985,-4, 6, -8, -3, -2, 2, 5, 9
1503615965008,23, 12, -1, 0, -1, 0, 5, 19
1503615965023,5, -9, -1, -1, 0, 0, 17, 7
1503615965045,0, 1, 4, 3, 1, 1, 0, -8
1503615965068,9, 3, -3, 0, -1, 1, 1, 5
1503615965087,-6, -10, -3, -3, -2, -3, -4, -2
1503615965105,-4, -1, 2, 7, 4, 1, 6, -1
1503615965128,-7, -4, 1, -3, -4, -1, -3, -6
1503615965143,-12, -18, 0, -1, 1, -1, -1, 1
1503615965165,10, 0, -3, -2, -1, -2, -9, -8
1503615965188,-22, -8, -4, -3, -2, -3, -12, -16
1503615965204,-10, 4, 0, -1, -1, 2, 0, -2
1503615965226,-1, -3, -4, -2, -2, -3, 0, 2
1503615965248,-9, 0, -3, -5, -4, -2, -2, -9
1503615965264,-8, -3, 0, -1, -3, -1, 6, 16
1503615965287,10, 3, 1, 1, 0, 1, -4, 5
1503615965308,8, -5, -5, -1, 0, -3, -5, -17
1503615965323,8, 21, 10, 1, -2, 1, 1, -8
1503615965345,-27, 10, -5, -2, 0, -3, -5, -1
1503615965368,26, 27, 1, -3, 1, 1, -6, 13
1503615965390,21, -21, -2, 1, 0, 0, 0, -4
1503615965405,-7, -11, -7, -3, -2, -2, -5, -12
1503615965428,11, -1, 5, -2, -1, 2, 8, 8
1503615965453,0, 9, 2, 0, 1, -2, 0, -16
1503615965465,-15, -19, -2, 0, -2, 0, 2, -8
1503615965488,6, -6, 1, 1, 0, -1, 6, 14
1503615965510,-54, -4, -1, -3, -2, -2, -2, -8
1503615965525,14, -5, -5, 2, 0, 0, -8, 3
1503615965540,8, 0, 2, -2, -2, -3, -4, 7
1503615965556,7, 12, 2, 0, 2, -1, -19, -21
1503615965577,7, 1, 3, 0, -1, 1, 1, 0
1503615965600,31, 1, -3, -2, -3, -1, 0, 10
1503615965615,-27, 6, -4, -5, -6, -2, -1, -5
1503615965637,-1, -9, 2, 0, 1, -2, -2, 8
1503615965660,-21, 46, 9, 2, 1, -2, 3, 13
1503615965675,-4, -17, -1, -1, -1, -1, 10, -10
1503615965697,3, -8, -3, -3, -6, 1, 2, 1
1503615965721,17, -4, -3, 0, -2, -1, -5, -3
1503615965735,-1, 23, 1, -1, 0, -3, -5, -5
1503615965757,-54, -24, -9, -3, -1, 0, 4, 12
1503615965779,5, -12, 0, 1, 1, -3, -2, -3
1503615965796,11, -19, -8, 1, 3, 1, -3, -5
1503615965817,5, -6, -3, 3, -1, 1, 5, -2
1503615965840,6, 0, -2, -5, -1, 0, 0, 1
1503615965856,27, 5, -2, 3, 2, 0, 1, 7
1503615965877,-5, -2, -3, -2, 0, -3, -3, -5
1503615965900,-6, -1, 4, -3, -5, -2, -4, -5
1503615965915,4, 0, -1, 2, 1, 0, -3, 6
1503615965938,5, 5, 4, -3, -1, 0, -2, -12
1503615965967,8, 5, 4, 1, 0, 0, -3, 1
1503615965975,-13, 15, 13, 2, -5, -2, 2, 2
1503615965998,-14, -4, -8, -6, -3, -3, 0, -9
1503615966020,20, -4, -3, -1, -1, 1, -14, -17
1503615966036,5, -10, -4, 1, 0, 0, 9, 16
1503615966058,5, 1, 0, 1, 2, 0, 3, 8
1503615966080,-10, -21, -3, -11, -12, -3, -10, -10
1503615966095,-10, 1, -3, -4, -3, 2, 7, 24
1503615966118,-11, 5, 2, 2, 0, -3, -4, -1
1503615966139,11, 5, 4, -1, -3, -2, -4, -4
1503615966148,-12, -23, -6, 3, 1, -2, -22, -14
1503615966170,15, -2, 2, -3, -4, 1, 11, 22
1503615966186,2, 1, 3, 0, 1, 1, 11, -1
1503615966208,0, 4, 5, -5, -3, -4, -12, -35
1503615966230,3, -3, -1, -1, -5, -2, 4, 11
1503615966246,-10, 5, 0, 4, 7, 4, -1, -10
1503615966275,13, -3, -1, 5, 6, -1, -19, -18
1503615966291,-6, -2, -1, -2, -4, -3, 4, -1
1503615966313,5, 20, 1, -1, -5, -1, 8, 10
1503615966328,2, -10, -2, -2, -2, -3, -8, 13
1503615966350,3, -6, 1, 3, 1, 0, -1, 5
1503615966373,-3, -8, -6, 0, 1, -4, 1, 6
1503615966388,-2, 8, -5, -9, -8, -2, 5, 9
1503615966410,4, -8, -4, -3, -4, -1, 2, 4
1503615966434,8, -1, 4, -1, 3, -1, 2, 2
1503615966448,4, -3, -3, -2, 1, 0, -3, -3
1503615966470,1, 7, 3, 3, 6, -1, 1, -11
1503615966494,-1, -10, -2, -2, 0, 0, 2, 4
1503615966508,0, -9, -4, -3, -6, -1, -5, 1
1503615966531,-3, -3, 1, 6, 3, 5, 15, 29
1503615966545,3, -3, 0, -3, -4, -2, 10, -4
1503615966561,-4, 13, 4, 3, 11, 1, -4, 4
1503615966590,0, 7, 3, 0, -3, -3, -4, -11
1503615966598,-1, 6, -1, -2, -2, -1, -9, -7
1503615966619,0, 1, 0, 0, 1, -2, 2, -7
1503615966628,0, -5, 4, -3, -2, -5, -3, -20
1503615966650,-1, -7, -1, 0, -1, 1, 2, 0
1503615966673,-5, -3, -3, -1, 0, -4, -11, -10
1503615966688,2, 3, -1, 1, -3, 1, 0, 5
1503615966710,4, 4, 1, 1, -3, -1, -6, -2
1503615966733,-3, -10, -4, -1, -2, -3, -2, 5
1503615966748,-1, 1, -1, -1, 0, -1, 3, -3
1503615966770,2, -7, -1, -1, -2, -3, -5, 4
1503615966793,3, 15, 4, 0, 0, -1, -2, 6
1503615966800,0, -3, -1, -4, -1, -1, -2, -2
1503615966822,-1, -8, -3, -1, 2, 1, 4, 2
1503615966838,-1, -4, -3, -2, -3, 2, 10, 2
1503615966859,1, -1, -1, -1, -2, -1, -1, -3
1503615966882,0, 15, 4, 2, 1, 0, -7, -3
1503615966898,-4, -17, -5, -2, 0, -3, -7, -2
1503615966920,-1, -6, -4, -1, -1, -2, -10, -1
1503615966942,-1, 18, 2, 0, -1, -2, -1, -8
1503615966958,-2, -4, 2, -2, -1, 2, 10, 1
1503615966980,-1, -4, -1, 0, -4, -2, -10, -1
1503615967003,1, 11, -1, -2, 2, -2, -2, -4
1503615967018,-2, -16, -3, 1, 1, -3, -6, 3
1503615967040,-3, -8, -3, -1, 0, 1, 9, 0
1503615967064,-2, -4, 2, 1, 0, 2, 3, 0
1503615967078,0, 1, 1, -2, 0, -2, 2, 0
1503615967100,0, -3, -2, -1, -1, 0, -2, -2
1503615967123,-1, -1, -4, -2, -3, -5, -8, -3
1503615967146,-1, -1, -2, -1, -2, -1, -3, 7
1503615967161,0, 1, -1, 1, -2, -1, 3, 0
1503615967183,-1, -2, 1, -3, -1, -1, -2, -2
1503615967206,2, -1, 1, 0, 0, 1, 2, -2
1503615967221,0, -1, 1, 1, -1, -1, 4, 3
1503615967243,0, 1, -1, -1, 1, -2, -3, -1
1503615967267,0, 2, -3, -2, -1, -1, 0, -2
1503615967281,-2, -8, 0, -1, -1, -2, -1, -1
1503615967304,-2, -1, 1, 3, -3, 0, 1, -1
1503615967326,-1, 1, 1, -1, 1, 1, 0, 1
1503615967341,-3, 0, -4, -3, 1, 2, -3, -1
1503615967364,1, 0, 1, 1, 0, -1, -3, -2
1503615967386,0, -4, -4, 0, -2, -1, 1, 1
1503615967401,-1, 2, -1, -2, -3, -1, 7, -3
1503615967430,-2, -3, -1, -1, 1, -3, -4, -3
1503615967446,0, 4, 1, -2, 1, 1, -1, 1
1503615967461,0, 3, 0, 0, -1, 0, -1, -2
1503615967483,0, 1, -2, 0, 0, 2, 1, 3
1503615967506,-2, -8, -1, -1, -2, -1, 2, 5
1503615967521,-1, 0, 3, 1, -1, -3, -7, -3
1503615967544,-3, -4, -4, -4, -3, 0, -2, -2
1503615967567,0, -3, 0, -1, -1, -5, 8, -1
1503615967581,3, 18, 1, -1, -2, 2, 4, -3
1503615967604,-3, -7, -2, -2, 0, 0, 1, -2
1503615967626,-1, -4, 0, 1, -2, 0, -6, -1
1503615967641,2, -4, -6, -1, 2, -2, -26, 2
1503615967663,-2, -1, -1, -1, 0, 0, -1, -8
1503615967671,-2, 2, 1, -2, 0, 1, -1, -1
1503615967693,-2, -2, 0, -1, -2, 0, 6, -2
1503615967715,1, 1, 0, 1, 0, 0, -18, 0
1503615967739,0, -2, -2, -2, 0, 1, 5, 0
1503615967753,-1, 3, 7, 2, -2, -1, 2, -4
1503615967775,-2, -2, -2, -1, -2, -2, 0, 1
1503615967791,0, -3, -2, 0, 2, 0, 1, -2
1503615967813,-1, 18, -1, -3, -2, -3, 1, 3
1503615967838,-1, -7, 1, 0, -4, -1, -1, -2
1503615967850,-1, -5, -2, 1, 0, 1, -9, -2
1503615967873,-3, -8, 1, 1, -1, 0, 7, 4
1503615967895,0, -6, -3, -3, -1, -4, -1, -1
1503615967911,0, -2, -3, -1, 0, 3, 15, 1
1503615967933,2, -6, -1, 0, 0, 0, -3, 1
1503615967955,-3, -13, -7, -3, -3, -2, 1, -4
1503615967971,2, 6, -1, -1, 3, 3, 14, 6
1503615967993,1, 6, 3, 0, -3, -2, 0, -4
1503615968015,-3, 6, 2, 0, -1, -3, -10, -2
1503615968030,-1, -6, -1, 0, -1, 1, -5, -8
1503615968053,1, 3, -5, -1, 0, 0, -1, 0
1503615968076,-1, 3, 0, -1, -1, -2, 0, 0
1503615968090,-1, -3, -2, -1, -4, -1, -8, 0
1503615968113,-2, -3, 0, -1, 2, 3, -2, 1
1503615968137,-1, -4, -1, -2, -1, -2, 8, 1
1503615968143,-2, -1, 0, -1, -2, -3, -12, 0
1503615968166,2, -2, 4, -1, -1, 1, 1, 4
1503615968188,0, -6, -4, -1, -1, 0, -12, 1
1503615968205,-1, -1, -4, -2, -2, -4, -4, -1
1503615968226,-2, 3, -2, -1, -1, 0, -1, -2
1503615968248,-2, 1, -2, -1, -1, 1, 0, -5
1503615968263,0, 0, -3, -3, -1, 2, 7, 1
1503615968286,-1, -6, 0, -1, 0, -3, -3, 0
1503615968293,-1, -2, -5, -2, -1, -1, 1, -2
1503615968315,-2, 4, -2, -1, -3, 1, 1, -3
1503615968341,0, 3, 1, 0, 1, -1, -3, -5
1503615968353,-2, 4, 0, 1, 0, 0, 13, 2
1503615968375,-1, 2, -2, -2, -2, 0, 3, -1
1503615968384,-3, -4, -2, -1, -2, 0, -4, -2
1503615968407,-2, -5, -1, -2, -1, -3, 2, 0
1503615968428,-1, -10, -2, -2, 0, -1, 15, 0
1503615968444,0, 2, 1, 0, -2, 1, 6, 0
1503615968466,1, 16, 2, -1, -1, -1, -12, 0
1503615968488,-4, -24, -10, -5, -1, 2, 13, -1
1503615968504,0, -6, 1, 2, 0, -1, -2, 3
1503615968526,0, -4, 0, 0, 2, -1, -6, -4
1503615968548,1, 7, -1, 0, -1, -2, -1, 1
1503615968563,-2, -5, -1, 0, -3, -2, -2, -8
1503615968586,0, 1, -2, 0, 0, -3, -6, 2
1503615968608,-1, 0, 0, -2, -1, -2, -6, -3
1503615968623,0, -13, -2, -1, 1, -1, -3, -4
1503615968646,-1, -12, 2, -1, 0, 0, 1, 1
1503615968668,-3, 6, 1, 1, -1, -2, -9, -1
1503615968683,0, 21, 1, 1, -1, -1, -4, 1
1503615968706,1, 0, 0, -1, 0, 0, -5, 0
1503615968727,-1, -4, 2, 0, 1, -3, 0, 1
1503615968735,0, 7, 0, 0, -2, 1, 2, -6
1503615968758,-2, -2, -1, -2, -1, -3, 0, 5
1503615968773,-2, -6, -4, -1, -1, 1, -3, 2
1503615968795,-1, 3, 0, -1, -3, -2, -1, -2
1503615968818,-1, 2, -5, -1, -1, 1, -2, -3
1503615968833,-1, -3, -1, 0, -3, -3, -3, -1
1503615968855,-2, -14, -1, 0, -2, -1, 3, 4
1503615968878,0, 0, 1, 1, 0, 0, 2, -2
1503615968893,-1, 3, 1, -2, -1, -3, -4, -2
1503615968915,0, -3, 1, -1, -1, -2, -23, 1
1503615968938,-1, -4, -4, 2, 0, 2, 6, 3
1503615968953,2, -1, 0, -2, -2, -3, 5, -4
1503615968980,0, 10, 3, 0, 2, 3, 8, -1
1503615968998,-1, 1, -1, -2, -2, -5, -8, 2
1503615969013,-2, -5, 4, 1, -1, 3, 10, -1
1503615969035,0, 4, -1, 0, -1, -4, 3, 0
1503615969058,-1, 7, -5, -3, 0, -1, 1, -8
1503615969081,-5, -8, -4, -2, 0, 1, -8, 2
1503615969102,1, -4, -1, -1, -1, -2, -7, -1
1503615969118,-1, 1, 0, -1, -1, -3, -15, -3
1503615969140,-2, 4, 1, 0, 0, 0, 7, -5
1503615969155,-1, -4, -1, 0, -1, -3, 1, 0
1503615969179,0, 1, 3, 0, -1, 2, 0, 0
1503615969199,-1, -9, 1, 1, -1, 0, 1, 1
1503615969215,0, 1, -1, -1, 1, 2, 4, 0
1503615969238,-1, 1, -1, -2, -1, -1, -5, -6
1503615969263,1, -2, -4, -1, 0, -1, 6, 2
1503615969275,5, 9, 1, 0, -3, -2, -6, 3
1503615969298,-4, -8, -1, -1, -1, 1, 11, -6
1503615969319,-2, -12, -5, -2, 0, -1, 12, 0
1503615969328,-4, -8, 1, -1, -2, -3, -1, -1
1503615969350,-3, -5, -1, -1, 1, 0, -3, 0
1503615969365,0, 1, 3, 1, -2, -3, 2, 0
1503615969388,-2, -16, -1, 1, 1, 0, 0, 3
1503615969410,-21, -3, -1, 0, 0, -1, -2, -5
1503615969425,10, 9, 0, 0, -1, -1, -4, 2
1503615969448,3, 0, -2, -1, 2, -1, -17, -2
1503615969470,3, 24, 1, -3, -2, -2, 2, 2
1503615969486,1, -13, -5, 0, -1, -2, -6, -1
1503615969508,1, -7, -5, 1, -2, -1, 4, 1
1503615969530,1, 5, 0, -2, -2, 0, 3, 5
1503615969548,0, -7, -3, 0, 1, 1, 5, 3
1503615969568,-2, -9, -5, 0, -1, -1, -5, -1
1503615969590,0, 6, 1, -2, 0, 0, 7, -6
1503615969606,0, 7, 4, -1, -1, 0, 2, -4
1503615969628,-1, -15, 3, 1, -1, -1, 2, -1
1503615969650,-1, -1, -3, -1, -1, -1, 10, -1
1503615969665,-1, -4, -2, 0, -1, 0, 3, -2
1503615969689,3, 2, 0, -3, -3, -3, -4, 0
1503615969710,1, 3, -1, 10, 5, 3, -10, -1
1503615969726,-5, -4, -2, -5, 0, -3, -2, -2
1503615969750,-18, 3, -3, -8, -3, 1, 1, -2
1503615969770,14, 3, -3, -1, 0, 0, -1, -1
1503615969788,-9, -3, 0, 1, 3, 2, 11, -6
1503615969808,-2, -1, 0, -2, -2, -1, -8, 4
1503615969830,-6, -6, 0, 3, -1, 2, -1, -2
1503615969846,-1, 5, 2, -4, -1, 0, -9, 0
1503615969868,5, 7, 2, -1, -3, -2, -10, -1
1503615969890,0, -3, -3, 1, -2, -5, 2, 3
1503615969906,4, -2, -1, -1, -1, -4, -1, -1
1503615969928,-16, -11, 0, 1, -2, -3, 1, -1
1503615969952,11, -2, -1, 0, -3, -1, -2, 0
1503615969966,2, -4, 0, -1, -4, -2, -1, 2
1503615969994,-8, 0, -4, -1, -1, 1, -4, -7
1503615970010,0, -1, -2, -3, -1, -1, -1, -1
1503615970033,7, 1, -2, -3, -3, 1, 2, -2
1503615970048,4, -2, 0, 0, 0, -2, -4, -2
1503615970070,4, -1, 2, 3, 0, 0, 3, 1
1503615970078,1, 0, -2, 1, -1, -2, 2, -3
1503615970100,3, 8, 5, -1, -1, 0, -1, -1
1503615970122,-4, -10, -8, -1, -2, -1, 0, 2
1503615970138,-3, -3, -3, -1, -1, -1, -2, 0
1503615970161,-4, 0, 0, -2, -2, 0, 8, 3
1503615970182,-4, -2, 2, 0, 1, -1, 1, -3
1503615970198,-1, -1, 2, -1, -1, 0, -3, -2
1503615970222,0, 11, -3, -4, 0, -3, -3, -2
1503615970249,2, 7, -3, -3, -5, -1, -1, 1
1503615970263,9, -8, 0, 1, -2, -1, -2, 2
1503615970280,6, 0, 0, -1, 0, -2, -4, -2
1503615970302,-1, -16, -5, 0, 1, 0, 3, 0
1503615970320,-11, 7, 2, 1, 1, 1, -14, -2
1503615970333,7, -9, 1, 0, -1, 0, 0, 0
1503615970357,1, 8, -1, -2, -2, -4, -5, 2
1503615970370,0, 2, 1, 0, 0, -1, 0, -2
1503615970393,3, 3, 0, -1, -3, -2, 0, 1
1503615970408,2, 19, 5, -1, 0, 1, 8, 3
1503615970430,1, -13, -1, -1, 2, 1, -6, -4
1503615970465,-2, -7, -6, -3, -1, -1, -2, -2
1503615970482,3, -10, -6, -3, -4, 1, 1, -1
1503615970498,3, -4, -2, 0, -4, -4, -10, -8
1503615970526,-9, -3, 3, 1, 0, 0, -1, -24
1503615970542,2, 5, 8, 2, -4, 0, 1, 7
1503615970558,-10, -13, -7, -5, -2, -2, 0, 5
1503615970573,5, -3, 0, 5, 1, 0, -4, -2
1503615970593,-3, 29, 9, 3, 0, -2, -3, -3
1503615970610,1, -6, -4, 0, -2, 0, 10, 6
1503615970632,-42, -14, -5, -4, -3, 0, -1, -3
1503615970640,24, -4, -2, -4, -2, 0, 3, 11
1503615970662,9, -1, -1, -4, -1, -1, -6, -3
1503615970677,11, -1, -3, 0, 0, -1, 2, 5
1503615970700,-1, -3, -3, -1, -2, 0, 0, -3
1503615970726,7, -6, -5, 1, -1, -2, -1, 1
1503615970737,-21, 1, 0, -2, -2, -2, 0, -1
1503615970760,-18, -13, -3, -1, -1, -2, 3, -4
1503615970782,1, -4, -4, 3, 0, 3, 5, 1
1503615970798,17, 5, 3, 0, 0, -2, -1, 6
1503615970820,11, 9, 4, -1, -1, -2, -6, -1
1503615970842,-5, -1, -3, -2, 1, 1, 4, -2
1503615970858,7, 2, -2, 2, -1, -1, -5, -5
1503615970873,-12, -3, -1, -2, -1, -2, -4, -10
1503615970890,-2, 2, 1, -2, -3, -4, -4, 4
1503615970910,6, -5, -1, -1, 0, -2, 7, -4
1503615970933,-8, -25, -9, -2, 2, 2, -4, -11
1503615970960,5, 3, -5, -2, -4, 0, 0, 3
1503615970970,2, 1, -4, -3, -2, -1, -3, 4
1503615970993,-2, 0, -4, 0, -2, 2, 14, 7
1503615971015,15, 7, 2, 2, -1, -1, -3, -6
1503615971030,-14, -1, 2, -1, 2, -1, -7, -22
1503615971052,12, -16, -2, 0, -1, 0, -4, 4
1503615971075,-6, 4, 1, -1, -4, 0, 1, 2
1503615971094,0, 3, 0, 3, 8, -1, -4, 0
1503615971112,-2, 4, -3, -4, -2, -1, -2, 3
1503615971135,-9, 5, 0, -2, -3, -2, -3, 1
1503615971150,-12, 3, 0, 1, -3, -1, 5, 3
1503615971172,4, -5, -2, -3, -1, 0, 1, 7
1503615971195,-3, 3, -1, -1, -5, -2, -10, -6
1503615971210,10, 53, 23, 5, 2, 2, 2, -10
1503615971232,-9, -21, -9, -1, -2, -1, 2, 4
1503615971256,-10, 4, 1, -1, 0, -2, -20, -22
1503615971271,9, 1, 5, 1, 0, 2, 13, 2
1503615971293,0, -12, -7, -1, -1, -2, -1, 13
1503615971315,0, -12, -2, 0, 0, 0, 5, 3
1503615971330,-3, -5, -7, -4, -2, -2, -8, -1
1503615971352,7, -6, 9, 0, -3, -1, 0, 6
1503615971375,4, -11, -1, 0, -1, -1, 7, 2
1503615971390,-3, 4, -5, -2, -2, -2, -5, -2
1503615971412,-1, -7, -6, -3, -3, -1, 4, 3
1503615971436,0, 7, -2, -1, 0, 3, 4, 2
1503615971450,-2, -8, -4, -1, -1, 1, 18, 6
1503615971473,-13, -4, -2, 0, -1, -3, -3, -3
1503615971495,1, 3, -1, -2, 0, -1, -6, 1
1503615971510,0, -3, -1, -1, 2, -3, -7, 0
1503615971533,0, 17, 5, 2, -1, -1, 4, -1
1503615971555,2, -17, -2, -1, -2, 1, -5, 1
1503615971570,-2, -9, 2, -1, 0, -1, -3, -1
1503615971596,16, -5, -2, -1, -1, -1, -5, 4
1503615971615,3, 5, -2, -3, -2, -1, 7, -2
1503615971631,-6, 3, -4, -2, 0, 0, 3, -1
1503615971652,-5, 0, -1, -1, -1, 1, -5, -1
1503615971676,3, 4, -1, 0, -1, -2, -3, -4
1503615971690,3, 12, 8, 2, -1, 1, 2, 1
1503615971712,-2, 0, 1, 0, 1, -1, -12, 1
1503615971735,4, -7, -7, -3, -1, -2, -1, 4
1503615971750,-3, 10, 6, 2, 0, 1, -1, 0
1503615971772,0, 2, -6, -2, -2, 1, -3, -5
1503615971797,-8, 33, 4, -3, -2, -2, -7, -9
1503615971810,0, -16, -6, -2, 0, 1, 4, -3
1503615971833,-1, -7, -5, 0, -1, 0, 1, -1
1503615971856,-5, -8, -3, 3, 2, 2, 7, 4
1503615971877,22, -2, 4, -2, -4, -3, 0, -3
1503615971892,-4, -14, -5, -1, -1, -1, -7, -2
1503615971918,8, -9, 4, -1, -2, -1, 2, -1
1503615971938,8, -8, -5, 0, 1, 0, -4, 0
1503615971952,-19, 2, -1, -4, -4, -4, 2, -5
1503615971975,17, 4, 5, 1, 1, -1, -7, 3
1503615972007,15, -5, -2, 0, -3, -2, -1, 1
1503615972027,-16, -7, 3, 0, 0, -1, -3, 1
1503615972043,-3, 0, 5, 3, 2, 1, 2, 2
1503615972067,5, -5, -4, -3, 0, 1, -1, 0
1503615972087,17, 19, -3, -6, -5, -6, -14, -7
1503615972103,-14, -18, -6, -4, -2, 0, 2, 1
1503615972124,-48, 6, -2, -1, -1, 0, 0, -6
1503615972147,17, 5, -1, -4, -2, -3, 3, 6
1503615972163,21, 10, -1, -2, -1, 1, -1, -2
1503615972178,4, 24, 7, 1, 0, 0, 1, 0
1503615972192,21, 9, 2, 0, -1, -3, -9, -11
1503615972215,-20, -12, -3, -4, -2, -1, -1, 0
1503615972238,-23, 14, 1, -2, -2, -2, 1, 0
1503615972246,0, -4, -6, -3, -2, -1, 4, 1
1503615972272,19, -4, -8, -3, 0, -4, -3, 1
1503615972290,14, -9, -2, 1, 0, 2, 11, 2
1503615972306,-29, 4, 0, -2, -1, -3, -3, -4
1503615972313,1, -5, -8, -5, -3, -2, -2, -1
1503615972337,11, -26, -5, 1, -1, 0, 0, 5
1503615972357,-1, -7, -4, -5, -5, -2, 1, 5
1503615972373,33, 20, 16, 5, 3, 1, 1, 6
1503615972395,-14, -1, -2, -3, -1, -4, -15, -13
1503615972417,-2, 2, -2, 1, -1, 0, 8, 6
1503615972435,-13, 5, -3, -1, -3, -2, 2, -1
1503615972455,-7, -11, -7, -2, -1, 0, 2, 0
1503615972478,1, -18, -5, -3, -1, -3, 7, 1
1503615972492,-5, 16, 2, 0, -2, -1, 3, -7
1503615972515,-31, -9, -5, -3, -1, -1, -6, -6
1503615972538,11, -1, 0, -1, 0, -4, -2, 1
1503615972546,5, -20, 7, 0, -1, -1, 2, 1
1503615972569,3, 5, -1, -2, -2, -1, 1, -1
1503615972590,-5, 8, -1, -2, -2, 0, 16, 5
1503615972597,14, 2, -1, 0, 1, 2, 3, 13
1503615972613,3, -10, 2, -2, -2, -2, -4, 1
1503615972636,-19, -6, 3, 1, 1, -1, -2, -6
1503615972658,-4, 17, -3, -7, -4, -2, 0, 4
1503615972673,-6, -4, -10, -4, -6, -3, -2, 9
1503615972695,7, 8, -1, 0, 0, 0, 0, -2
1503615972718,11, -1, 1, -3, 1, 2, 2, 2
1503615972732,-43, -1, -3, 2, -1, -2, -3, -5
1503615972755,10, -7, 1, 5, 3, 1, 1, -3
1503615972778,7, 5, 2, 0, 1, -1, -1, -3
1503615972792,-32, -4, 3, 0, -1, 1, -3, -9
1503615972815,21, -3, -2, 3, 0, -2, -2, -2
1503615972839,19, 2, 10, 0, -1, -1, 1, 2
1503615972860,1, -5, -10, -3, -1, 0, 10, 12
1503615972875,0, 0, -2, -2, -1, -2, 0, -1
1503615972897,10, -2, -1, -2, 0, 2, 1, -2
1503615972920,-9, 12, 3, 0, 1, -2, -8, -17
1503615972938,0, -5, -5, -1, -3, -2, -15, -9
1503615972957,-1, 1, 7, 0, 4, -1, -18, -13
1503615972980,4, 1, -3, 0, -3, 1, 10, 10
1503615972995,8, -8, -2, 0, -2, -2, 4, 4
1503615973017,-39, -2, -1, -1, -4, -2, -4, -6
1503615973040,2, -4, 1, 2, 3, 3, 6, 5
1503615973055,6, 3, -3, -2, -1, -2, 6, -2
1503615973078,7, 1, 0, -1, -1, -2, -6, 1
1503615973100,-7, -6, -2, -3, -1, 0, 0, 10
1503615973115,15, 1, -2, -4, -1, 0, -1, -5
1503615973140,17, 6, 4, 0, -2, 0, 13, 22
1503615973160,-2, -7, -7, -2, 0, -1, 0, -2
1503615973175,0, 2, 4, 6, 2, 2, -1, -3
1503615973197,-10, -2, 0, -3, -1, -1, -2, -2
1503615973220,-4, 3, -2, -1, -3, 1, -2, -2
1503615973235,7, -17, -4, -2, 0, -1, -3, -4
1503615973257,-2, 3, -1, -1, 0, 0, 1, -1
1503615973280,8, -2, -2, -2, 2, -1, 0, -1
1503615973295,-6, -1, -4, -2, -4, -2, -7, -3
1503615973317,-25, -5, 0, -2, -2, -3, -2, -9
1503615973342,17, 4, 0, 0, -4, -1, -6, -8
1503615973355,3, 2, 2, -2, 4, -4, 3, 3
1503615973378,3, 0, 5, -1, 0, -1, -2, -3
1503615973400,-22, 10, 0, 0, -3, -1, -3, -5
1503615973415,-4, -3, -3, 1, 0, 0, -10, -7
1503615973431,3, 8, 4, -2, 0, 0, -2, 0
1503615973446,3, -6, -3, -2, -1, -3, -2, -2
1503615973468,-17, -11, -4, -1, 2, -1, 1, -3
1503615973497,-21, 18, 2, 0, -2, 0, -7, -9
1503615973506,12, -6, -1, -1, -1, 0, -3, 2
1503615973528,3, 11, -2, 0, -2, -3, 1, 1
1503615973551,4, -12, -1, 0, -3, 2, 1, 1
1503615973565,3, -7, -2, -3, 0, -3, -3, -2
1503615973588,11, -11, -6, -3, -4, -1, -3, -8
1503615973613,1, -8, 2, -1, -2, -3, 0, 2
1503615973625,3, -5, -2, -3, 2, 1, 4, 8
1503615973648,-2, 3, -3, -2, 1, 2, 10, 1
1503615973670,4, 2, 2, 2, 0, -2, 1, -2
1503615973685,-5, 4, -1, -1, -2, -3, -4, 1
1503615973710,0, 1, -2, 0, 0, -1, -3, 0
1503615973730,-8, 5, 3, -1, -3, -1, 0, 1
1503615973752,-5, -4, -1, 11, 16, 1, -5, -4
1503615973768,2, -3, -1, -6, -9, -1, -1, 0
1503615973790,2, 14, 1, -3, 0, 0, 2, 2
1503615973815,-2, 12, 8, 0, 1, 0, -3, 1
1503615973828,4, 5, 3, -1, -7, -4, -6, -3
1503615973850,-3, -8, -2, -2, -2, -2, 2, -7
1503615973873,-2, -8, -6, -3, -1, -1, -1, -2
1503615973888,-3, -10, -3, -2, 0, -1, -6, 2
1503615973913,-4, -8, -5, -2, -1, 0, 0, 0
1503615973932,-2, -1, 0, 1, -2, 0, 3, 0
1503615973949,2, 8, 0, -1, -3, -2, -16, -10
1503615973963,1, -1, -3, -1, -1, -1, 1, -2
1503615973979,-2, 1, 1, -2, 0, -2, 1, -3
1503615974000,-2, -2, 1, 0, 0, -1, 2, 6
1503615974023,-1, -2, -2, -1, 0, 0, -2, -2
1503615974037,1, -1, -1, 0, 0, 1, 4, 4
1503615974060,-1, 6, 2, -3, -1, -1, 1, 1
1503615974083,-3, -3, -1, -4, -4, 0, -1, -1
1503615974097,-1, -2, -2, 2, -2, -4, -11, -5
1503615974120,0, -4, -1, 0, 2, 0, -4, -3
1503615974128,1, -4, -3, -1, 1, 0, 4, -3
1503615974143,0, 2, -1, -1, 2, 0, 18, 9
1503615974158,1, 6, 3, 2, 0, -2, -1, -5
1503615974181,0, 16, 6, -3, -3, 0, -3, 0
1503615974203,-1, -15, -3, 0, -1, -2, -5, -4
1503615974219,-1, -3, -3, -1, 1, -1, -5, 2
1503615974240,-3, -3, 0, -2, 1, 0, 3, -1
1503615974263,1, 0, -6, -4, -3, 0, 2, 5
1503615974277,-2, 0, -3, -3, -2, -1, -1, -1
1503615974292,1, -4, -1, -1, 0, -2, -1, 2
1503615974309,-3, -5, -2, -1, -1, -2, 3, 0
1503615974330,-1, -5, -6, -2, -3, -3, -2, -1
1503615974352,-2, -7, -4, -2, -3, -2, -1, 0
1503615974368,-1, -6, -2, -1, 0, 2, 12, 0
1503615974390,-3, -8, 3, -1, 2, 0, -8, -7
1503615974414,-1, -5, 3, 0, -1, -1, -3, -1
1503615974428,-1, 0, -3, -2, 0, -1, -2, 4
1503615974451,-1, 4, -1, -1, 0, 0, -2, 0
1503615974472,-1, 19, 1, 0, -3, 0, -4, 0
1503615974488,0, 1, 0, -3, -1, -1, 3, -3
1503615974510,1, -1, -2, 1, -1, -1, -15, 2
1503615974533,1, -2, -2, -2, -3, 0, 5, 2
1503615974548,-1, 12, -1, -1, -1, 0, 0, -5
1503615974570,2, 11, 0, 1, 2, 0, -6, 1
1503615974592,-3, -11, -4, -2, -1, -2, 5, -4
1503615974608,-2, -2, 6, -1, 0, 0, 2, -2
1503615974630,-2, -6, -3, -1, -1, -1, 0, -1
1503615974653,-1, -2, -2, -1, 1, 0, -11, 1
1503615974675,0, 6, 3, 0, -1, 0, 7, 0
1503615974690,0, -5, 2, 1, -1, -1, 0, -3
1503615974712,2, 3, 3, 3, 0, -1, 2, 3
1503615974735,0, -15, -4, -1, 0, 0, -3, -7
1503615974751,-1, -16, -5, -2, -2, -2, -1, 2
1503615974772,-1, 2, -4, -2, -3, -2, -2, 3
1503615974795,0, -8, -4, 0, -1, 1, 2, 1
1503615974810,-2, -3, -1, -2, -2, 3, 7, -8
1503615974832,0, 14, 0, -3, -2, -4, -1, 3
1503615974856,-3, -1, 0, 0, 1, 0, 0, 1
1503615974870,-1, -4, -3, -1, -2, -5, -8, -11
1503615974893,-1, -19, 0, -1, 0, -2, 2, 2
1503615974915,-3, 4, 1, -3, -3, -1, 3, 1
1503615974930,-1, -2, 1, 1, -1, 0, -4, 2
1503615974956,0, -3, -3, -1, -1, -1, 1, -3
1503615974975,-3, 6, 1, -1, -1, 0, -3, -5
1503615974990,2, 5, -4, -1, -1, -1, -5, 1
1503615975012,0, -11, 1, -1, -1, -1, -2, 3
1503615975035,0, 4, -2, 0, -1, -1, -3, 0
1503615975052,0, 3, -1, 1, 3, -1, 1, 2
1503615975072,1, 10, 0, -1, -2, 0, 3, -1
1503615975095,0, 22, 9, 0, 2, -1, -3, -3
1503615975110,-2, -11, -6, -4, -2, -1, 9, 4
1503615975132,-1, 4, -1, -1, -2, 1, 0, -3
1503615975155,-3, -11, -3, -3, -1, -3, -3, 0
1503615975170,-2, -2, 0, -1, -1, 2, 0, -5
1503615975192,-1, 0, 4, 0, -3, -1, -6, -2
1503615975215,-3, -29, -4, 0, 0, -2, -5, -2
1503615975230,3, 0, -4, -1, -1, 1, -2, -3
1503615975254,-1, 16, -4, -1, 0, -1, 1, 3
1503615975275,-2, -2, 0, 1, 0, -6, -8, -8
1503615975292,-3, 1, 3, -1, 0, 1, 1, 2
1503615975312,0, 4, 4, -1, 0, 0, 1, 6
1503615975335,-1, -15, -8, -2, -1, 1, 1, -2
1503615975350,-4, 1, -1, -1, 0, -2, -1, -2
1503615975372,4, 0, -2, 0, -2, -2, -4, -2
1503615975395,2, 5, 1, 0, -1, -1, 0, -1
1503615975410,1, 4, -5, -1, 0, 1, 1, -1
1503615975433,1, 1, 0, 1, -1, 0, 1, -4
1503615975456,0, -8, 3, -1, -1, 1, 0, 2
1503615975471,-2, 1, 2, 0, 0, -2, -1, 0
1503615975492,-3, -3, 1, -1, -1, 1, -1, 0
1503615975515,-1, 12, -7, -3, -3, -4, 3, -3
1503615975531,1, -11, 1, 0, 0, 2, -10, -6
1503615975552,-2, -2, -5, -2, -4, -2, -2, -1
1503615975575,0, 5, 1, 1, 2, -1, 0, 1
1503615975591,-1, -10, -2, 0, -2, 0, 0, 3
1503615975612,-1, -7, 1, 0, 1, 1, 3, 4
1503615975635,1, 17, 1, 0, 0, 0, 2, -1
1503615975658,-1, -4, -6, -2, -4, 0, -3, -1
1503615975672,-1, -1, -4, -2, 1, -2, -5, 0
1503615975695,-2, -3, 1, 1, -2, -3, 1, 1
1503615975717,-1, 0, -1, -2, 0, -2, -15, -9
1503615975732,-1, -5, 1, 2, 3, 0, 1, 0
1503615975755,1, 1, 3, -2, -3, -1, -5, -2
1503615975777,-3, -7, -3, 1, 0, -1, 4, -3
1503615975793,-2, -1, 2, 1, -1, 0, 1, -1
1503615975815,-2, 8, 6, 1, -1, -1, -4, -5
1503615975837,-2, -3, -2, -2, -2, -1, 3, 1
1503615975852,0, -5, -1, -1, 0, 0, 4, 2
1503615975875,0, 3, -1, -2, -1, -2, -2, 1
1503615975897,-1, -3, -7, -1, -1, 0, 20, 5
1503615975913,2, -1, -6, -4, 1, -1, 0, 2
1503615975935,1, 16, 2, 1, -2, 0, -2, 0
1503615975960,-3, -12, -6, -5, -2, -2, -4, 3
1503615975972,-1, -5, -4, -1, -1, -2, -7, -2
1503615975996,-1, -1, 1, 0, -1, 2, -2, -4
1503615976017,-2, 4, -1, -2, -2, 0, -2, -2
1503615976032,0, -7, 8, 3, 1, -1, -3, -2
1503615976055,0, 3, 0, 0, 1, -1, 1, -2
1503615976077,-1, 7, 1, 0, -2, -1, -8, 5
1503615976093,1, 1, -4, -1, 1, -1, 3, -1
1503615976115,-4, 9, -3, -1, -1, -1, -1, -1
1503615976137,1, -5, 3, -1, -1, -2, 0, 2
1503615976152,-3, -15, -3, -2, -1, 0, -4, -3
1503615976175,0, -4, -1, 0, -3, -1, -12, 4
1503615976197,1, -15, -4, -1, 0, 0, 6, 0
1503615976212,-2, 1, -4, -1, 0, -2, 2, -4
1503615976236,0, -2, -3, -1, -3, -3, -1, -3
1503615976261,0, 5, -2, -1, 1, -2, -16, -1
1503615976273,1, 20, 4, -1, -2, 1, 8, 1
1503615976295,1, 1, 0, -1, -1, 0, 2, -1
1503615976317,-1, -1, 3, 0, -1, -1, 3, -3
1503615976333,-3, -27, -6, 0, -2, 1, 0, -2
1503615976355,-2, -2, 1, -1, 0, 0, 2, -1
1503615976377,0, 5, 0, 0, 0, 0, -1, 0
1503615976395,-1, 6, -1, -1, -4, -1, -2, -3
1503615976415,-1, -7, -3, -1, 2, -3, -3, -6
1503615976438,3, 15, 1, -1, 0, 1, 0, -2
1503615976453,-3, -11, 0, -1, 1, -1, 1, 1
1503615976475,0, 4, 3, 0, -1, 0, 6, -4
1503615976497,-1, -1, -3, 0, -1, 0, -2, 0
1503615976513,-1, -4, -8, -3, -1, 0, -1, 2
1503615976535,1, 11, 3, -1, 1, 0, 4, 0
1503615976549,0, -1, -1, 1, -1, -1, -4, 4
1503615976566,3, 7, 0, 1, -1, 0, 0, -3
1503615976587,-16, 6, 0, -2, -1, 0, 0, -4
1503615976617,4, -1, 5, 1, -1, 0, 2, 0
1503615976626,3, -8, -3, 0, 1, -1, -4, -3
1503615976646,-17, 1, -2, -1, -1, 1, 2, 1
1503615976669,4, 5, 0, -1, -2, 1, -2, -1
1503615976685,7, -13, -3, 1, 0, -1, 2, 3
1503615976707,3, 3, -1, -1, 0, -1, -1, 1
1503615976732,8, 3, 1, -2, -1, -2, 2, -12
1503615976738,6, 2, -1, -2, 0, -2, 4, -1
1503615976760,9, -3, -2, -2, 0, -2, -1, -1
1503615976776,-5, -2, -3, -1, -4, -3, -4, -2
1503615976799,-10, 1, -2, -4, -6, -2, -4, -10
1503615976820,-15, 5, 0, -2, 0, -1, -2, -2
1503615976835,7, 4, 4, -1, -2, -3, 3, 2
1503615976849,-24, -2, 3, 1, -1, -2, -2, -2
1503615976868,5, -2, -1, -3, -1, 0, 0, -1
1503615976887,4, 0, -4, -2, -1, -1, -3, 3
1503615976909,0, -1, -1, -1, -4, -1, -1, -1
1503615976925,25, 0, 2, -5, -11, -5, -1, -2
1503615976947,0, 0, 2, -3, -2, 0, 1, 0
1503615976970,7, -5, -2, 0, 1, 0, -1, -1
1503615976985,4, 0, 2, -1, 6, -1, -2, 1
1503615977007,5, 1, 1, -6, -9, 0, 2, -5
1503615977030,-8, -2, -2, 6, 2, -1, -1, 0
1503615977045,0, 2, -2, -3, -4, 0, 1, 1
1503615977067,16, -5, 6, 0, 3, -2, -2, 1
1503615977089,4, 1, -3, -6, -3, -3, -7, -3
1503615977105,-8, 0, -3, 3, 4, 2, 0, 1
1503615977126,-7, -2, -3, -1, -5, -2, 8, 4
1503615977149,-1, 0, 0, 9, 0, -1, -2, -3
1503615977168,-4, 3, -7, -7, -2, -2, 3, 0
1503615977186,2, 0, 6, -1, 0, -3, -4, -4
1503615977195,-2, 2, 2, -1, -2, -1, 1, -2
1503615977217,-18, -3, 1, 1, 1, -1, 1, 1
1503615977240,-19, 0, -4, -2, -5, 0, -2, -4
1503615977247,14, 0, 0, -2, 5, 1, 7, -2
1503615977269,-15, -3, 1, -3, -6, -2, -5, -1
1503615977285,-1, -1, -1, 2, 1, -1, -2, -4
1503615977306,-13, -7, -1, 0, 0, -2, -1, -3
1503615977329,-10, -1, -1, -1, -1, -1, -3, -2
1503615977345,-18, 0, -3, -5, -2, 1, -2, -2
1503615977369,-6, 1, 3, 1, 1, -1, -2, -5
1503615977390,26, 1, -2, -4, -4, 0, 0, -1
1503615977413,8, 1, 1, 0, -3, -1, 4, 3
1503615977428,-7, -2, -3, -1, -3, -1, 4, 3
1503615977451,25, 3, -1, -1, -2, 1, -4, -4
1503615977474,1, -1, 0, 22, 12, -1, -5, 2
1503615977488,-11, 2, -3, -5, -4, -1, 0, 2
1503615977511,-5, -4, -1, -3, 0, -2, 6, 1
1503615977533,-19, -5, -3, -3, -4, 1, 3, 3
1503615977548,16, 6, 1, -4, -3, -2, -4, -1
1503615977572,-13, -3, -4, -6, 1, 1, -3, -2
1503615977593,5, -1, 1, 13, 7, 1, -3, 0
1503615977609,-11, 2, 0, 3, -2, -2, -4, -2
1503615977630,-5, 2, 9, -2, -3, -1, -1, 3
1503615977653,14, 5, 12, -3, -5, -2, -8, -8
1503615977668,-4, -4, -6, -3, -2, -1, 3, 0
1503615977690,8, -7, -2, -5, -7, -1, -1, 1
1503615977713,-11, -4, -7, -6, -2, -1, 1, -3
1503615977728,-12, -2, -4, -1, -1, -1, 8, -5
1503615977750,-4, -1, -6, -1, 0, -2, -4, -5
1503615977773,11, -8, -4, -5, -1, -2, -2, -3
1503615977788,-4, 3, 3, -2, -6, 0, -8, -1
1503615977811,-15, -4, -3, -4, -1, -2, 2, -6
1503615977833,-6, -1, 1, 3, 2, -2, -6, 3
1503615977848,2, 4, 5, 0, 3, -1, -1, 2
1503615977873,-21, -5, -1, -2, 0, -2, -2, -12
1503615977893,12, 1, -1, -1, 2, 0, -18, 2
1503615977909,-16, -3, -9, -2, -2, 1, 9, -4
1503615977930,9, -2, -4, 1, 0, 0, 4, 1
1503615977953,-18, 0, 2, 3, -1, 1, 3, 4
1503615977968,2, -3, 1, -1, -4, -1, 4, 5
1503615977990,-4, 0, 0, -1, -2, -1, -4, -6
1503615978013,27, 2, 0, -1, -2, -3, 1, 12
1503615978035,0, 4, -3, -1, 1, -1, -1, -2
1503615978057,5, 0, -2, -2, 0, -2, 7, 4
1503615978080,-8, -2, 5, 0, -1, 0, -3, -3
1503615978095,-3, -1, -3, 0, -1, 0, 0, -4
1503615978112,-24, -2, 3, 0, -1, 0, 0, -2
1503615978133,21, -5, -3, -1, -1, 1, 1, -3
1503615978155,-1, 3, -1, 0, 0, 1, 0, 5
1503615978170,7, -2, -2, -2, 1, -1, -1, -3
1503615978193,34, 1, 8, 1, -2, -1, 1, 10
1503615978209,6, -3, -4, -1, 0, 2, 1, 19
1503615978222,3, -6, 3, 1, -1, -2, 2, -10
1503615978237,3, 11, 1, -1, 1, 2, -2, -5
1503615978268,17, -1, -4, -1, -1, -1, -3, 2
1503615978290,21, 13, 2, 2, 1, 3, 0, 12
1503615978313,22, 6, 0, 0, 1, 0, 8, 2
1503615978328,14, -3, -3, -1, 0, -2, -2, 3
1503615978344,-6, -8, -4, -2, -1, -3, -12, -8
1503615978357,-2, -7, -2, -2, 0, -2, 1, 3
1503615978380,10, -13, -11, -4, -1, -1, 0, 6
1503615978402,26, 7, -1, -2, 0, -1, -3, 0
1503615978425,-7, -5, -3, -1, -2, 0, 5, 8
1503615978440,6, 4, 4, 1, 0, 2, 3, 5
1503615978462,-11, 6, 0, -1, -1, -1, -1, 1
1503615978485,-8, -12, -5, 0, -3, -2, -6, -10
1503615978499,-22, 0, -1, -2, -2, -2, 17, 2
1503615978522,3, 3, 1, -1, 2, 1, -2, 2
1503615978546,-12, 0, -4, -1, 0, -3, -5, -8
1503615978562,-19, -2, -3, -2, -2, -2, -7, -9
1503615978582,24, 18, 2, 0, 0, -1, 2, -2
1503615978605,-10, -6, 1, 2, 1, 0, -1, 4
1503615978620,13, 4, -1, 1, -2, -2, -1, 0
1503615978645,-8, -4, 1, -1, -4, -1, 7, -2
1503615978665,41, -6, 1, 0, 0, 1, 6, 15
1503615978680,22, -2, -4, -2, -2, -2, -4, 3
1503615978702,2, -2, -4, -3, -2, 0, -11, -4
1503615978725,-18, 9, -2, -3, -2, -3, 1, -10
1503615978740,14, -1, 2, 0, -1, 1, -6, -1
1503615978762,-13, -5, -2, 0, 0, -2, 3, -2
1503615978785,-2, -3, -2, 0, -2, -2, -1, 4
1503615978800,11, -4, -1, 0, 0, 0, -6, 1
1503615978822,-7, -9, -2, 0, 0, -2, -4, -1
1503615978847,-13, 18, 1, -1, 0, 1, 8, 0
1503615978860,-12, 0, 6, 2, 1, -2, -4, -2
1503615978882,-2, -3, 1, 0, -1, -4, -1, -3
1503615978905,4, -14, -5, -2, -2, 1, -3, 2
1503615978921,9, -14, -6, -2, -1, 0, 10, 2
1503615978935,14, -2, -6, -3, -2, -2, -9, 10
1503615978951,4, -2, -8, -3, -2, -1, 2, -6
1503615978973,-30, 10, -1, -2, -1, -2, 2, -4
1503615978995,6, 1, 2, -1, -2, 2, 3, 0
1503615979010,8, -6, -2, 1, -1, -1, -5, -1
1503615979033,9, -7, -2, 1, -1, -2, -3, 0
1503615979056,-21, -1, -4, 0, 0, 0, 9, -1
1503615979070,9, 0, -5, -1, -2, -1, -5, -5
1503615979093,-1, 11, 5, -1, -1, -1, -1, -1
1503615979115,-4, -4, 0, 1, 2, 1, 4, 5
1503615979130,1, 4, 3, -1, -2, 0, -8, -2
1503615979153,-5, -5, 0, -1, -1, -2, -7, -4
1503615979176,-3, 13, -1, 0, -1, -1, -4, 1
1503615979191,-13, 4, -1, -3, -2, -3, 4, 5
1503615979216,-2, -4, 0, -2, -4, -2, 0, -3
1503615979235,3, -1, 1, -2, 0, -3, -4, 2
1503615979252,8, -6, -4, 1, 0, 0, -2, -3
1503615979273,0, 8, 2, 0, 1, 0, -3, -2
1503615979295,7, 5, -6, 0, 2, 1, -2, -5
1503615979318,21, -10, 2, 0, 1, 0, 1, 2
1503615979340,-20, 10, -2, -4, -2, 1, 4, -4
1503615979355,-3, 0, 4, -2, -1, 2, 3, 1
1503615979377,1, -3, 5, 3, -2, -2, -16, -2
1503615979393,-10, 11, 3, -1, -1, -2, 1, -3
1503615979418,-8, -27, -6, 0, -3, -2, 5, 2
1503615979437,12, -10, -4, -4, -4, 0, -5, 2
1503615979453,3, 5, 4, 2, 4, -1, -2, -2
1503615979475,-2, 4, 2, 2, -1, 1, 3, 1
1503615979497,8, 15, -5, -1, 0, -2, -3, -3
1503615979505,-2, -8, -2, -2, -1, 1, 2, 8
1503615979527,-27, -5, -1, 0, -3, 0, 2, -1
1503615979542,8, -4, 4, 1, 0, 0, -3, -11
1503615979565,-13, -12, 2, 0, -1, 0, 1, 1
1503615979587,8, 3, -1, -3, 0, -4, 2, -4
1503615979602,0, 4, 1, 1, -1, -2, -11, -3
1503615979618,4, -7, -2, 0, -1, 0, 5, 5
1503615979633,6, -8, 5, 1, 1, 1, -3, -3
1503615979656,-31, 2, 2, 1, -1, -1, 0, -3
1503615979677,10, 4, -4, 1, 1, 0, -1, -1
1503615979693,1, 7, -7, -5, -2, -3, -1, 0
1503615979715,-7, -16, 3, -2, -1, -2, 2, 4
1503615979737,-17, 0, -2, -1, -1, -2, -4, -5
1503615979753,21, 20, 6, 1, 1, -1, -4, 1
1503615979775,23, 4, 7, 2, -1, 0, 3, 1
1503615979797,-3, -10, -8, -6, -3, -1, 2, 2
1503615979813,13, -2, -5, -4, -2, 0, -5, -5
1503615979835,6, -13, -7, -2, 0, 0, -1, -3
1503615979858,-5, 3, 1, 0, 1, -1, -1, -5
1503615979872,9, 4, -2, 0, -1, 0, 0, 1
1503615979887,-3, -4, -3, 0, -3, -1, 5, 0
1503615979902,16, -2, -2, -1, 0, -1, -2, -3
1503615979925,-18, 11, 3, -2, 1, -1, -8, 2
1503615979947,-4, 1, -2, 0, -1, -2, -4, -1
1503615979962,4, 3, -5, -3, -3, 2, 4, 2
1503615979985,5, -1, -5, -3, -2, -2, -2, 2
1503615980007,1, -4, -1, 2, 2, 0, -4, -10
1503615980022,-6, -7, 1, -2, -1, 3, 6, 8
1503615980045,1, 0, 0, 3, 0, -1, 3, -2
1503615980067,-23, -3, -1, -1, -2, -1, -2, 1
1503615980082,5, 1, 1, -1, -1, 0, 7, -5
1503615980104,6, 2, 1, -1, -3, -2, 4, 7
1503615980113,3, 2, 0, -2, 1, -2, 1, 1
1503615980135,0, 2, 0, 1, 0, 0, 1, 3
1503615980157,1, 0, 0, -1, -3, 0, 2, 4
1503615980165,0, 0, 0, 2, 1, -4, -17, -3
1503615980189,-1, 2, 2, 1, 1, 1, 5, 5
1503615980202,-4, 2, -6, -3, 0, 2, -4, 2
1503615980225,-2, -9, 5, 2, 1, -2, 7, -5
1503615980247,-2, -3, 0, -2, -2, 2, 3, -1
1503615980277,2, -1, -2, -1, -2, -2, 2, -2
1503615980285,1, 0, -2, 0, 0, -2, -17, 2
1503615980300,-4, -1, -5, -1, 1, 0, -4, 6
1503615980315,1, 15, -1, -3, 0, -3, -3, -1
1503615980337,-3, -10, -2, 0, -1, -2, 2, -1
1503615980360,1, -3, 1, -1, 1, 2, -1, -4
1503615980375,-5, -4, 1, -1, -1, -5, -17, -12
1503615980395,-2, -3, -2, -1, -1, -1, 5, 8
1503615980399,-2, -3, 7, 2, -2, 3, 10, 5
1503615980420,11, 5, -5, 0, 1, -1, 0, -3
1503615980435,-5, -4, -1, -2, -1, -3, 3, -2
1503615980457,-3, -8, -1, -1, 0, -2, -3, -1
1503615980465,-12, -5, -4, -2, -2, -2, -16, -11
1503615980487,2, 3, -1, -1, 0, 1, 1, 0
1503615980509,-15, 4, -4, 0, 0, -2, 2, -2
1503615980525,3, -7, 0, 0, 0, 0, 0, 1
1503615980547,0, -4, 0, -1, -1, -2, 0, -1
1503615980569,0, -17, -3, 2, 2, 0, 2, -2
1503615980592,2, 1, -1, 0, -2, -1, -2, 0
1503615980614,3, 9, 2, -2, 0, -2, 4, 2
1503615980629,0, 5, 4, -2, 0, -2, -1, 1
1503615980644,1, 7, -4, 7, 3, 0, 3, 0
1503615980667,2, 3, 0, -4, -3, -1, -3, -1
1503615980689,-2, -5, -4, -6, -2, -1, -1, -7
1503615980704,0, 11, -1, -2, 1, 0, 2, 2
1503615980720,-4, -2, -2, -4, -3, -1, 0, -3
1503615980735,1, 5, 0, 0, -1, -1, 0, 3
1503615980760,0, 4, 3, 0, 1, 1, -2, 0
1503615980779,-1, -3, 1, -1, -4, -1, 0, 3
1503615980796,0, -4, -2, -1, 1, -1, 1, 3
1503615980817,-4, -2, -1, -2, -4, -2, 2, 1
1503615980839,-1, -2, -1, 3, 0, -1, -6, -4
1503615980855,-1, 40, 6, -1, 1, -1, -3, -1
1503615980877,0, -11, 0, 0, -2, -1, 4, 2
1503615980900,3, 10, 1, -2, -1, 0, -2, -1
1503615980915,-5, -8, -2, -3, -1, 0, 3, 2
1503615980937,-4, -13, -8, -1, -4, -1, -4, -2
1503615980962,3, 3, -3, 0, 0, -2, -1, 1
1503615980975,-2, -10, -1, 2, 3, 1, 1, 6
1503615980998,0, -10, 2, 0, -1, -1, -1, -5
1503615981020,1, -7, -3, -2, -3, 1, -2, -4
1503615981042,-1, -3, 3, 0, 0, -3, -1, -1
1503615981057,0, -4, -1, -1, 0, 1, -3, -3
1503615981066,-3, 0, -1, -1, -2, -2, -1, 0
1503615981087,0, 17, -2, 0, 0, -1, -4, 3
1503615981109,-2, -9, -1, 0, 0, -1, -4, -4
1503615981124,2, -3, 2, 1, -1, -3, 2, 1
1503615981147,-1, 7, 2, 0, 2, -1, -2, 1
1503615981169,-2, -7, -6, -3, 1, 0, -2, -5
1503615981191,-1, 3, -4, 0, -1, 2, -2, -5
1503615981207,-2, -5, 5, 1, 0, -1, -2, 8
1503615981231,-2, 3, -3, 0, -1, -4, 5, -3
1503615981252,-4, -11, 0, -2, 0, 1, 0, -4
1503615981267,-3, -1, -3, -4, -2, 0, 4, -7
1503615981289,0, 6, -5, -2, -1, 1, 2, 1
1503615981311,-2, -11, -6, -1, 0, 0, -2, 0
1503615981329,-1, -9, -3, -3, -3, -1, 4, 3
1503615981349,-3, -11, -1, -2, -2, -2, -2, -3
1503615981372,2, -1, -3, -2, -1, -1, -2, 2
1503615981387,-2, 2, -3, 0, -1, -1, -1, -1
1503615981409,-2, 4, 6, 1, 0, 1, -3, -1
1503615981432,-2, -4, 1, -1, -1, -2, 1, 0
1503615981447,0, -11, 1, 1, -1, 0, -3, -4
1503615981469,2, 4, -2, -1, -1, -2, -14, -2
1503615981491,1, -3, -6, 0, -1, -1, 2, 2
1503615981507,0, 7, 3, 0, -2, -2, 1, -3
1503615981533,-4, -4, 0, -2, 0, 0, 1, 1
1503615981551,0, 22, 2, -1, 3, 0, 4, -1
1503615981568,0, -7, 3, 1, -1, -1, 2, 1
1503615981589,-2, 2, -6, -3, -2, -1, -3, -2
1503615981611,-1, 11, 12, 2, 1, -3, 1, 1
1503615981620,-1, -10, -7, -3, 0, 0, 0, -2
1503615981642,-3, 14, 0, -1, 1, -1, -2, -3
1503615981657,-1, -8, -1, -2, -1, -2, 5, 2
1503615981680,1, 5, 6, 1, 1, -1, -2, -1
1503615981702,5, -4, -4, 0, -3, -1, 0, -3
1503615981717,-8, -4, -7, -3, 0, -1, -3, 1
1503615981743,-2, -9, -3, 1, -3, 2, 3, -4
1503615981762,-2, -21, -4, -2, -2, 0, -4, -3
1503615981777,-2, -11, -4, -1, -1, -1, -1, -3
1503615981801,2, 1, 1, -3, 0, -1, 1, 3
1503615981822,0, -2, 1, 0, 0, -4, -1, -3
1503615981837,-2, -11, -5, -1, -2, 1, -3, 1
1503615981860,0, 9, 3, -1, 0, -2, -3, 1
1503615981882,3, 31, 7, 3, -2, -2, -1, -1
1503615981902,-4, 6, 0, -3, 0, -2, -1, -4
1503615981920,-3, -5, -1, -1, -1, 0, 0, -4
1503615981944,1, 13, -2, 0, 0, -1, -2, 0
1503615981957,0, -2, 7, 0, 0, 1, 3, 4
1503615981980,0, -6, -1, -1, 0, 0, -3, -3
1503615982004,-12, 17, 4, -1, 0, -2, 1, -3
1503615982017,7, -4, -2, -1, 0, 0, -3, 3
1503615982046,4, -4, 10, 4, 1, -2, 2, 4
1503615982062,0, -4, -5, -1, 0, -3, -1, -1
1503615982077,-3, -4, -7, -1, -3, -4, -11, -11
1503615982103,5, 33, 11, 0, -2, 0, 2, 2
1503615982122,1, -10, -6, -3, -1, 1, -1, 1
1503615982151,-2, -2, -2, 2, 2, -1, -1, 1
1503615982160,-3, -11, -8, -4, -2, -1, 0, -2
1503615982182,-1, 5, 6, -1, -3, -1, -13, -2
1503615982205,4, -6, -1, -2, -2, -1, 5, 4
1503615982220,1, -2, -2, -2, -2, 0, 2, 0
1503615982242,-4, -9, -3, -2, -1, -2, 3, -2
1503615982265,-2, -7, -6, 0, -1, 1, 1, 1
1503615982280,-13, -4, -1, 0, -1, 1, 3, -3
1503615982306,-8, 4, 9, 1, 1, -1, -1, 4
1503615982325,5, 0, -9, -1, 0, -1, 10, 6
1503615982341,14, 20, -10, -3, -2, -1, 0, -3
1503615982362,-3, -16, -4, -4, 1, -2, -5, -5
1503615982385,2, -2, 1, -1, 1, -1, -3, -1
1503615982399,-8, -7, -7, -2, -2, -2, 3, 2
1503615982422,4, 3, 0, 0, -1, -1, -1, -1
1503615982444,6, -5, 7, 1, 1, 2, 1, 3
1503615982459,1, -5, -3, 0, 0, -3, -7, -2
1503615982482,2, -3, 1, 1, -3, 0, -1, -3
1503615982505,-5, -6, 3, 2, -2, 0, 1, 2
1503615982519,-10, -3, 0, -4, -1, -2, -9, -7
1503615982542,-6, 1, -4, -1, 1, -1, 2, -3
1503615982564,4, 0, 2, 1, -2, -1, 4, 0
1503615982580,1, 2, 0, 0, 1, -2, -3, 1
1503615982602,-1, -6, -5, -3, 0, -1, -5, -1
1503615982624,-11, -3, 3, 1, -2, 0, 2, -1
1503615982640,6, 0, 0, -1, -1, -2, -1, -2
1503615982662,3, -2, -2, -1, -1, 1, 1, 1
1503615982685,-3, 0, 2, 2, 2, -1, -3, 1
1503615982699,-1, 5, 2, 0, -2, -1, 6, 3
1503615982722,-7, -5, 3, 0, -1, 1, -3, -5
1503615982745,6, 15, -4, -1, 1, 1, -2, 0
1503615982759,-5, -10, -3, -1, -3, -2, -3, -3
1503615982782,1, 1, 0, -3, -1, 1, 1, 0
1503615982807,-11, -5, -5, -1, -2, -2, -3, -7
1503615982819,-4, -1, 2, -1, 0, -2, -1, -1
1503615982835,-1, 2, -2, 1, 2, 2, 5, 1
1503615982857,5, 1, -3, -2, 0, 0, -3, -4
1503615982874,-3, -1, 0, 2, 3, 0, -1, 6
1503615982895,0, -4, -1, 1, -1, -2, -6, -5
1503615982917,-2, -3, -2, -1, -3, -2, -2, 0
1503615982932,4, 1, -6, -3, -1, -2, -1, -3
1503615982955,-4, -4, 0, -1, -2, 0, -5, -11
1503615982978,-7, -4, -1, 0, -2, -2, 0, 1
1503615982992,2, -6, -1, 0, -1, 1, -3, 2
1503615983016,-3, 4, 4, -2, -1, -1, 7, 1
1503615983038,7, 3, 1, 1, 1, -4, -4, -1
1503615983052,5, -17, -7, -1, 0, 2, 7, 3
1503615983075,-7, 8, 9, 2, -1, 0, -1, 1
1503615983097,-9, -7, -7, -6, -2, 2, -1, -2
1503615983113,-1, -1, -1, 0, 3, -3, -1, 0
1503615983135,0, -11, -3, -2, -1, -1, 1, -5
1503615983159,-2, -3, -2, 0, -4, 0, 0, -4
1503615983164,4, 1, 2, -2, 0, 0, 0, -2
1503615983187,2, 1, 0, 0, -5, -2, -2, 4
1503615983202,-4, -4, 1, 1, -2, -1, 4, 5
1503615983224,-4, -4, -5, -3, 1, 1, 4, 1
1503615983247,6, 0, -1, -1, -1, -3, -5, -5
1503615983264,0, -4, -2, -1, -4, -2, -3, 2
1503615983285,-4, -2, 1, 0, 0, 2, 8, 0
1503615983307,6, 1, -2, -1, 0, 0, 1, 9
1503615983322,7, -2, -2, -2, 1, 0, -4, -2
1503615983345,-1, 0, -2, 1, -3, -4, -2, -1
1503615983367,4, 1, 5, 1, 0, -2, -2, 3
1503615983382,-7, -4, -2, -3, -1, -1, -3, 0
1503615983405,-20, -4, 0, 1, 0, -1, -1, -15
1503615983427,-2, 0, -1, 0, -2, 1, 7, -4
1503615983444,-1, -10, -3, 0, -1, -3, -4, 7
1503615983464,-6, -1, -1, -2, 0, -1, -3, -15
1503615983487,0, 17, 10, -2, 0, -1, 4, 6
1503615983502,12, 1, 0, 0, 0, 0, 2, 5
1503615983524,-5, 1, 5, -1, -1, -1, 8, -1
1503615983532,5, -3, -3, -1, -3, 0, -1, -5
1503615983555,20, -11, 3, -1, 1, 0, -1, 2
1503615983581,-8, 14, 11, 2, 1, -4, -6, -1
1503615983593,-14, -4, 0, 0, 0, 0, -2, -5
1503615983615,4, -2, -1, -1, -1, -1, -3, 3
1503615983637,-1, -15, -5, -3, -1, -2, 1, -11
1503615983652,4, 10, 4, 1, -1, -2, -2, 2
1503615983675,3, -3, -6, 0, -1, 1, 2, 3
1503615983697,2, 5, -1, 0, 0, -1, 0, 4
1503615983720,3, 2, 1, -1, 0, -1, -5, 0
1503615983735,-4, 2, 1, -1, -1, -2, -2, -4
1503615983759,2, -2, -2, -1, 0, -1, -3, -1
1503615983773,0, -3, -3, -1, -3, -1, -6, -4
1503615983788,-3, -4, 1, 0, -1, -2, 8, 8
1503615983802,9, -7, -8, -1, -3, -1, 6, 0
1503615983825,-5, 12, 1, -2, -3, 1, -2, 1
1503615983849,-4, -19, -3, 0, 2, 0, 6, -5
1503615983862,25, 22, 19, 7, 1, 0, -5, 3
1503615983885,-17, -7, -4, -1, -3, 1, -2, -2
1503615983907,-9, -14, -13, -4, -1, -2, -5, -2
1503615983923,12, -1, -7, -2, -3, -3, -12, 1
1503615983944,4, 13, -4, -1, -1, -1, 3, 6
1503615983952,3, 26, 22, 2, 2, -2, 0, 2
1503615983975,6, -5, -3, 2, -1, 0, 1, 10
1503615983997,-12, -4, -9, -5, 0, 1, 9, -5
1503615984019,-3, -5, -4, 1, -2, -1, -7, -4
1503615984035,15, -1, -1, 0, -2, -2, -2, -4
1503615984058,7, -11, 0, 0, -1, 0, 0, 1
1503615984082,-8, -2, -5, -4, -1, -2, -9, -4
1503615984095,-1, -5, -5, 0, -1, -2, 1, 3
1503615984120,-5, 3, 8, -1, -2, -3, -3, 2
1503615984139,16, 0, -6, -5, -2, 2, -2, -2
1503615984155,7, 7, 0, 1, 0, 1, 11, 3
1503615984177,-8, 0, -2, -1, 0, 2, 0, -4
1503615984199,-14, 6, 6, 2, -2, 0, -6, -2
1503615984217,-10, -9, -3, 0, 1, -1, 1, 0
1503615984237,15, -16, -2, -3, -3, -4, -2, 4
1503615984259,27, -3, -2, 0, -3, -3, -5, -8
1503615984275,5, 3, -5, -1, -1, -2, -5, 5
1503615984297,-4, 12, 2, 1, -1, -2, -1, 2
1503615984320,-8, 16, -3, -2, 1, 0, 3, -2
1503615984335,-14, -3, -3, 1, 1, 2, 9, 0
1503615984358,-4, -7, -7, -5, -2, -1, -14, 13
1503615984379,-10, 1, 2, 0, -2, 0, 7, -8
1503615984395,-4, -14, 0, -1, 0, 0, -2, -5
1503615984420,-20, -2, -8, -3, -3, -1, -7, -1
1503615984440,-2, 2, 0, 1, 0, 0, 3, -2
1503615984462,-9, -5, 1, -1, -2, -1, 4, -5
1503615984477,7, -4, 0, -1, -2, 0, 7, 2
1503615984499,6, 6, 7, 1, 0, -2, 0, -4
1503615984515,18, 16, -2, -3, -2, -1, -3, 3
1503615984538,-3, 24, 5, 1, -2, 0, -4, -7
1503615984563,-7, -10, -4, -3, 0, -2, -1, 1
1503615984575,-3, 6, 1, -1, -1, -1, 4, -4
1503615984597,3, -22, -7, -2, 2, 1, 0, 2
1503615984620,-4, -8, -4, 0, -1, -2, -1, -6
1503615984635,-4, -4, -4, -1, -1, 1, 6, 2
1503615984657,-10, -8, 4, 4, 0, -2, -4, -3
1503615984679,-12, 17, 2, 1, -2, 1, 3, -3
1503615984696,-5, 9, 7, -1, -2, -3, -4, 2
1503615984721,15, -6, -4, -1, -1, -3, 4, 2
1503615984739,12, 1, -2, -1, 0, -1, -2, 2
1503615984762,-1, 7, 1, 0, -1, -1, -2, 0
1503615984777,-3, -5, -3, -2, 0, 1, -3, 0
1503615984799,14, 3, 4, -1, -3, -2, -4, -2
1503615984815,-2, -8, -6, -1, -1, 1, 8, -4
1503615984830,-5, 6, -2, -1, -1, 0, -1, -3
1503615984844,-4, 3, 5, -1, 1, -1, -3, 0
1503615984867,0, 4, 1, -2, 0, 0, -11, -3
1503615984890,-1, -2, 1, 0, -2, 0, 0, 1
1503615984904,5, 4, -1, 1, -1, -2, 11, 0
1503615984927,-5, -11, -6, -1, -3, 2, 2, -4
1503615984950,9, -1, -2, -2, 1, -1, -1, 4
1503615984971,-3, -5, -4, -1, -2, -3, -1, -1
1503615984989,-16, -6, 3, 0, -1, -2, -1, -3
1503615985009,-1, 3, 5, 2, 0, 0, -6, -7
1503615985031,-2, -8, -5, -2, 0, -1, 1, 1
1503615985048,-6, -12, -4, 0, -1, -2, -2, -1
1503615985069,1, 20, 5, -1, 0, 0, -2, 0
1503615985091,4, -3, -5, 0, -1, 0, 2, -6
1503615985107,-9, -6, -2, 0, -1, 1, -4, 0
1503615985131,5, 12, -1, -1, 1, -2, -3, -2
1503615985151,-8, 5, -4, -2, -2, -1, 2, -1
1503615985167,1, -7, -3, 0, 0, -2, 0, 1
1503615985191,3, 6, 4, 1, -2, 0, -2, 4
1503615985211,-7, -14, 1, -2, 0, 1, 8, 0
1503615985232,4, -2, -1, 1, -1, -1, -2, 0
1503615985249,-7, -11, -1, -1, -1, -2, 1, 3
1503615985271,3, 9, 2, 2, -1, 0, 0, -1
1503615985287,2, 7, 2, -1, 0, 1, -2, 0
1503615985309,0, -5, -4, -5, -2, -3, -4, -1
1503615985331,1, -9, -3, -2, -1, -1, 1, 3
1503615985347,2, 3, -1, -2, 1, 0, 3, 0
1503615985369,0, 1, 2, 1, 0, 0, -5, 0
1503615985391,-4, -6, 5, 2, 0, -1, -1, -3
1503615985407,-3, 9, 3, 1, 0, 0, 3, -2
1503615985430,2, 1, -6, 0, -3, 1, -1, -2
1503615985451,1, -9, 4, -1, -1, -2, 8, 2
1503615985468,-1, -3, -2, 0, -1, -1, 1, -4
1503615985494,-1, 13, 1, 0, -2, -1, -4, 2
1503615985513,0, -10, -8, -3, -1, 1, -6, -6
1503615985527,3, -4, -7, -3, -4, -1, -2, -1
1503615985555,-5, -3, -3, -2, -2, -3, 3, -1
1503615985571,0, 29, 5, 1, -1, 0, -3, -6
1503615985587,5, -10, 4, 3, -1, -1, 3, -2
1503615985612,-1, -1, 3, -2, 1, 0, -4, 2
1503615985631,0, 1, -5, -2, -2, -2, -4, 0
1503615985647,-2, 3, 0, -3, 0, -4, -4, -1
1503615985670,-3, -17, -4, -1, 0, -1, 4, 3
1503615985693,0, -3, -2, -2, 0, 1, -2, -2
1503615985714,-3, -19, -1, -1, 0, 0, -5, -4
1503615985736,2, 6, -4, -1, -1, 0, -2, -2
1503615985751,-2, -8, -1, -1, -2, 0, 4, 7
1503615985767,-3, 7, 0, -2, -1, -2, -3, -2
1503615985789,1, 0, -4, -3, -2, -2, 11, 2
1503615985797,-1, -14, -2, -1, -1, -2, -2, -4
1503615985819,-1, -2, 3, 2, -2, 0, -1, -1
1503615985842,-2, -25, -6, -1, 0, -3, 2, 0
1503615985865,2, -2, 3, -1, 1, 0, 0, 0
1503615985879,-4, 1, 1, 0, -1, -1, -2, -2
1503615985903,1, 11, 0, 0, -2, 1, 8, 4
1503615985910,0, 20, 4, -1, -2, 0, -11, 2
1503615985931,-1, -1, -2, -1, -1, 1, 5, 1
1503615985954,0, -12, 0, 0, 0, -3, 0, 0
1503615985970,0, -2, 10, 0, 2, -1, 1, -1
1503615985991,-3, -8, -6, -2, -2, -1, 1, -2
1503615986000,0, 2, -1, -1, -1, 1, -2, 1
1503615986022,2, 16, 4, 0, -1, -2, -1, 2
1503615986044,0, -5, -3, -3, -1, 1, -7, -3
1503615986059,-2, -1, 0, 1, 0, -1, 2, 0
1503615986082,-2, -1, 4, 1, 0, -2, 1, 1
1503615986105,-2, -7, -2, -3, -2, 2, -1, 3
1503615986119,-2, -1, -4, -3, 0, 0, -3, 0
1503615986142,2, 19, 1, -1, 0, -2, -3, -1
1503615986167,-5, -7, 2, -1, -1, -3, 1, -2
1503615986179,-7, 5, -6, -2, 0, 0, -1, -1
1503615986202,2, 13, 2, 1, -1, -2, 3, -4
1503615986224,-7, -10, -7, 0, -3, -1, -1, 0
1503615986239,5, -3, -2, -1, -1, 0, -3, -2
1503615986264,2, -4, -2, -2, -2, -2, -2, -1
1503615986284,-1, -15, -3, 0, -2, -1, -8, -12
1503615986300,-1, -11, -2, -1, 0, 1, 3, 8
1503615986322,3, -1, 4, 0, 0, -1, -1, 0
1503615986344,1, 7, 9, 1, -3, -3, 0, -1
1503615986359,0, 5, 1, 0, -2, 0, -5, 4
1503615986382,-1, 4, -1, -1, 0, 1, 2, 7
1503615986404,2, 10, 4, 0, -1, -1, 0, -3
1503615986419,-1, 4, -3, -1, 2, -1, 4, -3
1503615986442,-1, -8, -5, -2, -1, 0, 2, -3
1503615986465,2, -2, -4, 1, -1, 1, -10, 1
1503615986471,-2, -10, -3, -1, -4, -1, -4, 0
1503615986494,-3, -4, -1, -1, -1, 0, 8, 3
1503615986509,4, 6, 1, -1, 1, -2, 2, -4
1503615986531,1, 5, -5, 1, 0, 1, 4, 2
1503615986554,-1, -8, -8, -5, -1, 0, -5, -2
1503615986570,-2, -5, 5, 3, 2, -1, -4, -2
1503615986592,-4, -5, -1, 0, -1, -1, -3, -4
1503615986614,-2, -2, -2, -1, -3, -2, -2, 2
1503615986634,2, -6, -8, -4, -2, -2, -2, 7
1503615986652,-2, 0, 1, 0, -1, 1, 3, -5
1503615986674,-1, -1, 5, 2, 1, 0, 1, -2
1503615986689,0, 2, -3, -1, -2, 1, 1, 4
1503615986705,-1, 1, -1, -1, -1, -1, 11, 1
1503615986720,2, -1, 0, -3, 0, 1, 7, 1
1503615986742,-2, -10, -4, 0, -2, -4, 4, 0
1503615986749,-4, -7, -2, -5, -3, -2, 2, -2
1503615986772,0, 8, -3, -2, 0, -1, 1, -2
1503615986794,-1, 6, 3, 1, -1, 1, -2, 1
1503615986816,-1, 7, 1, 0, 0, -2, -15, 0
1503615986832,0, -6, -2, -3, 0, 1, 5, 2
1503615986854,-3, -3, -4, 0, 1, 0, 2, 2
1503615986877,0, -2, -1, 1, 0, -2, 3, 0
1503615986892,1, -25, -6, 0, 0, 1, -1, -16
1503615986908,4, -7, -1, 1, 0, 2, 1, 8
1503615986922,3, -2, -4, -1, -3, -2, -2, 2
1503615986944,-19, -2, 3, 0, 2, -5, -13, -12
1503615986971,13, 0, 0, -1, 0, -1, 1, 5
1503615986979,-5, -2, -5, -1, -1, 1, -3, 2
1503615986984,0, 6, -3, 1, 0, 0, 0, -3
1503615987005,-4, -12, -1, 1, -2, -3, -2, -1
1503615987027,0, -5, -3, -2, 1, 1, 2, -4
1503615987044,0, -1, 0, 0, 0, 0, 0, -5
1503615987065,6, 20, -2, -1, -1, 0, 3, 2
1503615987087,-10, -4, 0, -2, -3, 0, 4, -2
1503615987113,-7, 0, -2, -1, -1, 0, 1, -1
1503615987124,-11, -6, -1, 0, 2, -2, -2, 5
1503615987147,-24, -7, -12, -3, -3, -1, -5, -15
1503615987162,11, -9, 0, 1, 0, -1, -8, 10
1503615987185,19, 6, 5, 0, 0, 0, 4, 4
1503615987207,5, -6, -2, 0, -1, 0, -4, -5
1503615987222,22, -4, 3, -2, -4, -2, -1, 3
1503615987244,-35, -10, -1, 1, -1, 1, 7, -3
1503615987272,6, 10, -1, 1, 1, -1, -2, -3
1503615987282,5, 8, 0, 2, 1, 2, 5, 7
1503615987305,18, -6, -5, -7, -4, -1, -6, -5
1503615987327,7, 6, 8, 3, 0, -2, -18, 5
1503615987342,15, -25, -5, -2, -1, 0, 5, 7
1503615987364,-9, 10, -3, -1, -2, 0, 3, 2
1503615987387,1, 7, 7, 1, 2, 0, 5, 0
1503615987402,-7, -2, -6, -3, -1, -5, -10, -13
1503615987424,0, 58, 16, 5, 0, 2, 7, 4
1503615987448,-1, -12, -5, -1, 1, -1, 3, -5
1503615987462,-8, -9, -2, -3, -1, -3, -3, -1
1503615987484,1, -8, -2, -4, -1, 0, 7, -2
1503615987517,-3, -8, -3, -6, -4, -4, -5, 6
1503615987536,-1, -6, -1, -2, -1, 1, 13, 6
1503615987545,7, -8, -7, -1, -1, -3, -1, 7
1503615987567,3, 0, 1, 0, 0, -2, -6, -9
1503615987582,0, -6, 0, 2, 0, -2, -3, 2
1503615987604,-18, -11, -7, -5, -5, 0, -6, 3
1503615987627,13, 24, 2, -1, -4, -2, -1, -3
1503615987644,-6, -14, -2, 0, 1, 0, -1, -8
1503615987664,0, -10, 0, 2, 0, -1, -4, 6
1503615987687,2, -7, -1, -3, -1, 0, 2, -3
1503615987702,-34, 2, -1, 1, 0, 2, -1, -5
1503615987724,9, 8, 6, 0, 0, 0, 3, 4
1503615987747,9, -4, -4, 0, 1, 1, -3, 2
1503615987769,3, 24, 1, -1, -2, -2, -3, 5
1503615987792,0, -6, 0, -1, -3, 0, -3, -8
1503615987808,5, 0, 0, -3, 0, 1, 7, 3
1503615987830,6, 22, 4, -1, -1, 0, 0, 2
1503615987845,5, -21, -5, -4, -1, -3, -7, -1
1503615987868,1, 5, -4, -1, -2, -2, 4, 3
1503615987889,18, -8, -4, 0, 0, -2, -2, 9
1503615987904,2, -7, -4, -3, -4, -1, -2, -4
1503615987927,0, -2, 2, 4, 1, 1, -1, -2
1503615987949,-11, -17, -5, -2, -1, 0, -1, -7
1503615987964,-6, -2, -1, -2, -1, -3, -1, -6
1503615987987,12, 7, 4, 0, -1, 1, 2, -2
1503615988010,-5, -5, -4, -4, 0, -2, -2, -4
1503615988024,-7, -17, -1, -1, 0, -1, -4, -4
1503615988047,-5, -5, -1, 0, 0, -2, -1, -1
1503615988069,1, 4, -4, -3, -2, 0, 0, -1
1503615988085,-10, 0, -1, 0, -3, -1, -14, -3
1503615988109,-2, -2, -4, -2, 0, -2, 6, -1
1503615988129,3, 34, 10, 1, -2, 1, 4, 3
1503615988145,-3, -8, -2, 0, 2, 0, -1, -3
1503615988167,-5, -12, -2, 1, 1, 0, 3, -4
1503615988190,3, 11, -1, -1, -1, -1, 0, -2
1503615988204,-2, 0, -3, -3, 4, 0, 1, 0
1503615988227,-1, -11, -2, 2, -2, 0, -5, -1
1503615988251,4, -3, -2, -1, -1, -1, 1, 1
1503615988265,0, -9, -4, 1, -3, -3, -1, -1
1503615988287,-2, -12, -4, -2, 0, -1, -1, 1
1503615988302,-4, 1, -3, -1, -1, 0, 0, -3
1503615988310,-2, -7, 0, 5, 4, 0, 0, 0
1503615988324,-2, 0, 6, -2, -4, -1, 0, 2
1503615988347,-2, 3, 0, -2, -1, -2, -3, -13
1503615988369,-2, 10, 6, -3, 0, 1, 1, 3
1503615988384,-3, -7, -5, 0, -2, -2, 3, 0
1503615988407,-1, 0, -2, -2, -3, 1, -1, -3
1503615988429,-4, 4, 0, -3, -2, -2, -4, -3
1503615988446,-4, -17, 0, -1, 1, -1, 0, 4
1503615988467,0, -3, -1, -2, -4, -2, -3, -2
1503615988489,1, 0, -1, -1, -2, 2, 4, -1
1503615988504,-1, 4, -2, 1, 0, 0, -1, 2
1503615988527,0, 18, 12, -1, -2, 0, 0, 3
1503615988550,2, 3, -5, -1, -3, -4, -16, -3
1503615988564,0, -4, -3, -2, -1, -2, 4, -2
1503615988587,0, 1, 2, 0, 1, 1, 0, 1
1503615988609,-1, 8, 3, 0, 0, 1, -1, -6
1503615988624,1, -2, -3, -1, -1, -3, -1, 1
1503615988654,-4, -1, -3, -3, -3, -1, 3, 6
1503615988676,-3, -10, -6, -3, -1, 0, -6, -4
1503615988692,-3, -14, -7, -1, 0, -1, 2, 2
1503615988707,2, 3, -2, -1, 1, -2, -4, 5
1503615988729,1, 13, 12, 3, 2, -3, -6, -10
1503615988752,-2, -5, 0, -3, 0, -1, 4, 0
1503615988767,2, -3, -3, 0, -1, 2, 1, 1
1503615988790,1, 28, 5, -1, -1, 2, 4, -4
1503615988812,-1, -14, -11, 1, -1, 3, 13, 2
1503615988827,0, 2, -3, -3, 0, 1, 4, 2
1503615988849,1, -8, 6, 1, -2, -1, 2, 0
1503615988872,-1, -8, 0, 0, 1, -2, -1, 0
1503615988887,-1, -5, -3, -1, 1, -3, -6, -15
1503615988909,-2, -4, -1, 0, -2, -1, -3, -2
1503615988932,0, 6, 0, 0, -1, 0, -1, 0
1503615988947,1, -4, 1, 0, 0, -1, -2, -4
1503615988962,-2, 2, 3, 0, -2, -1, 0, -2
1503615988977,-1, -3, 4, -1, 0, 0, 0, 1
1503615989000,-5, 12, 2, -1, -1, -4, -7, -5
1503615989022,0, -11, -5, 0, -1, -1, -4, 2
1503615989037,-4, 12, -4, 1, -1, 0, 1, 1
1503615989060,2, -5, 1, -1, -2, 0, 9, 3
1503615989084,4, 13, -3, 1, 1, 0, 4, 4
1503615989089,1, -9, -5, -2, -2, -1, 1, 0
1503615989112,-1, 0, -4, 0, 0, -1, -2, 4
1503615989127,0, -9, -4, 0, 0, -1, -1, -2
1503615989152,1, 37, 5, -1, 0, -1, -2, -5
1503615989172,1, 4, -1, -1, 1, 0, 2, -4
1503615989187,0, -7, -12, -4, 0, 0, 2, 4
1503615989202,0, -3, -2, 0, 0, -3, 0, 1
1503615989220,-2, 10, 13, 4, -1, -2, -5, -10
1503615989240,3, -7, -4, -1, -1, -1, -2, 0
1503615989262,-1, -3, -3, -1, 1, -3, -7, -13
1503615989269,2, -1, -2, -2, 0, 0, 6, 6
1503615989292,-1, -3, -1, -1, 0, -1, 1, 0
1503615989307,-1, 6, 2, 1, -2, 0, -6, 0
1503615989329,-2, 6, 2, -2, -3, 0, -1, 0
1503615989354,-3, -3, 0, 0, 1, -2, 4, -6
1503615989367,-6, -9, -4, -2, -2, -2, -5, 1
1503615989389,-3, -6, -1, 0, 1, 2, 0, -3
1503615989398,-1, -3, -3, -2, -2, 0, 11, 3
1503615989423,1, -8, 0, 0, 0, -1, -7, -5
1503615989442,-2, 2, -2, -4, -2, 0, -2, 0
1503615989457,-3, 0, 0, -2, 0, 1, -4, -2
1503615989480,0, 31, 1, -4, -1, -1, -1, 0
1503615989502,-2, -16, -6, -1, -1, -3, -2, -4
1503615989520,1, 3, -7, -2, 0, -1, -4, -2
1503615989547,0, -8, -1, 2, -2, -1, -1, -1
1503615989562,-4, 1, 14, 3, 1, -1, -3, 5
1503615989578,0, -8, -12, -4, -1, -3, -2, -4
1503615989600,-3, -7, -2, -1, 0, 0, 5, -4
1503615989623,3, 9, 0, 1, -2, 2, 1, 3
1503615989644,-3, -13, -2, -2, 0, -1, 3, 6
1503615989653,-1, -20, -4, 1, -2, -1, -3, -1
1503615989674,-1, 2, -1, -1, 0, -1, -2, -1
1503615989689,-4, 11, 2, -1, -3, 0, 15, 3
1503615989712,-3, 2, -3, -3, -2, 2, 3, 6
1503615989734,1, 1, 3, 1, 0, -1, -4, 1
1503615989749,2, 1, -4, -2, -3, 0, -1, -1
1503615989771,-3, 12, 8, 2, 0, 0, 1, -3
1503615989793,0, -1, -2, 0, 1, 0, -4, 1
1503615989809,0, -10, -7, -2, -2, -1, 0, -4
1503615989832,1, -1, -3, -2, 0, -1, -4, 3
1503615989856,0, 1, -2, -2, -2, -2, -1, -2
1503615989869,1, -9, -4, 0, 0, -1, -5, -3
1503615989892,1, 6, 2, 0, 0, -1, 0, 2
1503615989913,-1, 20, 1, -2, -1, -1, -17, -6
1503615989929,-1, -12, 0, 0, -2, -2, 3, 0
1503615989952,-2, -1, 7, 0, 1, 0, -1, -4
1503615989974,-1, -4, -4, -1, -3, 1, 3, 1
1503615989990,-2, -11, -5, -1, 0, -1, -17, -9
1503615990012,-2, 1, 0, 2, -1, -1, 6, 4
1503615990034,-1, 5, 0, -3, -2, 0, 1, -5
1503615990049,-1, 0, 1, 0, 1, 1, 4, 0
1503615990072,-2, -8, 1, 2, -1, -1, -5, -7
1503615990094,1, 4, -3, -2, 0, -2, 7, 9
1503615990109,-3, -2, -1, 0, 1, -1, -1, -5
1503615990133,-1, -5, -1, -3, -5, 0, 3, 7
1503615990154,2, 8, 1, -2, -1, -2, 0, -5
1503615990169,2, 0, -5, 1, 2, -1, 6, 2
1503615990192,-1, 3, 3, -1, -1, 1, -5, -3
1503615990215,-1, 3, -2, -1, -1, -1, -5, 10
1503615990229,-1, 17, 2, -1, -2, -1, 14, 3
1503615990252,0, -9, -4, -1, -2, -2, 0, -1
1503615990274,-3, -9, 3, 0, -1, -1, -3, -2
1503615990292,1, -2, -2, -3, -1, -2, -4, -2
1503615990312,-1, -25, -6, 0, 2, 0, -1, -1
1503615990335,-1, -7, -8, -1, 0, 1, -3, -4
1503615990349,0, -11, -6, -3, -2, 0, 4, 3
1503615990372,0, 12, 0, 0, -1, -1, 1, -7
1503615990394,-2, 6, -3, -1, 0, 1, -17, -2
1503615990409,0, -7, 2, 0, 0, 0, 3, 6
1503615990432,1, 2, -1, -2, -1, 0, -8, -5
1503615990454,-2, -4, 0, -2, 1, -1, 0, 2
1503615990469,1, 1, -4, -2, -4, -4, -1, 0
1503615990493,2, 28, 7, 1, 1, -2, 1, 0
1503615990514,-2, -6, 1, 0, -2, 0, 5, 3
1503615990536,-2, 7, -3, -1, 1, 1, 3, -3
1503615990551,-2, -3, 1, 0, -2, -1, -6, -2
1503615990574,-2, -2, -1, -2, 0, -2, 1, -2
1503615990596,0, -3, -2, -1, 0, 1, 2, 3
1503615990612,0, -10, -2, 3, 1, 0, 9, 2
1503615990634,2, -2, 2, -2, -2, 0, 2, 0
1503615990656,-1, -1, 0, -4, 1, -1, -5, 0
1503615990672,-4, -4, 0, -1, -2, -3, -4, -5
1503615990695,0, -1, 0, 6, 5, 3, 7, 3
1503615990716,-1, -4, -2, -4, -7, -1, -4, -9
1503615990737,2, -1, 1, 17, 17, 3, -13, 8
1503615990754,-1, -3, 2, 17, 16, 4, 1, -3
1503615990776,0, -4, -4, -5, -15, -1, -1, -3
1503615990792,-4, -2, -5, -27, -26, -5, -3, -4
1503615990814,-2, -2, -4, -3, 8, -4, 4, 2
1503615990836,1, -2, 0, 2, -7, 1, 1, -2
1503615990852,4, 1, 1, 3, 1, 0, 1, 0
1503615990875,-2, -3, -4, -4, 13, 0, 0, 2
1503615990897,3, -1, 1, -3, -3, 0, -2, 0
1503615990905,0, -1, -1, -1, -15, 0, -2, -5
1503615990927,0, -3, 0, -8, -7, -2, 5, 12
1503615990942,-1, 0, -2, 13, 6, 1, 5, 6
1503615990964,-2, 1, 0, -5, 0, -3, -1, -1
1503615990987,-2, -3, -3, 10, -3, -2, -3, 5
1503615991002,0, -1, 1, 1, -6, -2, -1, -3
1503615991024,-3, 1, 1, -1, 2, 2, 0, 0
1503615991046,0, 0, 0, 9, 10, -2, -10, -6
1503615991064,0, -1, 0, -8, -9, 0, 6, 5
1503615991084,1, 0, 1, 2, 3, 1, -5, 0
1503615991107,-2, -2, 0, -5, -3, 1, 5, -3
1503615991122,0, 0, -3, -1, -3, -2, -2, -4
1503615991144,-1, -3, -4, -1, 4, 0, -3, -10
1503615991167,-2, -2, -2, 1, 2, -3, -5, 5
1503615991182,1, -2, -2, -8, -17, -2, -1, -2
1503615991204,4, 0, 2, 1, -3, -1, -1, 0
1503615991227,-4, 3, 4, -1, -2, 1, 2, -3
1503615991242,-7, -5, -1, 2, 0, -1, -3, -1
1503615991265,-3, 4, -5, -2, 0, -2, -5, -1
1503615991286,16, 3, -1, 11, 9, 1, -1, 1
1503615991302,-9, -4, -2, 2, -12, -1, 5, -2
1503615991324,5, 1, -1, -6, 0, -2, -1, -8
1503615991346,-4, -2, 1, -4, -2, 1, -1, 2
1503615991362,-3, -7, 0, 17, 16, 1, 0, 4
1503615991384,-11, 44, 26, -1, 2, -2, -1, -7
1503615991407,1, -12, -7, -3, -10, 3, 1, 1
1503615991422,2, -7, -6, 0, -1, 0, 0, 0
1503615991444,2, -5, -7, -8, -4, -3, -6, -6
1503615991467,-2, -25, -6, -6, -2, -5, -6, 7
1503615991489,2, -2, -7, -13, -9, -3, 1, -1
1503615991504,-3, -3, -1, 0, 0, 1, -4, 0
1503615991526,2, 0, 2, 0, 7, -1, 6, 6
1503615991549,-2, 10, 7, 3, -5, 0, -4, -2
1503615991564,0, 0, -7, -2, -1, 1, 8, -4
1503615991586,0, 3, -3, -3, 0, -3, 1, 2
1503615991610,3, 6, 4, -1, -8, -3, -20, -9
1503615991624,-1, -6, -1, -2, 3, -1, 0, 2
1503615991647,-3, -4, -4, -2, -1, 0, 3, -3
1503615991672,0, -1, 2, 11, 3, 1, 3, 4
1503615991684,-1, -3, -3, -3, 1, 1, 0, -4
1503615991707,3, -3, -2, -3, 2, 0, 2, -1
1503615991729,5, -3, 0, -2, 0, 2, 9, 7
1503615991744,-5, 1, 2, -1, 1, 0, 3, 0
1503615991769,-12, -1, -3, -4, -1, 2, 3, 5
1503615991789,0, 0, -1, 0, 0, -1, 3, -6
1503615991806,-1, 0, 4, 1, 0, -2, 2, -6
1503615991827,20, -3, -7, -3, -5, -3, 2, 11
1503615991849,0, -2, 0, -4, -3, 0, -10, 3
1503615991864,-6, -6, -5, -2, -1, 0, -6, 4
1503615991887,4, 4, 2, 3, 5, 14, -7, -6
1503615991909,1, 0, -4, 1, 4, -8, -4, -3
1503615991924,2, -8, -5, -1, -9, -25, 0, -9
1503615991947,1, -15, 1, 1, -2, 4, -1, 0
1503615991970,2, -8, -6, -5, -5, -2, 1, 1
1503615991976,-7, -14, -4, -1, 1, 14, 2, 0
1503615991998,-7, 2, -2, -4, -6, -7, 0, 1
1503615992014,10, -3, -3, 0, -1, -4, 5, -1
1503615992038,-24, -8, -3, -1, -2, -3, -1, 0
1503615992058,1, -15, -9, 0, -4, -3, -6, -15
1503615992074,8, -9, -4, 0, 0, -2, -3, -8
1503615992105,-14, -2, -3, 2, 1, -2, 5, 11
1503615992119,-1, 6, 2, -1, -2, -4, -4, 2
1503615992134,-10, 4, 2, 0, 2, -1, 1, -5
1503615992156,-13, -3, -4, -4, -3, -1, 5, 5
1503615992178,-10, -6, -5, -4, -3, -2, -1, -5
1503615992194,8, -4, -2, 2, -1, -1, -5, 1
1503615992216,-11, -1, 4, -1, 0, 8, -4, -6
1503615992240,8, 15, 6, -2, -7, -9, -2, -5
1503615992254,-7, -6, -1, 0, -2, -3, -4, 0
1503615992276,39, 7, -6, -3, 2, 0, 0, 6
1503615992298,9, -8, 1, -6, 4, 0, 1, 1
1503615992315,15, 1, -5, -7, -4, -3, 6, 13
1503615992336,-8, -6, -2, 6, 5, 1, -2, 2
1503615992358,-19, 11, -7, -5, -3, -1, 2, 13
1503615992375,-12, -4, 6, 3, -1, -2, 7, 9
1503615992396,2, 4, 0, -10, -9, 1, 2, -13
1503615992418,24, 2, 3, 3, -1, 0, -4, -2
1503615992442,40, 25, 9, 4, 1, 0, 4, 2
1503615992456,-23, -8, 7, 2, 0, -3, -3, -21
1503615992478,-3, -10, -3, 3, 1, -1, -6, -3
1503615992487,-9, -5, 0, -2, 2, -2, -2, 0
1503615992509,-9, -8, -6, -1, -1, -1, -1, -10
1503615992531,2, 12, 7, 2, 5, 0, 0, 0
1503615992547,6, 7, 2, 1, 3, 3, 11, 7
1503615992569,9, 0, -4, -9, -15, -5, 1, -8
1503615992592,3, -4, 1, 4, 1, -1, -5, -5
1503615992599,-11, -14, -3, -8, 0, 3, -3, 2
1503615992621,-7, 7, 13, 5, 0, -4, -13, -22
1503615992636,31, -16, -3, 3, 1, 3, 5, 7
1503615992659,-1, 6, 5, -1, -5, 2, 4, 4
1503615992681,-16, -4, -6, -1, -7, -6, -21, -10
1503615992689,-53, -2, -2, -7, 17, 1, 2, -9
1503615992712,17, -16, -4, -3, -16, -5, -4, 6
1503615992727,-37, 3, 4, 4, 1, 2, -11, -11
1503615992749,-6, 10, -1, 0, -3, -2, -15, -19
1503615992771,14, -9, 1, 1, 2, 0, 6, 3
1503615992786,-14, -6, 1, -4, -3, 0, 3, 5
1503615992810,8, 5, -7, -2, -2, -3, -12, 1
1503615992831,15, -22, -7, -2, -2, 0, 2, 2
1503615992847,-14, -6, -5, -1, -2, 0, 17, 12
1503615992870,7, -10, 2, 22, 23, 5, -5, -5
1503615992891,24, -16, -8, -8, -9, -3, 1, 4
1503615992900,-9, 5, -4, -3, -3, -1, -5, -17
1503615992922,-14, -11, -10, -4, -5, -3, -4, 1
1503615992945,-43, 13, -4, -1, -5, -5, -4, -16
1503615992959,3, -16, 2, -3, 2, -1, 0, 3
1503615992982,-21, -2, -2, -2, -1, 2, 0, -10
1503615993004,5, 28, 0, 2, -1, -1, 0, 5
1503615993012,9, 1, -6, -1, -2, 0, 5, 7
1503615993026,-18, 4, 6, 3, 1, 1, 1, 0
1503615993049,-53, -8, -2, 0, 2, -1, 1, -5
1503615993071,5, 1, 3, -1, 3, 0, -12, -13
1503615993087,19, 20, 3, -2, -2, -1, -1, 2
1503615993103,7, 5, 11, 3, 0, 0, 3, 6
1503615993124,-17, -1, 0, 4, -1, -1, 4, 0
1503615993139,9, -2, -1, -2, -8, -1, -7, -5
1503615993162,12, 20, 1, -1, 1, 1, 3, -1
1503615993184,5, -2, -4, 2, 2, 1, -1, 4
1503615993200,-4, -3, -6, -5, -3, -2, -3, -6
1503615993222,2, -8, -4, -7, -5, -2, -3, -3
1503615993247,6, 8, -5, -2, 0, 1, -1, 0
1503615993260,22, 9, -2, 4, -1, 0, 2, 0
1503615993282,-16, -12, -2, 0, 2, 0, -1, -6
1503615993305,-16, -9, -1, -1, 2, 0, 0, 3
1503615993320,-8, -23, -9, -5, -5, -3, -2, -5
1503615993342,15, 5, 10, 0, 0, -1, -1, 5
1503615993365,7, 10, 6, 6, 6, 1, 1, 4
1503615993387,20, -5, -4, -1, -3, 0, -1, 1
1503615993409,5, 0, -2, -4, -4, -2, -2, 6
1503615993424,5, 1, -2, 0, 2, -2, -3, -6
1503615993439,1, -1, -3, -2, -2, 1, 2, -2
1503615993463,-17, -20, -10, -2, 0, -4, -2, -2
1503615993485,1, -8, 0, 5, 8, 1, 5, -3
1503615993499,13, 23, 8, 10, 5, 1, 3, 0
1503615993515,-25, 0, -4, -1, -2, -2, -6, -4
1503615993529,18, 0, 2, 1, -2, -1, -4, 1
1503615993552,24, 20, 1, 3, -2, -4, -9, -7
1503615993574,-8, -30, -2, 8, 1, 0, 1, -1
1503615993589,1, -13, -6, -4, 0, 0, 2, 2
1503615993611,23, -11, 0, 1, -1, -1, 1, 0
1503615993634,-12, 43, 9, -1, -2, -2, 2, 3
1503615993649,-20, -4, 7, -6, -7, -1, 3, 0
1503615993671,10, -12, -4, -3, -2, -3, 0, -5
1503615993694,6, 7, 0, 2, 0, -2, 3, 0
1503615993709,-7, -15, -11, -4, -2, -1, -2, 5
1503615993731,24, -22, -6, 2, 4, 0, -3, 8
1503615993754,10, 1, 10, 6, 1, 1, -1, 3
1503615993769,-2, 40, 11, 1, 3, 3, 0, -1
1503615993792,-24, -8, -4, 1, 4, 0, 6, -4
1503615993814,16, 3, 2, 0, 2, -1, -4, 4
1503615993829,-13, 0, -3, -4, -6, -2, 1, -5
1503615993852,-9, -15, -8, -5, -1, 1, -4, -12
1503615993874,-4, 12, -3, 2, -1, -1, 0, -6
1503615993889,6, -18, -3, -6, -1, -1, -3, 2
1503615993911,-3, 0, 0, -6, -5, -6, -9, -9
1503615993934,-4, 12, -2, -4, -3, -1, 3, 5
1503615993957,-15, -2, -1, 1, 2, 1, 3, 2
1503615993971,2, -15, -5, -2, -2, -2, -4, 2
1503615993994,-1, -5, -3, 1, -2, 0, -1, 0
1503615994009,-4, 2, 0, -5, -2, -1, 1, 0
1503615994031,3, 10, 2, 5, 5, 1, -3, 1
1503615994039,-4, -7, -3, -4, -1, 1, 7, -1
1503615994062,-2, 7, 6, 0, 1, -2, 0, 0
1503615994087,5, 0, 4, 10, 7, 1, 0, 5
1503615994099,4, 0, -4, 0, 1, -2, -13, 8
1503615994122,3, -8, -7, -8, -7, -4, 3, 4
1503615994144,3, -5, -2, 9, 4, 2, 1, -3
1503615994160,4, 12, 0, -3, 4, 0, 2, 13
1503615994182,-1, 6, 0, -4, -2, -1, -2, 1
1503615994204,3, -4, -1, -3, -2, 0, 5, -8
1503615994222,3, 1, 1, -2, -1, -2, -1, -3
1503615994243,-11, -2, -2, 2, -2, 1, -5, -2
1503615994264,-4, -10, -4, -3, -5, -2, 7, 2
1503615994287,5, 0, 1, -3, 0, 1, -2, -3
1503615994302,-19, 5, 2, 0, -1, -1, 3, -12
1503615994326,14, -6, 1, -3, 1, -2, -8, 0
1503615994346,-3, -2, -1, 2, 4, -2, -3, 9
1503615994364,-9, 1, -3, -4, -2, -3, -3, -12
1503615994390,-2, 5, 4, -1, -2, -2, 1, -11
1503615994407,5, -6, -3, 0, -1, -1, -5, 9
1503615994427,-8, 0, 6, 3, 1, 3, -5, 6
1503615994444,1, -8, -4, -3, -2, 3, 14, 2
1503615994466,0, 1, -2, -1, 0, 1, 2, -8
1503615994482,-2, 5, 4, 3, -1, -1, -2, -2
1503615994504,-4, 4, -4, -1, -1, -1, -6, 0
1503615994527,-2, 16, 0, -2, 3, -1, -2, -4
1503615994542,-3, -15, -4, 1, 0, -2, -5, -13
1503615994565,1, -4, -4, -3, -4, 0, -2, 6
1503615994589,0, -7, 0, 0, -2, -3, -3, -9
1503615994602,-6, 5, -3, -2, -1, -3, 0, 0
1503615994625,3, 21, 6, 3, -2, 0, 6, 5
1503615994646,-6, -14, -4, -3, 0, 0, -10, -4
1503615994657,9, 1, -4, -9, -7, -2, -1, -2
1503615994676,-3, -8, -5, -5, -6, -1, -2, 4
1503615994706,2, 1, -4, -4, -3, -3, 2, 4
1503615994726,-1, 12, -3, -7, 0, -3, -20, -15
1503615994745,-8, -27, -3, -6, -7, 0, 6, 3
1503615994767,-2, 7, 1, 1, -2, 0, 6, 0
1503615994782,-2, -5, -5, -1, -3, -4, -2, -7
1503615994804,4, 5, 2, 3, 2, 2, 4, 3
1503615994830,-3, -11, -2, 1, 1, 2, 0, 6
1503615994842,-3, -4, 0, -1, -2, -2, -9, -4
1503615994864,0, -3, -3, -1, -1, -1, -7, -1
1503615994886,14, 5, -1, 4, 2, 0, 3, -4
1503615994902,-1, -16, -6, -2, 1, 0, -11, 8
1503615994926,-16, -7, 5, 1, -1, -3, 2, -2
1503615994947,6, 12, -1, 7, 3, -2, 1, -3
1503615994962,1, -1, 1, -2, -2, 0, 3, 4
1503615994984,1, 12, 5, -2, 3, 4, 2, 1
1503615995006,-8, 22, 9, 1, 0, 1, 2, -4
1503615995022,-5, -8, -6, -2, -1, -2, 2, -3
1503615995044,2, -8, -3, -4, -2, 1, 1, -10
1503615995069,2, -14, 1, 1, 0, -1, -3, -2
1503615995083,-1, -7, -1, -1, -3, -4, -4, 0
1503615995105,0, -1, -4, -1, 0, -2, 0, 0
1503615995127,2, 10, -2, 0, -1, 1, 4, 1
1503615995142,7, 13, 3, 0, -1, -3, 1, 3
1503615995166,-1, 3, 6, 0, 0, 1, 1, 2
1503615995186,-1, -2, -2, 1, 1, 1, 0, -1
1503615995209,0, -2, 2, 1, -3, 1, -2, -6
1503615995226,-4, -3, -9, -3, 0, -3, 2, 0
1503615995246,-1, -8, 5, 2, -1, 1, 1, 3
1503615995269,0, 20, 7, 2, 0, -2, -1, -2
1503615995277,-1, 1, 1, 2, 3, 0, 0, -5
1503615995298,-3, 4, -3, -2, -2, 0, -4, -1
1503615995314,3, 11, 6, 3, -3, -1, 1, 1
1503615995336,-2, 1, -1, -1, -2, -3, 6, 1
1503615995358,-4, 14, -4, -4, 1, 0, -4, -2
1503615995374,-2, -10, -4, 0, -3, -1, -2, 4
1503615995397,-1, 9, 4, 0, 0, -3, 1, 1
1503615995418,0, -2, 0, -1, 0, -2, -4, -5
1503615995434,-1, 2, -4, -4, -1, -1, 0, 2
1503615995456,0, 2, 5, 1, -1, -2, -4, -11
1503615995478,0, -4, 0, -1, 0, -2, -4, 1
1503615995495,0, -1, -1, 0, -1, -1, -1, 2
1503615995516,-3, -4, 4, 0, -1, 0, 0, 1
1503615995538,0, -10, -7, 0, 0, 0, 3, -1
1503615995554,-1, -7, -5, -3, -2, -3, -15, -9
1503615995576,-1, -3, 0, -1, -1, 2, 8, 2
1503615995598,-1, 1, -1, -1, 0, -2, 1, -1
1503615995614,0, -1, 3, 1, 0, 2, -1, -1
1503615995641,0, -3, 5, 0, -1, -3, 1, 2
1503615995658,2, -15, -5, -1, 1, 1, -6, 6
1503615995674,-1, -3, -4, 0, -1, 0, 2, -1
1503615995696,0, 2, -4, 1, 0, 1, -2, 0
1503615995706,-3, -8, -4, -1, -2, -1, -2, 7
1503615995727,0, 1, 1, 0, -1, -2, 1, -4
1503615995749,-1, -2, 1, -2, -1, 0, 2, -1
1503615995765,0, -1, 0, 0, -1, 0, -3, 1
1503615995786,-2, -3, 3, 2, 4, 0, 0, -3
1503615995809,-2, 2, -2, -2, -2, -1, -1, -3
1503615995824,1, -8, -5, -2, -2, -2, -2, -2
1503615995846,-4, 3, -1, -1, -2, 0, 0, -3
1503615995869,-1, -2, -3, 0, -1, 0, -4, 0
1503615995884,7, 8, -1, 1, 0, -2, -6, -7
1503615995906,-3, 2, -1, -2, -2, 0, 4, 6
1503615995929,-2, -2, 2, 0, 0, 1, 1, -2
1503615995945,-1, -1, -1, -3, -2, -1, -1, 2
1503615995966,-5, -9, 0, 0, 0, -1, 1, 0
1503615995989,-1, 0, -1, -1, -2, -3, -2, -6
1503615996004,-1, -2, -2, 3, 2, 2, 1, -1
1503615996018,1, -4, 2, 1, -1, 0, -1, -2
1503615996034,4, 2, -3, 0, -2, -2, -2, 5
1503615996056,2, 0, -1, -1, -1, -2, -16, -13
1503615996078,1, 5, 1, -3, -4, 0, 3, 3
1503615996094,4, -2, 1, 0, 0, -1, 0, 2
1503615996116,4, 2, -1, -2, -2, -1, 2, 5
1503615996138,-4, -1, -2, -2, -1, 1, 0, 2
1503615996161,-1, 0, -1, 0, -3, -1, 1, 1
1503615996176,-8, -3, -1, -1, 3, 1, 1, -1
1503615996192,7, 3, -3, -2, 0, 0, 0, -5
1503615996206,2, -1, -1, -4, -4, -1, -2, 2
1503615996229,-3, 1, -3, -2, -3, -3, 0, 0
1503615996251,11, 7, 2, 1, 0, -2, 2, 3
1503615996270,-4, -5, -5, -2, 0, -3, 1, 1
1503615996289,-18, -1, 1, 0, 0, -1, -6, -2
1503615996311,4, 3, -1, -1, -1, -1, -4, -2
1503615996326,2, -6, -2, -2, 0, -3, -1, 3
1503615996356,-9, -5, 3, 2, -1, -1, -3, 0
1503615996372,4, 1, 0, -2, 0, 5, 12, 3
1503615996379,-40, -3, -1, -2, -2, -2, 0, -1
1503615996404,3, 0, 0, 0, -2, -1, -2, -6
1503615996416,15, -4, -3, -2, -2, -1, -1, 0
1503615996438,-6, -2, 2, -1, 2, 1, -3, -1
1503615996460,16, 5, 0, 0, -3, 0, 1, -1
1503615996476,0, 8, -4, -2, -1, -1, 0, -5
1503615996491,9, -1, 0, 0, -2, -3, -2, 4
1503615996507,-2, 10, 2, 1, 1, -1, 1, 3
1503615996529,-10, -8, 4, 4, 4, 2, 4, -1
1503615996551,-3, -7, -4, -4, -1, -4, -2, -1
1503615996568,-24, -7, -4, -4, -3, -2, -6, -5
1503615996589,5, -3, -2, 3, -1, 2, 4, -13
1503615996611,-9, -4, 0, 0, 0, -3, -2, -1
1503615996626,2, 5, 0, -1, -2, 1, -2, 3
1503615996649,17, 2, 1, -1, -4, -3, -8, 0
1503615996672,5, 0, 0, -3, -2, -2, -3, -1
1503615996686,2, 4, 1, 0, -2, -2, -1, -4
1503615996709,7, -4, -4, 4, 6, -1, 0, -1
1503615996731,-15, -2, 0, -5, -4, 1, -3, -3
1503615996746,4, -6, -3, -2, -3, -1, -1, 4
1503615996771,-10, -3, -2, -5, -3, -1, 1, 1
1503615996791,-7, 0, 0, 7, 10, 1, 3, 2
1503615996807,-4, -1, -2, -7, -5, 0, -2, 0
1503615996829,4, 2, -2, 3, 2, 0, 1, 1
1503615996851,-26, -6, 0, -7, -6, -1, -2, -1
1503615996867,-2, 0, -2, 0, -4, 0, 5, -4
1503615996890,4, 1, 1, 3, 4, -3, -1, -1
1503615996911,3, 0, 1, -3, 0, -1, -1, -4
1503615996927,0, -3, -1, -3, -3, -2, -3, 4
1503615996949,5, -1, -1, 1, 3, 0, 6, 4
1503615996972,0, 1, -1, 1, -5, 1, -1, -1
1503615996987,11, 5, 3, -2, -3, -1, 0, -1
1503615997002,18, 2, 0, -9, -1, -3, 0, -2
1503615997018,0, -2, 0, 1, 5, -2, 0, 1
1503615997040,-6, -1, 3, 1, -2, 1, 0, 0
1503615997061,-26, -5, -1, -3, -6, 0, -1, 2
1503615997083,7, -2, -2, 2, 5, -1, 0, -3
1503615997099,1, -2, 0, 0, 2, 1, -3, -1
1503615997121,9, 3, -1, -1, -4, -1, -1, 1
1503615997143,-6, -1, -1, 0, 5, -2, 1, -2
1503615997159,1, -1, -2, -4, -6, 0, -4, -5
1503615997181,20, 3, 1, 7, -2, -1, -2, -1
1503615997203,-3, -1, -1, -1, -5, 0, -1, 4
1503615997226,-1, -3, -1, -3, -2, -2, -2, -4
1503615997249,-4, 2, -1, -1, 0, 0, -1, -3
1503615997263,-6, -2, -4, -3, 4, 0, 3, 1
1503615997279,0, -1, -1, -2, -1, 0, -3, -2
1503615997301,0, 0, 0, -1, 1, 0, 2, 5
1503615997323,-7, -3, -1, -5, -7, -3, -1, 3
1503615997341,-3, -1, 0, 5, 5, 1, -1, 2
1503615997361,-3, 0, 1, 2, -2, -1, -1, 0
1503615997383,-6, 0, 1, -1, 0, 0, -2, -6
1503615997399,0, 0, -1, 0, 4, 3, 0, -2
1503615997421,3, 4, -4, 7, 0, -2, 0, 1
1503615997443,8, 11, 16, 0, 0, -1, 0, 3
1503615997459,5, -5, -12, -2, -3, -2, 1, -1
1503615997481,2, 11, 18, 1, -11, -3, -1, 2
1503615997503,-6, -6, -1, 9, 5, 4, 1, -1
1503615997519,-1, -7, -8, -16, -17, -6, -3, -9
1503615997542,-1, -3, -4, -5, 2, 2, -2, -8
1503615997563,0, -11, 5, 1, 3, 0, 2, 2
1503615997579,-3, -11, -6, -3, 2, -2, -8, -3
1503615997601,-6, 4, -1, 11, 13, -1, -3, 3
1503615997623,8, -8, -4, 5, 3, 0, 1, 5
1503615997639,8, -10, -9, -6, -6, -2, 1, 1
1503615997660,5, 19, 5, -1, -4, -1, -2, 2
1503615997683,9, 6, 0, 10, 4, 0, 0, -3
1503615997699,-4, 1, 4, -13, -13, -4, 1, 2
1503615997721,8, -14, -13, -8, -4, 0, 0, 4
1503615997747,38, 4, -4, -4, -9, -2, 0, 2
1503615997759,-13, -2, -3, 12, 7, 1, 2, -3
1503615997782,3, -10, -6, -1, 1, 1, 1, 2
1503615997789,3, 8, 6, 1, -2, -5, -2, -2
1503615997818,3, 6, 2, 0, -2, -2, 0, -5
1503615997834,3, 4, -1, -2, -5, -2, -3, 0
1503615997849,29, 4, 2, -2, -4, 1, 3, 8
1503615997871,-7, -10, -5, 2, 2, -3, -7, -6
1503615997894,-4, 6, 3, 1, 3, 1, 4, 5
1503615997909,-19, -6, 3, -2, 1, 1, 0, -3
1503615997931,4, 2, 0, -3, 0, 0, 3, 7
1503615997954,-37, -3, -1, -16, 1, 0, -6, -1
1503615997969,16, 4, 1, -2, -2, 5, 4, 0
1503615997991,16, 12, 9, 5, -3, -5, -4, 0
1503615998014,0, 6, -6, 1, 1, -2, -7, -9
1503615998036,-33, 31, 14, 5, 8, 0, 3, -9
1503615998051,18, -9, -3, 4, -3, -1, 4, 7
1503615998074,-2, -6, -4, 2, 3, 1, -5, 4
1503615998096,14, -11, -6, -11, -6, -7, -7, -8
1503615998113,25, -8, 0, 0, 0, -1, 0, -18
1503615998135,21, -2, -7, 0, -9, 1, -3, -3
1503615998157,-8, -1, 3, 13, 3, 0, -1, 2
1503615998171,-21, -4, 0, 0, 5, -2, -1, -4
1503615998194,11, -6, -6, -5, -7, -1, 3, 4
1503615998217,-5, -4, -5, 0, 3, 3, 7, 10
1503615998231,2, 11, 7, -1, -1, -1, -5, 4
1503615998254,-7, -6, -3, 6, 0, -4, -2, 6
1503615998277,0, -1, -1, -11, -6, -4, -1, 1
1503615998292,21, 2, -3, 8, 0, 1, 0, 4
1503615998315,-3, -6, -5, -9, -4, -2, -4, -12
1503615998337,3, -2, 2, -2, -7, -2, -2, 3
1503615998352,-11, -3, -4, -9, 1, 1, 2, 3
1503615998374,-15, -9, -2, -2, -1, -2, -3, -4
1503615998397,-4, -23, -10, -5, -2, -2, -5, -9
1503615998411,4, -4, -5, -1, -2, -2, -9, -1
1503615998434,1, 0, -1, -4, -5, -6, 3, -3
1503615998456,-14, 6, 8, 3, 1, 2, 0, 2
1503615998471,-8, 5, 2, 1, 3, 6, 7, 8
1503615998494,28, 4, -1, -2, -1, 1, 4, 2
1503615998517,-18, -2, 0, 5, 4, 1, 1, -5
1503615998532,-10, 1, -2, 2, -7, 1, -4, -3
1503615998554,14, 3, 1, -13, -9, -4, -3, -2
1503615998576,-7, 0, -1, -3, 1, -2, -11, -2
1503615998592,2, 19, 4, 4, 5, -2, 0, -2
1503615998614,3, -11, -3, -4, -2, 1, 2, 3
1503615998636,-4, -3, 1, 2, -1, -3, -4, -10
1503615998651,11, 3, 1, 1, 5, 0, 2, 2
1503615998674,-16, 0, 3, 2, 1, -2, -2, -5
1503615998696,-17, -9, -6, -2, -3, 1, 0, 1
1503615998711,4, 1, -1, 2, 1, -1, 14, 4
1503615998734,12, 2, 1, 0, 1, -2, -4, -1
1503615998756,10, 3, -1, 1, -1, 1, -3, -2
1503615998771,-13, -4, -3, -4, -3, 1, 10, 7
1503615998794,3, 12, 0, -1, 1, -1, 0, -3
1503615998819,2, 15, -1, -1, -2, 2, -4, -1
1503615998831,2, -9, -3, 1, 0, -2, -4, -5
1503615998854,-3, -4, 5, 1, 1, -2, -10, -17
1503615998876,-1, 4, 2, 0, -1, 2, 0, 7
1503615998891,-2, -5, 1, 0, -3, -1, 5, 0
1503615998914,6, -8, -1, 1, 2, -2, -2, -6
1503615998937,-12, -3, -3, -3, -4, -2, 1, 3
1503615998959,-1, -4, -4, 0, 0, -1, 3, -1
1503615998974,-3, -2, -3, 0, 1, 3, 13, 3
1503615998996,4, -5, -5, -3, -1, -1, 2, -4
1503615999021,-3, -4, -2, -4, -1, 2, 5, 3
1503615999034,-3, 26, 5, -2, 0, -2, -12, 2
1503615999058,0, -10, -3, 2, 3, 0, -4, 4
1503615999079,-8, -5, -1, -2, -3, -1, -8, -7
1503615999094,3, -3, -2, -3, -3, 0, 5, 6
1503615999116,-2, -2, 0, -2, 1, -2, 7, -2
1503615999139,3, -7, -4, -1, 0, -2, -2, 5
1503615999154,1, 1, -1, -1, -4, -1, -11, 1
1503615999176,-1, -1, 0, -1, -4, 0, -4, -10
1503615999199,-7, -1, 0, -1, -2, 1, 0, -1
1503615999214,-8, -12, -2, -2, -3, -4, -8, -4
1503615999236,9, 1, -1, -1, 1, -1, 2, 9
1503615999259,-29, -11, -3, 1, -1, 0, -2, -1
1503615999274,-2, 10, 9, 0, 1, 0, -5, -5
1503615999297,-2, 0, 3, 13, 5, 0, 1, 1
1503615999319,8, -2, -2, -6, -3, -2, -3, -4
1503615999334,4, 15, 3, -1, -5, -4, -2, -3
1503615999357,11, 24, -2, 0, -2, -1, -5, -6
1503615999379,-4, -19, -6, -4, -1, 2, 10, 1
1503615999394,6, 0, -3, -2, -1, -1, 2, 8
1503615999416,5, -20, -5, -6, -4, -1, -5, 1
1503615999439,9, -5, -2, -3, 0, -1, 1, -1
1503615999456,-4, 21, 0, 0, -3, -2, -2, -8
1503615999476,-32, -12, -3, 2, -2, -2, -6, -12
1503615999499,17, 1, 0, 1, 2, 2, 1, 10
1503615999514,3, -2, -4, -1, 2, 0, 6, 1
1503615999536,17, -11, 2, 2, 1, 0, -2, 3
1503615999559,-17, 3, 1, 0, -1, -1, 1, -8
1503615999574,18, 18, 4, -4, 0, -1, -4, 0
1503615999596,-7, -2, 2, 5, -1, 0, 3, 7
1503615999619,-25, 14, 0, 0, 1, 0, 0, -4
1503615999634,-6, -17, -14, -4, -3, 1, -1, 2
1503615999657,13, -6, 1, -1, 0, -2, -4, 0
1503615999679,2, -4, 3, 6, 3, -1, -1, -1
1503615999694,1, 20, 11, -6, -4, 0, -2, 4
1503615999716,-9, 1, -3, -2, -3, 3, 6, 6
1503615999739,18, -7, -2, -2, -4, -3, -8, -1
1503615999754,-8, 21, -1, 2, 2, 1, 8, -1
1503615999776,5, -15, -3, -5, -3, -1, -1, 3
1503615999799,9, 9, -1, 0, 1, 2, 6, 10
1503615999815,-17, -16, -5, -6, 0, -5, -7, -14
1503615999836,6, -5, 1, 5, -1, 0, -5, 4
1503615999859,0, 1, -1, -3, -1, -4, -11, 2
1503615999882,-2, -26, -2, 2, 0, -2, -8, 2
1503615999896,-23, -9, -6, -3, 1, -1, -1, -12
1503615999919,11, -9, -4, -2, -6, -1, 0, -5
1503615999942,0, 6, 0, -1, -2, -1, -3, -1
1503615999959,-6, 3, -2, -2, -2, -2, 0, -2
1503615999979,-8, -9, -2, -1, 1, 0, 10, 2
1503616000002,0, 9, 9, 1, 3, -1, -7, -2
1503616000017,5, -10, -5, 0, 1, 2, 4, 3
1503616000039,2, 0, 2, 1, 1, 1, 1, 0
1503616000062,-7, 1, -3, 0, -1, -5, -16, -9
1503616000076,1, 0, -4, 0, -3, 0, 3, 3
1503616000099,0, -8, 1, 0, 1, -1, 2, -7
1503616000121,1, -13, 1, 4, 0, 2, 1, 3
1503616000137,7, 6, -1, -2, -3, -3, -12, -12
1503616000161,-2, -7, -1, -4, -2, 2, 8, 11
1503616000181,-5, 20, 4, -2, 2, -2, -2, -6
1503616000196,3, 1, 2, 12, 4, 1, 3, 2
1503616000219,1, 1, -5, -6, -3, -2, 2, 6
1503616000241,-16, -4, -3, -3, -1, -3, -5, -10
1503616000264,1, 6, -2, -4, -1, 0, 1, 1
1503616000279,3, -8, 0, 0, 2, -3, 5, 6
1503616000301,1, -1, -3, 2, -4, -2, 0, -10
1503616000316,4, 7, 0, -3, -4, 0, -1, 0
1503616000339,4, 15, 5, 1, 1, 1, 1, 3
1503616000363,1, 10, 5, -1, 2, 0, -2, 1
1503616000376,-5, 11, -1, -2, 0, 0, 0, -5
1503616000399,-9, -9, -3, -5, -6, -1, 1, 1
1503616000421,4, -3, -2, -6, -3, -2, -2, -3
1503616000436,-9, -15, -5, 0, -4, -1, 0, -4
1503616000459,12, 3, 9, 4, 3, 1, -1, 10
1503616000482,1, -13, -1, 13, 10, -1, -1, -1
1503616000497,-4, -1, -5, -5, -4, -1, -2, -3
1503616000519,-1, 1, -5, -7, -5, 1, 2, 1
1503616000542,0, 0, 3, 1, -1, 0, -4, -8
1503616000556,-2, 9, -1, 0, -2, -3, 0, 0
1503616000578,2, -9, -3, -2, 3, 0, -2, 1
1503616000601,-2, -11, -3, -4, 1, 1, -1, -4
1503616000616,-3, 7, 8, -1, -2, 0, 0, -3
1503616000642,1, -2, -9, -7, -2, -3, 0, 3
1503616000661,1, -3, 0, 2, -1, 0, 2, 1
1503616000676,-2, -11, -5, -3, -4, -3, 0, -4
1503616000699,-2, -1, 1, 1, 1, 2, 5, 4
1503616000721,2, -1, -1, 0, 1, -1, -7, -7
1503616000743,-2, 2, 1, -1, 1, -2, 1, 6
1503616000759,0, -1, 4, 0, -1, 0, -3, -5
1503616000781,2, 4, 5, 1, -2, -3, -2, 0
1503616000803,-2, -6, -6, 0, 1, 0, -4, 1
1503616000818,-2, -8, -3, -2, -3, -3, 2, -3
1503616000841,1, 4, -3, 1, -1, -1, -1, -2
1503616000863,-6, -11, -4, -1, 0, -2, -3, -7
1503616000871,-1, -1, 1, -1, 0, 0, -3, 1
1503616000894,1, -4, -5, -2, -5, -2, -14, 1
1503616000909,-3, 0, -1, 0, 2, 0, 6, 3
1503616000933,-3, -18, 4, 1, -2, -4, -3, -1
1503616000954,-2, -12, -4, -2, -3, -1, 3, 0
1503616000969,-2, -5, -2, -1, -1, -3, -1, 0
1503616000991,-1, -18, -9, -4, 0, 2, 7, -3
1503616001014,3, -1, -1, -2, -1, 1, 3, 5
1503616001029,-3, 5, 2, -1, -1, -1, -1, -1
1503616001051,-2, -6, -4, -2, -1, -1, -1, 2
1503616001074,-4, -12, -5, 1, -1, -2, -6, 1
1503616001090,0, 2, -1, -4, -1, 0, -3, -3
1503616001111,1, 5, 4, 1, 0, 1, -13, -8
1503616001140,0, 10, -6, -2, 2, -2, 10, 2
1503616001149,-1, -4, 15, 3, 0, 0, 6, 1
1503616001171,-3, -1, -8, 1, 1, 1, 0, -6
1503616001194,2, -3, 8, 2, 0, -3, -3, 0
1503616001210,-1, 3, -4, -3, -2, 0, 7, 0
1503616001231,-2, 4, 0, -2, -1, -1, -3, 2
1503616001253,0, -11, 6, 3, 0, 1, 2, -1
1503616001277,1, 6, -7, -3, -1, -3, 5, 4
1503616001291,-3, -4, -8, -3, -1, -3, -4, -2
1503616001314,-2, -2, 1, -1, 1, 0, -3, 0
1503616001329,1, -1, -4, 1, -3, 0, -2, -5
1503616001351,2, 10, -3, 0, -1, 0, -1, 4
1503616001374,-1, 13, 3, -1, -2, -1, -12, 1
1503616001389,0, -10, 2, -1, 0, 1, 4, 1
1503616001411,-2, 2, -1, -2, -2, -1, 4, 2
1503616001433,-2, 0, 0, 0, -1, -3, -2, -5
1503616001449,0, 0, -1, -1, 0, 1, 1, -2
1503616001471,-3, -3, -4, 0, 1, 0, 10, -2
1503616001493,-2, -13, -2, -2, -3, -3, 0, 0
1503616001509,0, -2, -6, -1, 1, -3, -4, -3
1503616001531,-1, 6, 1, -3, -1, -2, -1, 0
1503616001553,3, 15, 3, 0, 0, 0, -6, -1
1503616001572,1, 13, 18, 3, 0, -1, -14, -1
1503616001591,-3, 0, -4, -2, -2, 0, 3, 0
1503616001614,-1, -17, -9, -3, -1, -2, -1, 0
1503616001629,0, -3, 0, 0, -2, -1, -1, 2
1503616001651,-3, -2, 0, 2, 0, -2, 3, 0
1503616001674,1, -8, -4, -2, -3, -2, -5, 1
1503616001689,0, 1, -1, -1, 0, 2, 2, -2
1503616001716,-2, 8, -2, -1, 0, -1, -1, -6
1503616001733,-1, -10, -7, -1, 1, 2, 2, -1
1503616001756,-3, 12, 1, -2, -2, -1, 0, -3
1503616001773,0, -7, -1, 0, 0, 0, -13, -4
1503616001793,0, -5, 0, -1, -1, 0, 3, 6
1503616001816,-1, -12, -3, 0, -1, -1, 0, -1
1503616001831,-4, 3, -3, -2, 1, -2, 3, -6
1503616001853,1, -8, 1, 1, -2, 0, 2, -1
1503616001878,-1, 2, 0, -3, -1, 2, 3, 2
1503616001891,-1, -21, 7, 2, 1, -2, 2, -2
1503616001914,-2, -9, -6, -2, -4, -2, -2, -1
1503616001936,2, 12, -1, -2, 0, -1, 1, -1
1503616001951,-4, -10, 3, -1, 1, 2, -1, 0
1503616001974,-1, 5, -6, -1, 0, 0, -7, -7
1503616001996,-1, 0, 0, 1, -1, -4, -4, -1
1503616002014,-2, 2, -4, 0, -2, -2, 0, 0
1503616002034,-1, -4, -4, -1, -2, -3, 1, -1
1503616002056,2, 8, 2, -1, -3, -1, 7, 1
1503616002071,0, 3, 3, 0, -1, 0, -4, -3
1503616002100,0, -4, -4, -2, 2, -1, 0, 1
1503616002117,2, 8, -4, -1, 1, 0, 0, 4
1503616002131,-3, -10, -6, -3, -1, 3, 13, -1
1503616002153,-2, 5, 6, -2, -2, -2, -3, -2
1503616002176,1, -4, -1, 0, -1, -1, -4, 3
1503616002191,-2, 8, -2, 0, -2, 0, -5, -3
1503616002213,1, -3, -6, -2, -1, -1, 1, 0
1503616002221,-2, -7, -5, -1, -2, -1, 3, -1
1503616002246,0, -11, -3, -6, -2, 0, -1, -2
1503616002265,-2, 1, 4, 1, 1, 0, 0, -5
1503616002277,0, -18, 0, 0, -2, 1, -1, -5
1503616002296,0, 8, 4, -1, -1, -2, -4, -3
1503616002312,-2, -8, -5, -1, 0, -2, -1, -3
1503616002326,-3, 2, -3, -2, -1, -2, 2, 0
1503616002348,-2, -5, -4, 0, -2, 0, -1, -3
1503616002370,-2, -19, -2, 0, -1, 0, 5, -3
1503616002385,-3, -9, -6, -1, -1, -3, 2, -3
1503616002394,-3, 1, -5, -2, 0, -2, -1, 1
1503616002417,-1, 5, 2, 0, 0, 2, 1, 1
1503616002431,3, 9, 2, 1, 0, -1, -16, -5
1503616002454,0, -14, 0, 0, 1, 0, 3, 6
1503616002482,1, 23, 10, 0, -1, -2, 1, -2
1503616002491,-4, -10, -5, 0, -2, -1, 0, -3
1503616002514,0, -5, -3, 1, 0, 0, 3, 1
1503616002536,-1, 3, 4, 2, 1, -1, -2, -1
1503616002551,-1, 4, 0, -1, 1, 0, 6, 2
1503616002579,-3, 8, -1, 0, -2, -3, 0, 0
1503616002596,0, -22, -3, -3, -1, -1, -2, -2
1503616002612,1, -8, -7, -2, -2, -1, 12, 1
1503616002634,-2, 0, -5, -2, -4, 0, 1, -3
1503616002656,2, 3, -4, 1, 2, -1, -4, 0
1503616002679,-2, -4, 2, 0, -2, 0, -5, 0
1503616002694,-2, 0, -1, 0, -1, -2, -4, 0
1503616002716,0, 3, 0, -1, 1, -3, -2, -4
1503616002739,-4, 0, -6, -2, 0, -1, -1, -1
1503616002754,-1, -7, 4, 2, -1, 0, -7, -3
1503616002776,0, -6, -4, -2, -3, -1, -2, 1
1503616002799,-3, -3, -1, -1, 0, 0, 1, -2
1503616002814,-1, 4, 0, -2, 0, 0, -1, 0
1503616002837,0, -2, 3, 1, 0, -1, 1, 0
1503616002859,0, -27, -4, 0, 1, 0, 2, 3
1503616002874,-1, 0, 5, 1, -2, 0, -2, -1
1503616002896,1, 18, 0, -2, -1, -1, 0, -2
1503616002919,3, 22, 7, 2, 1, 3, 13, 0
1503616002933,0, -1, -3, -1, -4, -2, -2, 5
1503616002956,-1, 2, -6, -3, -2, 0, -2, -1
1503616002981,-3, -2, -3, 1, -1, 0, 3, -4
1503616002986,-1, 1, 0, -1, -2, -4, 3, -3
1503616003008,6, -4, -8, -3, -2, 0, -1, 1
1503616003032,-1, -1, 6, 0, -1, -1, 0, 1
1503616003048,-4, 2, 1, 1, 0, 0, 2, -5
1503616003069,-2, -10, -5, 0, -1, -1, -3, 0
1503616003092,5, 2, 0, -1, 1, -2, 0, -1
1503616003106,-2, -4, -2, -2, -2, -1, 1, 1
1503616003129,-2, 4, 4, 1, -1, -2, -1, 1
1503616003152,-1, 0, -1, -1, 1, 2, 2, 1
1503616003166,-4, -1, -1, 0, 0, -1, -2, 0
1503616003189,-2, -2, -3, -3, -2, -1, -3, -2
1503616003212,0, 2, -2, -1, -3, 1, 0, -3
1503616003227,0, -6, 2, 1, 1, -1, -14, -6
1503616003250,-2, 6, -4, 0, -2, -1, 3, 3
1503616003272,1, -1, 2, 1, -1, -1, 0, 1
1503616003287,2, -3, -1, -3, 0, -2, 1, -3
1503616003309,-3, -1, -3, -1, -1, -1, -1, -1
1503616003332,0, -3, 0, -2, 0, 0, -16, -1
1503616003347,-4, 11, -1, -2, 1, 1, 7, 0
1503616003369,-4, -5, 4, 0, -3, 0, -1, 1
1503616003391,1, -6, 2, 1, 0, -1, 2, 0
1503616003407,-1, -5, 1, -1, 0, 0, 2, 0
1503616003430,0, 0, -9, -2, 0, 0, 8, 0
1503616003452,-1, -7, -1, 1, -1, -2, 3, 1
1503616003466,-5, -6, -4, -2, -1, 0, -2, -2
1503616003473,0, -6, -4, -1, -3, -3, 0, 1
1503616003489,-3, 9, 2, -1, -2, -2, -3, -2
1503616003512,1, -5, 5, 0, -1, 1, -4, 0
1503616003527,0, 11, 1, 0, 0, -2, 12, 2
1503616003551,-1, -6, -1, -1, 0, 0, -1, 0
1503616003573,0, -2, -1, -2, -2, 0, 0, -2
1503616003590,0, 3, -3, -2, 1, 0, 1, -1
1503616003602,2, 6, 1, 0, 1, -1, -4, -4
1503616003626,-1, -5, -3, 1, -2, -1, -1, 0
1503616003638,1, -2, 1, 0, 0, -3, -2, -1
1503616003662,-2, 7, -2, -1, -1, 0, 3, 2
1503616003676,-5, 1, 1, -5, -7, -2, -4, -5
1503616003699,-1, -1, 0, 1, 0, -1, -2, 1
1503616003722,27, 12, 7, 2, 1, -1, 0, 2
1503616003736,-7, 2, -3, 0, 3, -1, 1, 2
1503616003759,-1, -4, -2, -5, -2, 0, 3, 0
1503616003781,14, 8, 0, 0, 3, 0, -3, 1
1503616003796,-14, -6, 1, -2, -4, -1, -2, 4
1503616003823,7, -3, -1, 0, 0, 1, -1, -2
1503616003841,-26, -2, 4, 1, 3, 1, -3, -2
1503616003856,-5, -6, -3, -8, -7, -2, -3, -8
1503616003878,9, 0, -2, 5, 10, -2, 2, 2
1503616003901,10, -2, -6, -3, -8, 0, 1, -1
1503616003916,-4, -4, -4, -10, -9, -1, -2, 1
1503616003938,-12, -2, -1, 14, 11, -4, -1, -4
1503616003961,-5, 0, 0, -4, -7, -2, -7, -9
1503616003976,14, 5, 6, 3, -4, -1, 1, 1
1503616003998,-10, -3, -5, -4, -1, -1, -1, -3
1503616004023,0, 0, -1, -6, 7, 0, -4, 4
1503616004036,-1, 0, 4, 11, -6, 1, 2, -1
1503616004059,0, -2, 2, 3, 8, 1, 0, 1
1503616004081,-10, 1, 0, 4, -1, 1, 0, 0
1503616004112,15, 5, -1, -3, -2, -1, 3, 3
1503616004127,-19, -3, -5, -12, -4, -2, -9, -9
1503616004149,-9, -1, -1, 7, 4, 1, 7, 1
1503616004172,20, 1, -2, -4, 1, -2, 4, 8
1503616004190,-20, -3, -4, -4, -3, 0, -6, -2
1503616004209,-12, 1, 0, 0, -5, 1, 2, 2
1503616004232,22, 3, -1, 3, -5, -2, 10, 1
1503616004246,7, -2, -1, -2, -3, 0, 2, -4
1503616004269,-7, -2, -3, -3, 0, -1, 1, 0
1503616004276,-28, -6, -8, -5, -3, -2, 0, 7
1503616004299,1, 2, -2, -4, -8, -3, -8, -1
1503616004325,-16, -6, 0, 5, 3, -2, 6, 4
1503616004336,4, 2, -5, -10, -8, 0, 5, 0
1503616004359,-1, -1, 1, 18, 17, 2, -3, -3
1503616004381,16, 1, 3, 13, 15, 1, -3, 3
1503616004396,15, -1, -6, -16, -8, 1, 3, 9
1503616004412,26, 5, 2, 1, 0, -2, -5, 8
1503616004427,22, 4, -3, -8, -9, -2, 2, 6
1503616004450,-10, -2, 0, 8, -3, 0, -4, -10
1503616004472,5, -4, -5, -10, -5, 2, -1, -5
1503616004487,-6, -4, -1, -1, 1, 2, 0, 2
1503616004509,-5, 2, 5, -5, -6, 0, 0, -3
1503616004532,-25, -4, -2, 15, 8, -1, -5, -4
1503616004554,1, -3, -4, 5, 3, -3, 1, 5
1503616004570,-9, 1, 0, 5, 20, 1, -20, -13
1503616004595,-22, -6, -4, -7, -9, -4, -2, -5
1503616004614,-14, -2, 3, -1, -2, -3, -15, -9
1503616004633,-26, -2, -1, -9, -1, -2, -4, -12
1503616004652,14, 5, 1, 8, 2, -3, -11, 0
1503616004673,15, 1, -2, -16, -16, 3, 6, -3
1503616004689,15, 1, 0, -2, -3, -3, 8, -1
1503616004704,-9, -2, -1, -6, -7, -1, -8, -14
1503616004719,-22, -7, 1, 2, 3, -2, -1, 4
1503616004741,-16, 4, -2, -3, 0, 1, 4, -3
1503616004773,16, 1, 0, 6, 11, 2, 4, -3
1503616004778,-25, -6, -2, -7, -6, -3, -6, -4
1503616004803,12, -2, 4, 3, 2, 0, 0, 3
1503616004823,1, -1, -2, -8, -11, 0, -2, -1
1503616004838,-18, -8, -6, -8, -11, 3, 9, 5
1503616004853,-14, -2, -4, -7, -13, -6, 5, -2
1503616004869,-6, 0, -2, -1, 1, 2, 2, 13
1503616004891,-26, -7, -3, -3, 1, -2, 0, -9
1503616004914,5, 0, -3, 2, 0, 3, -2, 4
1503616004938,-15, 0, -2, -2, 5, -2, -1, 3
1503616004951,1, -2, 1, -1, -3, -1, -3, 4
1503616004973,45, 3, -1, -3, 0, 1, 3, -2
1503616004989,2, 9, -2, 2, 2, 0, -2, 1
1503616005011,19, -3, -3, -3, 1, -1, -2, 4
1503616005034,-4, -2, -3, 1, -1, -2, -3, -6
1503616005049,-36, -1, -2, 0, 2, 0, 5, -11
1503616005071,-1, -5, 2, 2, 0, -1, -6, -2
1503616005096,27, -4, -3, -3, -4, -2, 4, -7
1503616005109,-31, -3, -3, 0, 0, 0, -4, -4
1503616005134,14, 14, 4, 0, 1, -1, 0, 5
1503616005154,10, -2, 4, 3, -3, 1, -5, 9
1503616005171,17, -5, -5, -1, -2, -2, -9, -12
1503616005193,27, 5, 1, -3, -2, -3, -6, 5
1503616005213,-13, -7, 4, 0, 0, -1, 0, -16
1503616005236,40, -10, -3, -2, -1, 1, 7, 21
1503616005252,-35, 34, 6, 0, 0, -1, 0, -2
1503616005275,-20, -12, 0, -2, -3, -2, 1, 4
1503616005289,-11, -5, -4, 0, -1, -2, -11, 1
1503616005312,17, -6, -7, -3, 0, 2, 3, -10
1503616005340,9, -13, -6, -3, -2, -3, 0, 2
1503616005349,-35, -5, 1, 1, 0, 1, 2, 14
1503616005372,-30, 13, 5, 1, 3, 1, 2, -8
1503616005379,23, 0, -1, -2, 1, 0, 2, 9
1503616005401,47, 5, 2, 2, 2, -3, -12, -5
1503616005423,-51, -3, 0, 1, -1, 1, 8, 8
1503616005445,8, 2, -5, 0, -1, -1, -9, 2
1503616005461,-8, 5, 5, 1, 0, -2, -2, -14
1503616005483,-54, 0, 6, 0, 0, 1, -1, -7
1503616005505,-12, -8, -6, -1, -2, 1, -5, 8
1503616005513,5, 9, -5, -2, -4, -1, 8, -20
1503616005536,36, 12, 3, 0, -1, 1, -1, -2
1503616005551,33, 0, 5, 1, 1, -1, 0, 3
1503616005573,-34, 0, 1, -1, 0, -1, -3, -12
1503616005598,7, -9, -5, -2, -1, -3, 10, 13
1503616005611,23, -1, 3, -1, -3, -2, -3, 7
1503616005633,-2, -22, -8, -4, -4, -3, -6, -28
1503616005656,-54, 6, -6, -4, -2, -2, -19, -9
1503616005671,-15, -13, -8, -4, 0, -2, 3, -17
1503616005693,55, 8, 6, 2, 1, -1, 3, 24
1503616005716,3, 4, -4, -1, -4, -2, 9, 28
1503616005733,2, 14, 5, -2, -1, 1, 11, 17
1503616005753,3, -8, -2, -3, -1, 1, -3, 6
1503616005776,-1, -3, 2, 2, 1, 0, 0, 3
1503616005791,-13, -4, -4, 0, -2, -1, 0, -1
1503616005813,-2, 25, 20, 4, 3, 2, -8, -2
1503616005838,-21, -10, -1, 1, -1, -2, -10, -19
1503616005851,2, -9, 3, -1, -2, 0, 2, -21
1503616005873,21, 3, -3, 1, -2, -1, 2, -6
1503616005896,10, -18, -10, -4, 0, -1, -9, 1
1503616005911,-19, -11, -4, -3, -2, -4, -21, -10
1503616005935,-30, -14, -1, -2, -3, -5, -9, -28
1503616005956,26, 9, 0, 0, 1, 0, 3, 4
1503616005971,43, -10, -6, -1, 1, 0, -3, 5
1503616005993,-6, 8, 1, -1, -1, -3, -3, -15
1503616006016,26, -3, 2, 0, -2, -1, -7, 10
1503616006023,-11, -4, -1, -3, -3, -4, -9, 13
1503616006045,16, -1, -4, -2, -2, 0, 7, 9
1503616006061,20, 5, 11, 2, 3, 2, 22, 13
1503616006083,-3, -10, -4, -3, 0, 0, 11, 14
1503616006112,1, -3, -3, -3, -6, 0, -4, -7
1503616006121,16, 12, 8, 1, 0, 0, 1, 6
1503616006145,27, 12, 3, 0, 3, -2, -21, -30
1503616006165,-7, -14, -10, -5, 0, -1, 4, 16
1503616006188,-76, -9, -7, -1, -1, -2, -3, -19
1503616006210,-8, -5, -4, -4, -3, -1, -3, -1
1503616006225,4, -5, -2, -2, -2, -3, -24, -11
1503616006242,-38, 13, -1, -1, -2, -2, -9, -6
1503616006263,14, -5, 0, 2, 2, 0, 9, 11
1503616006285,-7, 13, 2, 2, 2, 0, 2, 3
1503616006303,5, -2, -2, -1, -1, 1, 0, -1
1503616006323,-16, 4, 8, 0, 1, -4, -5, -7
1503616006346,5, -12, -9, -3, -2, -1, 4, -1
1503616006361,18, 5, 5, 7, 8, 6, 7, 1
1503616006384,16, -8, -2, -3, -4, 1, 6, 15
1503616006406,22, -4, -2, -2, 0, 0, -5, 2
1503616006428,-24, 10, 3, 0, -1, -1, 1, -5
1503616006443,19, -3, 3, 3, 2, 0, 3, 6
1503616006466,11, -1, 3, 0, -2, -3, -11, 0
1503616006488,14, 4, -9, -1, -1, -2, 12, 2
1503616006506,-26, -17, -4, -2, -1, -1, 1, -8
1503616006526,16, -1, 1, -2, 0, -1, -9, -6
1503616006548,14, 1, -1, -3, -3, -4, 4, 4
1503616006564,-8, 1, -3, -1, -1, 0, 3, 1
1503616006587,8, 2, -1, 0, 0, 2, -2, 4
1503616006608,23, 3, 6, -1, -5, -3, -9, -7
1503616006623,-26, -7, -5, -6, -2, -1, 0, -22
1503616006646,22, 3, 4, 1, 1, -2, 1, 6
1503616006668,2, 2, -1, -1, 0, 1, 0, 9
1503616006683,-15, -14, -6, -3, -1, 0, 3, 2
1503616006706,-3, 0, -3, 0, 0, 1, 1, 1
1503616006728,-27, -11, -3, -2, -1, -2, -10, 6
1503616006744,12, 3, 3, 3, 2, -2, 3, -2
1503616006766,-18, -9, -8, -5, -1, -1, -5, -2
1503616006788,-13, -2, -2, -3, -3, -1, 13, 12
1503616006803,22, -3, 2, 4, 3, 1, -3, -1
1503616006819,-10, 17, 4, -3, -1, 2, 1, 3
1503616006834,-7, -5, -3, -2, -1, -4, -4, -8
1503616006856,-7, 8, 0, 1, 2, -1, 1, 8
1503616006878,-57, -20, -4, -3, -3, -2, 4, 2
1503616006886,-9, -7, -1, 0, 0, -2, -10, -3
1503616006908,-9, 9, 4, 0, -1, -2, -3, -5
1503616006923,-20, 3, 5, 6, 4, 1, 8, 9
1503616006946,-24, -7, 0, -2, -2, -1, -12, -8
1503616006968,18, 3, -2, -3, -3, -3, -3, -1
1503616006984,-3, 6, 2, 2, 1, -2, -10, -8
1503616007006,-16, -3, -2, -2, -2, -1, -1, 1
1503616007028,4, 13, 2, 1, 1, 0, 4, -9
1503616007043,3, -3, -4, -1, 0, 0, 5, 0
1503616007066,-19, -8, -5, -6, -1, 3, 11, 3
1503616007088,5, -2, -1, 1, 2, 1, 11, 2
1503616007103,3, -3, 1, -3, -2, -1, -7, -4
1503616007126,-2, -2, -4, 0, -2, 0, -11, -6
1503616007157,6, -14, -6, -4, -3, -2, 7, 5
1503616007163,-7, 2, -2, -1, 0, 2, 13, 2
1503616007179,-3, -6, -4, -1, 0, -1, 1, 3
1503616007194,-9, -5, 1, -1, -2, 1, 1, 0
1503616007216,-7, 16, 4, 1, -2, -1, -3, 4
1503616007238,5, 13, 11, 0, 3, 2, 7, 0
1503616007254,9, -10, -4, -1, -2, -3, -4, 10
1503616007277,1, -4, -4, 2, 1, 2, 2, 7
1503616007298,2, 3, 3, -4, -1, 1, 7, -4
1503616007306,-5, -6, 0, 0, 1, -1, 5, -4
1503616007328,-11, 8, 1, 0, 0, -1, -12, -14
1503616007350,-6, 13, -1, -4, -3, -1, 6, 11
1503616007366,2, -5, 2, -1, 0, -2, -2, -1
1503616007388,10, -8, -4, -2, -1, 2, 9, -1
1503616007412,1, -8, -2, -2, -3, -2, -1, 7
1503616007426,-14, -2, 3, 0, 1, -1, -1, -4
1503616007448,2, -1, -1, 1, 0, -1, 2, -1
1503616007470,7, 0, 4, -1, -2, -1, -3, 1
1503616007493,6, -3, -4, -2, 0, -2, -15, -11
1503616007507,-7, -1, 8, 1, -1, -2, 0, -1
1503616007538,-3, -7, -5, -1, -1, 0, 7, 3
1503616007546,-4, 4, -1, 0, 1, -1, 1, 1
1503616007567,1, 0, -1, 1, 0, 0, 2, 1
1503616007590,-1, -4, -9, -1, -4, -2, 3, 10
1503616007606,0, 2, 1, 1, 1, -3, -8, -1
1503616007628,3, -11, -6, 0, -1, 1, 1, 0
1503616007650,2, -17, -6, -3, -3, 0, 6, 2
1503616007666,3, 3, 1, -3, 0, 0, 3, 4
1503616007688,-4, 13, 2, -2, 0, -1, -4, -2
1503616007710,-3, 0, -3, 0, -1, -1, -10, -9
1503616007726,1, -2, -6, 1, 2, 0, 3, -1
1503616007750,2, 5, 5, 0, -2, 1, -2, -5
1503616007771,-2, -5, 0, -3, -2, -3, 0, 2
1503616007786,0, 11, -1, -4, -3, 0, -1, -3
1503616007808,1, -2, -1, 0, -1, -2, -5, -8
1503616007830,2, -3, -5, -4, -6, -1, -1, -1
1503616007849,2, 1, 6, 1, -1, -1, -2, -1
1503616007868,-4, -8, -3, 0, 1, 0, 1, 0
1503616007890,-4, 5, -1, 0, -2, 0, -1, -3
1503616007906,0, -3, 3, -1, 1, -2, 3, 10
1503616007927,1, -10, -2, -2, 1, -3, -2, -2
1503616007950,-1, -17, -5, 1, -1, -1, 1, 1
1503616007966,-3, 8, -3, -1, 0, -2, -4, -2
1503616007988,2, -9, -4, -1, -4, 0, -5, -3
1503616008010,-1, 21, 6, 0, 0, 1, -3, -1
1503616008026,0, -1, 0, 0, 1, -1, -6, -5
1503616008050,2, 4, -2, -1, 0, 2, 6, 2
1503616008070,0, -7, -1, -3, 1, 0, -1, -7
1503616008086,-2, 7, 2, -2, 0, 2, 4, 3
1503616008108,3, 4, 5, 1, 1, 0, 2, -1
1503616008130,-3, 2, -6, -2, -2, -2, 0, -3
1503616008161,-2, -13, 6, 0, 0, 0, -2, -1
1503616008169,1, 3, -1, -1, -1, -2, 0, -1
1503616008192,-1, 4, -4, -1, 0, -2, 0, 1
1503616008214,-3, -12, -2, -3, -3, 0, 5, 6
1503616008229,0, -8, -1, 0, 0, 0, -3, 3
1503616008251,-1, 13, 21, 3, 0, -1, -1, 0
1503616008274,-1, 3, 0, 1, 1, 0, -1, -1
1503616008289,2, -1, -3, -2, -1, -1, -6, -5
1503616008311,1, 5, -9, 0, -2, -3, -2, -1
1503616008334,-1, -13, -5, -2, -2, -1, -7, -10
1503616008350,-1, -8, -8, -3, -1, 0, 3, -3
1503616008371,0, 7, 2, -1, 0, 1, 9, 7
1503616008394,5, 28, 1, -1, -1, -1, -6, -2
1503616008409,0, 7, 2, -1, -3, -1, -3, -3
1503616008431,-3, -12, -5, -2, 1, -2, 5, 6
1503616008454,-1, -7, -5, -2, -2, -2, -5, -1
1503616008469,-1, -11, -4, -1, -1, -1, -3, 0
1503616008491,-3, -3, -4, -1, 0, 0, -1, -2
1503616008514,-2, -5, -1, 1, -1, -1, 4, 0
1503616008529,-2, 5, 2, -1, -2, -1, -2, -3
1503616008554,-3, -10, -2, -1, -3, -1, -3, -2
1503616008574,2, 2, 2, 1, 0, -2, -1, 0
1503616008589,0, 12, 2, 0, 1, 1, -3, 0
1503616008611,-2, -5, -2, -2, -2, 1, -2, -2
1503616008634,0, -1, 7, 2, 2, 1, 2, -1
1503616008649,0, 0, -1, 0, -1, -4, -2, 6
1503616008671,1, -11, 1, -1, -1, -1, -2, -3
1503616008694,0, -7, -9, -2, -1, -3, 9, -2
1503616008709,-1, 12, 4, 1, 0, -1, -5, -2
1503616008731,-1, -4, -3, -2, 0, -1, -7, -3
1503616008755,1, 11, 10, 2, 0, 0, 5, 1
1503616008776,-2, -7, -4, -1, -2, -1, -1, -3
1503616008791,-2, -4, -1, -1, 0, 1, -5, -2
1503616008814,-2, -9, -4, -2, -1, -1, -1, -1
1503616008836,2, 3, 0, -1, 0, 0, 0, -3
1503616008851,-1, -6, -5, -1, 0, -1, -2, 0
1503616008874,0, 4, -3, 0, -1, 1, 18, 7
1503616008889,0, 13, 1, -2, -2, 0, -5, -3
1503616008911,-2, -8, -4, -3, -3, -3, -3, 8
1503616008934,0, -7, -1, 1, -1, -1, -2, -3
1503616008949,-4, -1, -1, 1, 3, -2, -8, -4
1503616008971,-2, -4, -5, -2, -1, -1, -6, -4
1503616008994,-2, -7, -2, -1, 0, 1, 2, -6
1503616009009,2, 3, -2, -1, 0, -1, -3, -2
1503616009032,-3, -24, -3, -1, -1, 0, 2, 1
1503616009039,2, 9, 8, 2, -1, -1, 2, 6
1503616009062,-1, -4, 2, 0, 0, -2, 0, 2
1503616009084,-1, 5, 2, 0, -3, -1, 1, 2
1503616009099,-1, -16, -8, -3, 1, 1, 1, -3
1503616009123,0, 7, -5, -1, -1, -2, 0, 0
1503616009144,-1, 2, 2, 0, -1, 0, 1, -3
1503616009159,0, -1, -1, -2, 1, 0, 10, 0
1503616009182,2, -1, 2, 0, -1, 1, -3, -2
1503616009204,3, 0, -6, -3, -1, -1, -1, -2
1503616009226,-1, -5, 1, 0, -3, -3, -5, -3
1503616009241,-3, 6, 3, 0, 1, -2, -3, -1
1503616009266,-2, 0, 0, 1, 0, 0, -1, -2
1503616009286,-3, 2, -5, -1, -1, -1, -1, 0
1503616009301,0, -2, 2, -1, 0, 0, 0, -1
1503616009325,0, 6, -1, -2, -2, -1, -6, 2
1503616009346,-2, 0, -1, -3, -1, 0, -1, -2
1503616009361,-1, 0, 2, -1, 1, 0, -5, -2
1503616009376,0, -12, -8, -2, -2, -1, -2, 1
1503616009392,-1, 5, -2, -1, -2, -1, 1, 1
1503616009414,-3, -8, -4, -3, 1, 0, 0, 3
1503616009436,-1, 5, 1, 0, -1, -2, -11, 0
1503616009451,-1, 3, -5, 1, -2, 1, 6, 1
1503616009474,4, -17, -4, -3, -2, -1, -1, 0
1503616009496,-2, -2, 0, -1, 0, 0, -3, 3
1503616009511,0, -1, -5, -1, -2, -2, -4, -8
1503616009534,-9, 1, 0, -1, 1, 1, 1, -2
1503616009556,0, -8, -1, 1, 2, -2, 3, -1
1503616009571,-2, 9, -4, -1, -3, 0, -1, 1
1503616009594,1, -10, -1, -1, 2, -3, 2, -1
1503616009616,1, -2, 0, -2, -1, -1, -1, -2
1503616009631,0, 7, -1, -4, -1, -1, -2, -1
1503616009654,3, -4, -3, -1, -2, 0, 3, 6
1503616009676,2, -1, -2, -1, -1, -2, 0, -2
1503616009691,-19, 13, 3, 1, -1, -1, -1, 0
1503616009714,9, 9, 2, 0, 0, 0, -2, -2
1503616009736,3, -4, -2, 1, -3, 0, 4, -2
1503616009751,5, 3, -4, -1, 0, -2, -15, -4
1503616009774,-4, -3, 1, -1, 0, -1, 3, -2
1503616009796,-6, -1, 2, -1, -2, -1, -2, -2
1503616009811,-9, -12, 0, 0, -3, 0, -1, -2
1503616009834,4, -2, -4, 0, -3, -2, 9, -4
1503616009856,5, 18, 0, -1, -1, -1, 2, 2
1503616009871,1, -5, -1, 1, -1, -2, -3, 7
1503616009896,8, 3, 1, -2, 1, -1, -3, 1
1503616009916,-4, -2, 0, -3, 0, 2, -4, -3
1503616009932,9, -3, -1, 1, 0, -2, -2, -2
1503616009954,2, -8, -2, -2, -2, -1, -11, 0
1503616009976,-3, -7, -7, -3, -2, -1, 8, 3
1503616009991,1, 1, 6, 1, 1, -2, -2, -5
1503616010014,-6, 5, -4, -3, 0, -1, -3, 0
1503616010037,-3, -4, 1, -1, -4, -3, 11, 2
1503616010059,2, -3, 0, -1, 2, 2, 6, 2
1503616010074,7, 40, 19, 3, -1, -1, -3, -1
1503616010097,-3, -8, -4, -1, -2, 0, -5, -4
1503616010118,0, 1, 0, 2, 3, -1, -1, 0
1503616010134,2, -4, -4, 2, 3, 0, 6, 1
1503616010148,12, 2, 1, 2, 0, 0, 0, 6
1503616010164,-1, -1, -7, 0, -2, -2, -2, -4
1503616010186,-8, -16, -3, -5, -4, 0, -4, -7
1503616010208,-4, 0, -5, 0, -1, -1, -13, 2
1503616010223,7, -2, -7, -3, -3, -2, 0, 2
1503616010246,-1, 10, -2, -3, -2, -2, 0, -3
1503616010268,-4, 2, 5, 1, 2, 0, 1, -8
1503616010283,11, -22, -5, 2, 2, 1, -1, 0
1503616010306,-9, 0, 0, -2, -1, -4, -3, -3
1503616010327,2, 8, 7, -2, 2, 3, 0, -2
1503616010343,-3, 31, 5, 1, -2, -2, -4, -12
1503616010366,-1, -8, -12, 0, -1, -2, 7, 2
1503616010388,-8, 0, -4, -3, -1, 0, -3, 0
1503616010403,3, 31, 29, 6, 4, 2, 2, 7
1503616010426,0, -2, 14, 2, -3, 0, 5, -2
1503616010448,0, -14, -10, -2, -2, -1, 2, 1
1503616010463,-2, -1, -3, 2, 1, -1, 1, 1
1503616010486,0, -11, -15, -5, -1, -1, -4, 0
1503616010508,0, -3, -9, -5, -4, -2, -9, 0
1503616010523,1, -8, -3, -2, 0, 1, -2, 3
1503616010546,1, 0, -2, -2, -2, -2, 3, -7
1503616010569,4, -5, -3, -5, -4, -4, -2, 1
1503616010583,-2, -1, 2, 3, -3, -2, 3, -1
1503616010606,-4, -16, 1, 4, -2, 0, 2, 0
1503616010628,-13, -3, -1, 1, 2, -1, -2, -1
1503616010643,-26, -8, -11, -4, -1, 0, 0, 0
1503616010668,10, 2, -3, 0, 3, 1, 2, 8
1503616010688,2, 4, 3, 18, 11, 2, -1, -1
1503616010703,6, 6, 7, -9, -8, -2, -3, -3
1503616010726,-1, 10, 7, 0, 5, -1, -1, -4
1503616010748,3, -5, -3, -3, -1, -1, 3, 1
1503616010763,-1, -1, -2, -2, -2, 1, -4, 0
1503616010786,3, 1, -1, 1, 0, -4, -4, -4
1503616010808,5, 6, -8, -3, -1, -2, -1, 0
1503616010823,-1, -1, -2, 0, 2, -2, -3, 7
1503616010846,7, -5, -6, -7, -4, 0, 0, -2
1503616010869,-1, 20, 11, -1, -3, -3, -1, -3
1503616010883,9, -6, -4, -3, -4, 0, -1, -2
1503616010906,-2, -7, -10, -5, -5, -1, -11, -16
1503616010928,1, -1, -1, -2, -2, -2, 6, 1
1503616010944,-4, -8, -1, -9, -12, -2, 2, 2
1503616010966,0, 3, -1, 0, 0, 2, 0, 4
1503616010988,-5, -6, 0, 2, 2, -1, -5, -3
1503616011003,0, 0, -3, 2, 3, 2, 0, -3
1503616011025,-6, -4, 3, -1, 0, -4, -4, -4
1503616011048,1, -18, -2, 3, 2, 1, -3, -3
1503616011070,-1, 2, -1, 0, 1, 0, 2, 3
1503616011085,4, 10, -1, 0, -3, -3, -3, -2
1503616011101,-27, -9, -12, -3, 2, -1, -2, -6
1503616011116,-10, -3, -4, 0, 1, 0, 1, 4
1503616011138,27, 2, 2, 2, -4, -4, 3, 3
1503616011160,2, -5, -2, -6, -1, 0, -12, 3
1503616011170,7, -1, -1, 1, 1, 1, 2, 7
1503616011190,23, 3, -3, -2, -2, -4, -13, -6
1503616011206,2, -2, -1, -1, -2, -2, 0, 2
1503616011228,-17, -10, -7, -3, -2, -1, 6, -4
1503616011250,-4, 0, -2, 0, 4, -2, -15, 9
1503616011266,-7, -2, 1, -1, 2, -1, 2, -2
1503616011288,-12, -2, -2, 0, -2, 3, 12, 0
1503616011310,6, 4, -1, -3, -2, -2, 0, -1
1503616011332,2, 6, 8, 0, -1, -1, 0, 0
1503616011348,-1, -2, -1, 1, -2, -2, -4, -8
1503616011372,0, -2, 3, -3, -6, 0, 19, 0
1503616011386,-1, -2, -3, 0, -1, -1, -3, -3
1503616011410,8, -5, -8, -2, 1, 0, -4, 1
1503616011430,-3, -5, 22, 4, -2, -2, -2, -1
1503616011446,-4, -11, -10, -2, -1, -1, -4, 8
1503616011461,16, 5, 4, 1, 1, 1, 1, 7
1503616011477,-8, 3, -3, -2, 0, 0, 2, -1
1503616011498,5, -2, 1, 0, -1, -3, -2, 1
1503616011521,7, -3, -5, -2, 1, 2, 11, 14
1503616011536,3, 7, 8, -2, -1, -3, -3, -4
1503616011558,0, 11, -6, -1, 0, -2, 1, -2
1503616011581,1, -6, -4, -2, 0, 0, -8, -3
1503616011596,-1, -6, -7, -1, -2, 0, 4, 3
1503616011618,6, -4, -2, -2, -1, -1, 9, 3
1503616011641,2, -6, -6, -2, -2, 1, -2, -5
1503616011656,2, 28, 11, 0, -1, 1, -7, 5
1503616011678,-3, -11, -2, 0, -2, -1, -3, -5
1503616011701,4, 0, 0, -4, -6, -2, 0, 2
1503616011717,0, -2, 3, -2, 0, -2, -3, 1
