1503945515120,0, -4, -2, -2, -1, 0, -2, -2
1503945515137,8, 3, -2, 1, -4, 2, 0, -9
1503945515151,9, 1, -1, -1, -5, 5, -2, 2
1503945515161,-4, -2, 0, -2, -2, -4, -4, -5
1503945515181,0, -1, -1, -1, 1, 1, -2, 3
1503945515200,4, 1, 2, 0, 0, 0, 0, -2
1503945515219,-9, -6, -3, -1, -2, 0, 0, -7
1503945515248,-6, -2, -2, -4, -2, -2, -1, -5
1503945515256,5, 2, -3, -3, -1, -2, -2, -4
1503945515279,2, 1, -1, 1, -4, -2, -1, 0
1503945515301,5, 0, 0, 0, -3, 1, 0, 9
1503945515316,12, 3, -1, -1, 1, 1, -1, 0
1503945515338,-5, -1, 2, 4, 1, -1, 0, 0
1503945515360,-4, -2, -4, -3, 0, -3, 1, 1
1503945515376,2, 3, 3, 0, 1, 1, 3, 9
1503945515400,-1, 1, -1, -3, -2, -3, -2, -3
1503945515421,0, 0, -1, 1, 0, -2, 0, 0
1503945515436,-4, -5, 0, 0, 0, -1, -1, -6
1503945515459,6, -3, -3, -2, -2, 1, -4, -1
1503945515480,-2, -1, 1, 1, 1, 1, 1, -3
1503945515497,-3, 0, -2, 1, 0, -2, 0, -1
1503945515518,-8, -3, -1, 0, 1, -1, -2, 0
1503945515526,0, 1, -2, 1, -1, -2, -1, 1
1503945515548,-4, -2, 0, -2, 1, 2, -4, -1
1503945515572,-4, -3, -1, 1, 0, -2, -1, 5
1503945515587,-5, -2, -1, -4, -2, -1, 0, 1
1503945515609,1, -1, -1, 1, -1, -2, 1, 4
1503945515631,2, 1, 0, -2, 1, 7, 1, -11
1503945515646,-3, 0, -1, -1, -4, 1, -2, -3
1503945515661,-2, 1, -1, 2, 0, -1, 1, 2
1503945515676,-5, -1, -1, -4, -3, -2, -4, -11
1503945515698,1, -2, -3, -2, -2, -15, -3, -3
1503945515721,-7, -3, -1, 0, 0, 1, 1, 1
1503945515744,2, 2, -2, -3, -3, 3, -1, 0
1503945515758,-3, -1, 0, 2, 1, -2, -1, 3
1503945515781,0, 1, 1, 4, 2, -1, -1, -1
1503945515803,-5, 1, 2, -5, 0, 3, 2, -2
1503945515818,1, -4, 0, 0, -3, -1, 2, 5
1503945515841,1, 1, -1, 1, 3, 6, 2, 7
1503945515863,3, 2, 1, 1, 0, 3, -2, 1
1503945515878,-5, 0, -3, 1, -1, -1, -2, -1
1503945515893,-4, -4, -1, -1, 0, 1, -4, -7
1503945515909,-7, 1, 0, -3, 2, 3, -2, 0
1503945515931,1, -1, -2, 1, -1, -1, -1, 2
1503945515953,8, 2, -2, -4, 0, -1, 0, 6
1503945515976,1, 0, -1, -3, 0, -1, -3, 1
1503945515991,-3, -3, 2, -2, -2, -1, -1, -1
1503945516013,3, 2, -1, -3, -1, 0, 0, 2
1503945516028,3, -2, 0, -2, 0, 6, -2, -2
1503945516043,-7, -2, 0, -2, 2, -1, -1, 2
1503945516058,-2, 2, 1, 1, 1, 0, -1, -5
1503945516081,4, 1, -2, -1, 1, 0, -3, 1
1503945516105,-4, -2, -3, -3, -1, 1, -1, -11
1503945516118,-4, 0, 1, 1, -3, -2, -1, 2
1503945516141,3, -1, -1, 1, 1, -1, -2, -5
1503945516163,5, 2, -2, -3, -2, -2, -4, 2
1503945516180,4, 1, 0, -1, -3, 0, 1, 0
1503945516201,9, 0, 0, 1, -1, -1, -2, 6
1503945516223,-6, 1, -1, -1, -1, -2, 0, -4
1503945516240,-1, -1, -4, 1, -1, 0, -1, -2
1503945516261,20, 5, -2, -4, -2, -1, -3, 3
1503945516283,-8, -1, -1, -1, 0, -2, 0, 6
1503945516298,-10, -2, 1, 1, -2, -15, -3, -3
1503945516321,-1, 0, -1, -1, -1, 2, 3, 3
1503945516343,-11, -3, 1, -2, 0, 3, -1, -5
1503945516358,1, -4, -1, -1, 0, 2, -1, -9
1503945516382,-3, 1, 0, -1, 0, -6, 3, 6
1503945516403,-4, 0, 1, 0, 0, 4, 0, 1
1503945516418,-8, -1, 0, -4, -1, 1, -2, -9
1503945516434,-2, 1, -1, 0, -3, -3, -2, -1
1503945516449,3, -1, 1, -2, -4, -3, -4, 4
1503945516473,-1, 0, 0, 1, 1, 2, -3, -2
1503945516493,-1, -2, -1, 0, -2, -3, -2, -12
1503945516509,1, 0, -3, -3, -1, -4, 0, 4
1503945516531,-4, -4, -4, -2, 1, 6, -3, -7
1503945516554,-1, -3, -1, 0, 3, 2, 2, 6
1503945516569,8, 1, 0, -1, -1, 0, 0, 5
1503945516591,-7, -2, -2, -3, -2, -4, 1, -1
1503945516613,5, 0, 2, -1, 0, -12, -9, -4
1503945516636,1, 1, 0, 2, 1, 1, 3, 6
1503945516651,-2, 0, -2, -3, 0, 2, 0, -3
1503945516675,0, 0, -1, 1, -2, -12, -6, -2
1503945516696,0, -3, 0, -1, 0, -3, 7, -2
1503945516712,-8, -1, -1, 1, -3, 6, -1, 3
1503945516733,0, 0, -1, 0, 1, 1, 1, -7
1503945516756,-6, 1, 1, -3, 0, 7, 1, -8
1503945516771,3, 0, -4, -3, -1, -9, 4, 0
1503945516793,4, 0, -1, 0, -1, 3, -2, 2
1503945516816,-1, 0, 0, 0, -2, 0, -4, -2
1503945516831,-4, -1, 0, -2, -2, -3, -2, 2
1503945516853,3, 0, -1, 0, -1, 1, 0, -5
1503945516877,-6, -2, -2, 0, 1, -1, 0, -3
1503945516891,-1, 2, -1, -2, -2, 3, -1, 7
1503945516914,0, 0, 0, 0, 0, -2, 0, 5
1503945516936,4, 1, -2, 0, -2, -7, 5, 5
1503945516952,-5, -5, 1, -1, 1, 0, -1, -2
1503945516973,-5, -1, -1, 0, -3, 2, -2, 4
1503945516996,5, -1, -1, 0, 1, -1, -1, -2
1503945517003,1, 1, -2, -2, -2, -2, 0, 3
1503945517025,4, 0, 0, 2, 1, 2, -1, 3
1503945517041,1, 1, 3, 1, 1, 2, 2, 2
1503945517063,2, 1, -1, -1, -4, -2, 1, 0
1503945517086,1, 0, -3, -1, 0, -1, -1, -6
1503945517101,-4, -1, -1, -2, -1, -1, -1, 1
1503945517123,19, 1, -5, -1, -2, 1, -3, -5
1503945517146,-2, -1, 1, 0, 0, 0, 1, 9
1503945517161,0, -1, 0, -1, 0, 2, 1, 2
1503945517183,-1, -1, 1, -2, -3, -15, -3, -1
1503945517205,-7, -1, -2, -1, 1, 3, 1, 1
1503945517221,-5, 0, 0, 0, -1, 1, 1, -2
1503945517242,-2, -1, 1, 2, 1, 0, 2, 6
1503945517252,-2, -2, -2, -3, 0, -1, -2, -5
1503945517273,-3, 0, -1, -1, -4, -3, -2, -9
1503945517296,2, -1, 2, -1, 2, 3, 0, 1
1503945517312,16, 3, -2, -3, -2, -1, 0, 4
1503945517333,5, -1, -5, -4, -3, -4, -2, -10
1503945517356,-4, 0, 0, -1, 2, 3, 0, 5
1503945517371,-6, -2, 0, 0, -1, -7, 5, 0
1503945517393,-2, 0, 0, 0, 1, -1, 0, 8
1503945517417,5, -3, -1, 0, -1, 2, 1, 11
1503945517423,-1, -1, -2, -3, 0, 1, -3, -13
1503945517451,-5, -2, 0, -2, -2, -18, -4, -2
1503945517462,-4, -2, 3, 1, 0, 4, 2, 13
1503945517485,-4, -2, -1, 1, 0, 1, 0, -4
1503945517505,0, -2, 1, -2, -1, -1, 0, 5
1503945517522,13, 2, -3, -1, 0, 1, -3, -1
1503945517544,4, -2, -3, 0, -1, 0, -2, -3
1503945517565,-5, -2, -1, 0, 0, -1, 0, -4
1503945517588,-4, -3, -3, 0, 0, -3, 1, 3
1503945517603,-5, 1, 0, -1, 0, 2, -4, -3
1503945517625,14, 4, 1, -2, 0, -2, 1, -2
1503945517649,-6, 1, 0, 1, -3, 3, 0, 3
1503945517663,1, -1, 0, -4, -1, 0, 0, 5
1503945517686,-8, -5, -2, 1, 2, 4, -4, -2
1503945517709,3, 2, 1, 0, -5, 0, -1, -2
1503945517724,-6, -3, 0, -1, -2, -3, -3, -2
1503945517749,3, 2, -3, 1, 1, -1, -1, -7
1503945517769,-1, 0, -1, -1, -2, 2, 0, 3
1503945517784,0, 1, -1, 1, -2, 0, 0, -5
1503945517799,-13, -5, -1, -3, -1, -2, -1, -2
1503945517816,0, 1, -3, -2, -1, 0, -1, 1
1503945517836,4, 0, -1, 5, 0, 1, 3, 8
1503945517859,-6, -4, -1, -3, -1, -3, -4, -3
1503945517873,-6, -2, 1, -1, -1, -5, -6, -19
1503945517896,4, 0, -1, 2, -1, 2, 1, 8
1503945517918,4, 0, -2, -2, -1, 3, -1, 2
1503945517933,5, 1, 0, 0, 0, 2, -1, 0
1503945517956,0, 1, 1, 0, -3, -3, 0, -4
1503945517979,-8, -4, -3, 1, -1, -2, 0, 4
1503945517994,-9, 0, -3, -1, -2, -8, -5, -4
1503945518018,2, 0, -1, -1, 1, 0, 2, 4
1503945518038,15, 5, -1, 0, -1, 0, 0, 2
1503945518054,-3, -2, -1, 0, -3, -2, 2, 4
1503945518076,5, 2, -2, -1, -3, -12, -4, -1
1503945518099,-7, -3, 0, -2, 1, 4, 2, -1
1503945518114,-4, -4, -2, -2, 0, 1, -3, -5
1503945518136,-2, 1, -1, -3, -1, 0, 1, 3
1503945518158,-6, -3, -2, 1, 1, 4, -4, -3
1503945518173,-3, -1, -3, -1, -3, -11, -4, -5
1503945518196,3, 2, 0, 0, -1, 4, 0, -1
1503945518219,10, 1, -1, 0, 0, 1, 3, -2
1503945518233,-11, -1, 0, 0, 0, 0, -4, 4
1503945518256,0, -3, 0, 1, 1, -6, 3, -5
1503945518278,-3, -3, -1, -3, 0, 2, -2, -3
1503945518294,1, 0, -4, 0, -3, -2, -1, -8
1503945518316,1, 0, 1, -1, 0, 0, 2, 8
1503945518338,2, 1, 0, 1, 2, -4, 4, 4
1503945518354,7, 5, -1, -1, 1, 1, -1, 3
1503945518376,-12, -2, 3, 1, -2, 1, 0, -11
1503945518398,-1, -2, 0, 0, -2, -2, -1, 4
1503945518413,-1, -2, 0, 2, 3, 2, 1, 0
1503945518429,0, -2, 1, 2, -1, -3, 0, 0
1503945518451,4, 0, 0, -3, -3, -4, -2, 0
1503945518467,-2, 2, -4, 2, -2, -1, 0, -8
1503945518489,-1, -1, -1, 1, -1, -1, 1, 3
1503945518511,-3, -1, 2, -1, 0, -4, 8, -1
1503945518527,4, -3, -1, 2, 0, 1, -7, -6
1503945518549,0, 0, 1, -3, 0, -3, -1, 5
1503945518571,0, 2, 0, 0, 0, 1, -1, 2
1503945518594,3, -3, -4, -1, -1, -1, -3, -8
1503945518609,-3, 0, -3, -2, -4, 1, -4, -3
1503945518631,2, 0, -1, 0, 1, -2, -1, 5
1503945518646,-6, 2, 1, -1, -1, 0, 1, 5
1503945518669,-7, -1, -2, -1, -3, -1, -4, -14
1503945518692,2, 1, -1, -1, -1, 1, 0, 3
1503945518706,5, 0, -1, -3, -2, -1, -1, 1
1503945518729,1, 0, 0, -3, 1, -1, 0, 2
1503945518751,-12, -4, -1, -1, 0, 0, 0, -8
1503945518766,6, 0, -1, 0, -5, -11, 3, 2
1503945518790,-1, -2, -1, 0, 0, 3, -2, -2
1503945518811,1, 1, -2, 0, -1, 1, 0, 4
1503945518827,-4, -1, 0, 0, 0, 1, -3, -2
1503945518849,0, -1, -3, -4, -1, 0, -2, 2
1503945518871,-5, -3, -1, 1, -1, -3, -2, 1
1503945518886,6, -1, -2, 1, 2, 2, -3, -2
1503945518909,0, -2, 1, 0, 2, -1, 1, 4
1503945518932,-10, -6, 0, -1, 0, 0, 1, 2
1503945518946,-4, 0, 0, 1, -2, 1, -2, -8
1503945518969,2, 0, -2, -1, -3, -5, -1, 1
1503945518991,-7, -1, -1, -3, -4, -2, -2, -1
1503945519006,2, 0, -2, -1, 2, 1, -1, -1
1503945519029,-4, -1, -2, 2, -1, -2, 3, -1
1503945519053,-5, -1, -1, -1, 0, 2, -1, -3
1503945519067,4, 2, 2, 0, 2, 1, 2, 3
1503945519089,8, 0, -2, -3, -3, -1, -2, -1
1503945519097,2, -4, -2, -4, -3, 6, 0, -2
1503945519118,-2, -1, 0, 0, -1, -1, 2, 1
1503945519141,8, 1, 2, 1, 0, -7, -1, 4
1503945519156,-10, -3, 0, -1, 0, 1, 0, 0
1503945519178,1, -1, -3, -1, -1, -4, -4, -2
1503945519201,-1, 0, -3, 2, -1, 0, -3, -7
1503945519216,-3, -1, 3, -5, -2, -8, 6, 0
1503945519238,15, 3, -3, 2, -3, 2, -4, -3
1503945519261,-8, 1, 0, 0, 1, 1, -2, -4
1503945519276,0, 3, -4, -4, -3, -14, -1, 2
1503945519298,0, -3, 1, 1, 1, 3, -3, 2
1503945519321,-11, -3, 0, 2, 0, 3, -2, -1
1503945519340,-2, -1, 0, 0, -1, 3, 2, 2
1503945519360,0, -4, -1, -4, -2, 3, 0, -3
1503945519381,-1, -2, -2, 1, -2, 0, 0, -3
1503945519396,2, 2, -2, -2, 1, -1, -3, -3
1503945519418,0, -1, -3, 0, 1, 4, 0, 8
1503945519441,5, 1, 3, -2, 1, 2, -2, -1
1503945519463,-4, -4, 2, -2, -4, -3, -1, 1
1503945519478,-2, -3, 1, -2, 2, 1, 0, -6
1503945519501,0, -2, -5, 1, -4, 5, 2, -1
1503945519523,0, -2, -1, 0, -3, -8, 0, -2
1503945519538,-8, 0, -2, -2, -2, -3, -2, -5
1503945519562,0, 2, -1, -1, 0, -2, -2, -4
1503945519583,-5, -4, -3, -2, -2, -1, -5, -2
1503945519598,1, -1, 0, -1, 1, -17, 0, 1
1503945519621,7, 5, -3, 2, -2, 3, -3, -5
1503945519643,4, 1, -2, -4, -4, 2, 0, -4
1503945519658,-1, 0, 0, 1, 0, 1, 0, -1
1503945519681,-7, -3, 0, 1, 1, -2, 2, -7
1503945519704,-7, -2, -1, 0, -1, 5, -2, 6
1503945519718,-11, -3, 1, -2, 0, 0, 0, 3
1503945519741,0, -2, -1, 2, 0, 0, -1, 2
1503945519766,-2, -1, -2, -2, 2, -1, -3, -7
1503945519779,8, 2, -2, 1, -6, 0, 2, 3
1503945519802,2, -2, -1, -2, -1, 1, 2, 3
1503945519823,6, 1, -1, -1, 0, -1, -4, 1
1503945519854,4, 2, -2, -1, -1, 3, 4, 2
1503945519869,-9, -1, 1, 0, 1, -4, -1, -3
1503945519891,-2, 2, 0, 3, 0, -1, 1, 4
1503945519914,-6, -3, 1, 0, -2, -3, -1, 2
1503945519931,-12, -7, -3, -2, 2, 0, -2, -6
1503945519951,-4, 0, 0, -2, -2, -10, -2, -1
1503945519973,-1, -3, -1, 0, 1, 6, 1, -2
1503945519989,4, 2, -2, -3, -1, -1, 0, 4
1503945520012,7, 1, -2, -1, -2, -2, 0, 5
1503945520035,-4, -2, -3, 2, 0, 0, 1, 0
1503945520049,4, 0, 1, -2, -1, 1, 1, 2
1503945520075,-1, 2, -2, -2, -2, -1, -2, -2
1503945520094,-4, -3, -4, -1, -1, 3, -3, -12
1503945520109,4, 1, -1, 1, -2, -1, -2, -2
1503945520135,2, 2, 6, -1, 3, 4, 8, 5
1503945520153,12, 7, -2, 3, 0, -3, -3, 2
1503945520169,-1, -1, -1, -4, -2, -2, 0, 2
1503945520192,2, -3, 0, -1, 0, -1, -2, -5
1503945520213,-6, -3, -5, 4, 17, 7, 1, 0
1503945520229,-4, -1, -4, -8, -7, -4, -4, 3
1503945520251,-2, -4, -3, -3, -5, -3, 2, -1
1503945520276,-4, -4, -6, -16, -26, -11, -5, -5
1503945520289,-1, -1, 1, -11, -23, 4, -2, -1
1503945520311,0, -6, -24, -6, -11, -4, -4, -3
1503945520336,2, 6, 22, 10, 26, -1, -5, -4
1503945520349,-5, 1, 26, 0, 9, 1, -7, -19
1503945520374,27, 15, 15, 14, 13, 3, 17, 9
1503945520393,-29, -15, -24, 0, -22, -7, -2, 1
1503945520416,16, 4, -15, 4, 14, 1, -8, 5
1503945520431,8, -5, -3, -11, -18, -7, -3, -2
1503945520453,-8, -1, -4, 8, 5, 3, 13, 0
1503945520476,-6, -4, 4, -1, 29, 21, 21, -2
1503945520491,6, 23, 14, -7, -28, -20, -24, 3
1503945520513,2, 12, 7, 5, 2, -1, -17, 13
1503945520536,-29, -21, 2, 10, -4, 11, -7, -14
1503945520551,15, 12, -41, -2, 29, 15, 43, -9
1503945520574,-47, -15, -6, 4, 10, -3, 24, -10
1503945520596,60, -101, -109, -33, -31, -31, -34, 7
1503945520611,42, -58, -73, -45, -30, -31, -29, -28
1503945520635,3, 93, 127, 77, 57, 16, 14, -30
1503945520656,-103, -67, -41, -12, -21, 9, -9, 34
1503945520679,-109, 107, 1, -20, -67, 10, 76, 4
1503945520693,28, -119, -74, -19, -57, -53, -74, -10
1503945520716,113, -56, -49, -40, -50, -37, -37, 74
1503945520731,-12, -90, -35, -28, -68, -14, 18, -44
1503945520753,-6, 106, 106, 34, 2, -67, 3, 127
1503945520776,19, -19, 42, -9, -60, 4, 121, -33
1503945520791,-90, -26, -19, 77, 127, -47, 40, -8
1503945520813,9, -57, -9, 6, -31, 21, -110, 23
1503945520837,1, 15, 7, -46, -50, 3, -58, -12
1503945520851,-11, 18, 28, 37, 120, 16, 93, -58
1503945520874,-51, 13, -2, -35, 27, 12, -14, -13
1503945520896,50, 50, 11, -7, -8, 18, -16, -22
1503945520911,5, -4, 10, 36, 30, 19, 2, 1
1503945520934,-61, 20, 6, -4, -12, 5, 0, -2
1503945520956,110, -21, -2, -2, -21, 16, -21, 3
1503945520973,40, 54, -9, -7, -6, -5, -5, 3
1503945520995,36, -52, -20, -18, -42, -21, -7, 19
1503945521016,26, 23, -3, 20, 17, 15, 2, 0
1503945521032,0, 32, 13, -1, -25, -1, 2, 2
1503945521053,-34, -39, -12, -3, 28, 11, -5, -8
1503945521076,-41, 4, 9, -2, -1, 2, -4, -18
1503945521091,4, 8, 10, 6, -4, 2, -5, 1
1503945521114,36, 17, 6, -7, -12, 13, -19, -47
1503945521136,22, 2, -4, 5, -5, -2, -13, 14
1503945521151,0, -44, -35, -8, 0, -3, 20, 2
1503945521166,-69, -6, -5, -6, 6, 6, 13, 0
1503945521182,58, 26, 8, 5, 7, -9, -25, 7
1503945521203,-30, 72, 37, 44, 72, 37, 15, 9
1503945521225,127, 2, -15, -16, -44, -10, -13, 5
1503945521242,-32, 57, 38, 9, 43, 12, -68, -45
1503945521263,-62, 55, 61, -28, -128, -47, 59, 26
1503945521285,14, -15, -28, -15, 16, 86, 49, 106
1503945521294,-1, -8, -26, -14, -3, -38, 22, -58
1503945521316,-58, 23, -8, 1, 41, -39, -3, 48
1503945521341,-74, 26, 9, 1, 58, -65, -25, -64
1503945521354,59, 66, 8, -3, -33, 116, -3, 2
1503945521376,87, 54, 29, -11, -128, 11, 63, -38
1503945521399,-41, -14, 2, 14, -20, -104, 30, 30
1503945521414,-128, -38, -20, -24, -80, 30, 30, 49
1503945521436,-44, -85, -80, -5, -20, -5, -46, -54
1503945521458,79, 84, 68, 51, 51, 74, -24, 46
1503945521475,-2, -3, -22, -28, 2, -127, -4, 13
1503945521495,13, 2, 20, 25, 37, -74, 33, 68
1503945521518,34, 16, -27, -4, 0, -53, -66, 70
1503945521534,14, 9, -8, 10, -16, 49, 118, 4
1503945521556,86, 107, 79, 16, -20, -6, 19, 89
1503945521579,19, -112, -101, -61, 24, 79, 4, -112
1503945521594,-94, -33, -22, -11, -36, -84, 44, -25
1503945521616,-97, 26, 2, -6, 83, 73, -37, -87
1503945521638,85, -64, -23, -15, -10, 99, 29, -49
1503945521654,33, -33, -80, -6, -40, -128, -104, 16
1503945521679,-111, -19, -16, 16, 111, -128, -14, 121
1503945521698,-43, -53, 16, 30, 58, -50, 34, 40
1503945521714,37, 47, -47, -46, -105, -4, -79, -89
1503945521736,39, 39, 29, 62, 111, 24, -66, 127
1503945521759,-95, -9, 16, 22, 85, 127, 127, 52
1503945521774,15, -29, 6, -27, -73, -37, 19, -113
1503945521796,127, -3, 31, -7, -42, -2, -2, -128
1503945521819,-79, 13, 22, 36, 33, 51, -17, -49
1503945521834,-53, -7, -7, -16, -30, -7, -21, -86
1503945521856,-128, -26, -2, 1, -23, -16, -20, 79
1503945521878,-62, 6, 2, -4, -37, 12, 1, 99
1503945521894,93, 10, 4, -11, -22, -10, -4, 1
1503945521916,101, 15, 1, -9, -5, 4, -24, 22
1503945521939,0, -7, -4, 1, -1, -5, 20, 30
1503945521954,0, 3, -1, -3, -10, -5, -1, 11
1503945521976,21, -1, -2, -2, -9, -15, -39, 8
1503945521998,-5, 2, 8, -1, 5, -5, -8, -7
1503945522014,-5, 2, 1, -3, -3, 3, 1, -11
1503945522036,-1, 0, -2, -7, 1, -1, 5, 11
1503945522058,-6, -2, -5, -6, -22, -2, 6, -8
1503945522074,0, 0, 0, 2, 4, -4, 2, -2
1503945522096,-14, -2, 7, 5, 33, 15, -7, -11
1503945522119,-1, -1, -6, -1, 7, 9, -1, -14
1503945522134,-7, 12, 6, 2, -3, -10, 0, 9
1503945522156,6, 0, -1, -5, 3, -15, 0, 17
1503945522180,11, -1, 3, 5, -5, 9, -7, -9
1503945522194,1, -7, -7, 19, 50, 6, -2, -5
1503945522217,-4, -3, -1, -5, -17, 0, 6, 7
1503945522238,-2, 6, 3, -4, -33, -10, -1, -2
1503945522261,-5, -7, -10, -9, -25, -9, 16, -6
1503945522276,-46, -6, -10, -5, -19, -12, -16, -6
1503945522298,-1, -1, 4, 2, 17, 13, 19, 26
1503945522321,-14, -7, 2, -6, -12, -4, -9, -39
1503945522336,12, -1, 2, 20, 87, -2, 1, 12
1503945522358,5, -1, 2, -10, -16, -8, 0, 2
1503945522382,4, -4, -7, -6, -3, -1, 7, -2
1503945522396,10, -3, -8, -1, -15, -1, -4, -16
1503945522421,17, 7, -1, -11, -27, -7, -13, 24
1503945522441,-21, -4, 8, -1, -11, -3, -7, -63
1503945522456,30, 6, -10, -21, -55, -12, -14, -50
1503945522478,-5, -1, 2, -2, 15, -9, -2, 29
1503945522487,-4, 0, -2, -4, -15, -5, 1, 8
1503945522508,-12, -11, -12, 0, 5, -17, -6, 12
1503945522530,3, 4, 2, -5, -25, -13, -4, -5
1503945522546,-2, -5, 4, -20, -61, -65, -4, -20
1503945522567,40, 6, -7, -2, -3, -5, -5, -30
1503945522590,-4, 4, 12, 8, 5, 7, -7, -2
1503945522606,51, 4, -8, 1, 16, 3, 3, 3
1503945522627,19, 0, 12, 7, 17, 0, -1, 47
1503945522651,-25, -5, -7, -4, 15, 1, 9, -3
1503945522665,16, 7, -11, -4, -2, 2, -6, 38
1503945522688,-2, 21, -2, -4, -12, 1, -2, -3
1503945522710,-33, -12, -8, -3, 1, 5, -1, -12
1503945522726,6, 0, 3, 1, 3, -4, 11, -12
1503945522751,6, 4, -5, 1, -2, -12, -77, -28
1503945522771,-26, -13, 7, 25, 74, 24, 23, -6
1503945522794,-10, -12, -5, -10, -20, 20, 23, 23
1503945522809,-17, -10, -2, -2, -11, 0, 2, -24
1503945522831,1, -9, -6, 0, -10, -15, 1, -1
1503945522854,-10, 8, 14, 1, 0, -2, 8, 9
1503945522869,-4, 6, 7, -1, -7, -5, 2, -7
1503945522892,1, 0, -1, -2, -6, -6, -1, 1
1503945522914,-3, 7, 3, -2, -17, 2, -1, 0
1503945522929,4, -3, -3, -4, -3, -1, 4, -4
1503945522953,-3, -9, -7, -1, 1, -2, 2, 6
1503945522974,1, 0, 0, 4, 12, -2, 0, 3
1503945522989,-3, -7, -8, -5, -3, 0, 1, 3
1503945523011,3, 2, -5, -10, -3, 1, 1, 0
1503945523034,-15, -3, 3, 10, 1, 0, -1, -4
1503945523049,-8, -1, 0, -4, 11, -2, -9, -10
1503945523071,2, 1, 0, 0, -12, -3, 1, 14
1503945523095,-3, -3, -2, -6, -6, -41, 0, -1
1503945523109,-25, -7, -3, -1, 1, 11, -4, -33
1503945523131,52, 19, -3, -2, -4, 2, -2, 5
1503945523154,-20, -9, 6, 1, 5, 4, -1, 7
1503945523169,0, -4, 0, 1, 2, 3, 6, 7
1503945523191,-6, 0, -1, -4, 4, 9, -2, -6
1503945523214,-3, 0, 4, 69, -23, 4, -1, 14
1503945523229,-11, -3, 3, -30, 16, 5, 0, -19
1503945523252,5, -1, -8, -11, 7, -2, 4, 0
1503945523274,-1, 0, 0, -3, -8, 5, -3, 4
1503945523289,3, 13, 3, -3, 4, -7, -4, 8
1503945523312,-6, 4, 4, -13, -4, -3, 2, -2
1503945523334,2, -13, -1, -6, -3, -2, 1, 8
1503945523349,26, 5, -8, -6, 17, 16, -2, 2
1503945523371,-13, -10, 2, -4, -19, 1, 0, 16
1503945523394,2, -15, -32, -12, -5, -11, -5, -13
1503945523416,10, -1, -5, 0, 0, -1, 4, -6
1503945523431,-4, 1, -11, -16, -40, -6, 0, 2
1503945523455,-4, 8, 19, 4, -2, -4, -7, -5
1503945523469,-14, -3, 6, 2, -2, -1, -2, -5
1503945523491,9, 6, 6, -3, 23, 6, 1, 5
1503945523514,-40, -6, 2, 2, 5, -1, 2, -12
1503945523529,33, 13, 5, 12, 8, -4, 3, 29
1503945523551,5, -20, -8, -3, 1, 3, 2, 3
1503945523574,-27, 10, -10, -2, -4, 1, -1, -19
1503945523590,16, 2, -3, -3, -15, -3, -4, -10
1503945523611,-15, -12, -10, -3, 9, -4, -2, -16
1503945523634,22, 3, 3, -12, -32, -4, 0, 5
1503945523649,-22, 9, 8, 2, 4, -3, -1, 11
1503945523678,-10, -4, 3, 8, 7, -1, -7, -9
1503945523695,-14, -8, -3, 2, 4, 8, -3, -30
1503945523716,29, 4, -2, 3, 18, 9, 5, 51
1503945523731,-44, -15, -7, -7, -3, -10, -5, -34
1503945523754,-6, 0, -3, 0, -18, -27, -2, -11
1503945523769,27, 2, 3, 9, 12, 0, -2, 1
1503945523792,11, -7, -6, -3, 6, 2, 0, 0
1503945523814,-53, 2, 3, 3, 1, -26, -7, -4
1503945523829,25, 3, 1, -2, 7, 11, 5, 39
1503945523851,10, 2, 2, -1, 1, 2, -8, -25
1503945523860,17, -6, 0, 8, 10, 8, -5, -7
1503945523880,-14, -5, -3, 2, -6, -4, -3, -15
1503945523903,22, -4, -9, -3, 0, -4, -1, 19
1503945523918,-9, -6, -1, 0, -10, -5, -5, -8
1503945523940,-5, -1, -5, -5, 6, -9, 2, 4
1503945523963,3, -1, 0, -5, 18, 2, 10, 9
1503945523978,1, 1, -1, -4, -5, -1, -6, 17
1503945524001,13, -11, -10, -4, 2, 7, 6, 4
1503945524023,33, 0, 3, 1, -3, 19, -9, 41
1503945524038,-12, -1, -2, -8, 5, -7, -8, -5
1503945524061,-4, 4, -5, -2, 3, -1, -2, -27
1503945524083,-11, 4, 6, 5, -9, -3, 0, -1
1503945524106,28, 3, -2, 9, 5, -4, 7, -8
1503945524121,-13, -5, 7, -7, -8, -2, 1, 6
1503945524143,-13, -2, -6, -4, -1, -3, -3, 2
1503945524166,5, 1, 0, 9, 4, 1, 2, -15
1503945524181,9, -3, -4, -10, -7, -1, -1, 3
1503945524203,7, -6, -15, -11, -2, 1, 1, 9
1503945524211,-9, -9, -13, -8, -1, -3, -1, -8
1503945524234,18, -11, -9, -2, -5, -6, -4, -14
1503945524256,-21, 3, 6, 0, 0, 20, 1, -16
1503945524272,4, 7, 6, 4, 1, 1, 1, 8
1503945524296,-29, -1, -30, -7, -5, -11, -1, -14
1503945524316,6, -3, 10, 1, 29, -19, 6, 12
1503945524331,1, -11, -5, -4, -7, 1, 0, 4
1503945524366,23, 0, 6, 6, 10, -4, 0, 1
1503945524383,8, 4, 8, 11, 21, 11, 7, 3
1503945524406,-11, -4, -5, -2, 0, -1, -5, 4
1503945524421,9, -6, -8, -1, -4, -1, 0, 17
1503945524443,13, 4, 2, 7, 77, 4, 1, 5
1503945524466,-11, -16, -12, -14, -35, -2, -4, -1
1503945524480,-27, -1, 0, -2, -24, -8, -3, -9
1503945524503,8, 0, -1, -4, -11, -5, 2, 1
1503945524525,-23, -13, -20, -12, -6, 1, -1, -23
1503945524540,29, 17, -4, -1, -16, 0, 6, 9
1503945524563,20, -6, -3, -2, 1, -1, -7, 15
1503945524586,-17, -5, 10, 5, -5, 9, 6, 4
1503945524601,15, 3, 3, 0, 27, 0, -1, -11
1503945524623,-11, -4, -8, -6, -17, -8, -6, -13
1503945524652,-3, -9, 1, -2, -14, 1, 2, -8
1503945524660,-18, 2, 12, 0, 2, 0, 2, 15
1503945524676,-52, 5, 0, -7, -1, 14, -9, -34
1503945524699,19, -1, -7, -4, -2, 1, -6, 11
1503945524713,-53, -6, -6, 2, -4, -8, 6, 5
1503945524736,8, 0, 4, 0, -5, -6, 0, -5
1503945524751,-4, -8, -4, 2, -2, -5, -9, 9
1503945524774,51, 6, 16, 1, 0, 0, 25, 88
1503945524796,-29, -1, -8, -5, 1, -3, 8, -12
1503945524811,6, -12, -8, 1, -4, 0, -6, -26
1503945524826,-13, -17, -8, -1, -1, 4, -13, -18
1503945524841,1, 2, -4, -3, -3, -1, 3, 25
1503945524863,-14, 13, -9, -8, -4, -2, 0, 8
1503945524885,-22, -25, -3, 0, -2, -6, -1, -13
1503945524901,21, 16, 13, 13, 19, 28, 1, -19
1503945524923,16, -4, -8, -2, -4, 5, 2, 0
1503945524933,-2, 4, -6, -2, 1, 4, 1, -8
1503945524960,19, 3, 3, -3, 2, -5, 0, 4
1503945524962,6, 1, -14, -11, -5, -13, 2, 18
1503945524983,4, -16, -9, -3, -24, -7, -5, -4
1503945525006,6, 9, 5, 4, 18, -1, 7, -13
1503945525028,18, -20, -15, 4, -7, -8, -4, 16
1503945525043,44, -5, -12, -14, -17, -6, -12, 7
1503945525067,31, -3, -5, -15, -4, 0, 4, 9
1503945525088,-25, -4, -5, 6, 19, 2, 5, 1
1503945525105,-7, 15, -3, 3, -8, -3, -7, -6
1503945525125,-6, 2, 3, 2, 6, 0, -8, -11
1503945525134,-70, -27, -7, -6, -2, -7, 9, -17
1503945525156,19, -42, -6, -2, -14, -2, -9, -11
1503945525178,8, -4, 1, -6, 12, 6, 8, 10
1503945525194,-20, 4, -6, -10, -17, -2, -2, 3
1503945525216,28, 9, 5, 3, 6, 0, -1, -5
1503945525239,27, 15, -5, -9, -14, -6, -7, -10
1503945525254,21, 13, 8, 2, -10, -10, 2, -6
1503945525277,-3, 14, 10, 4, -26, -8, -9, -11
1503945525298,-19, -3, -7, -14, -4, -4, 7, 12
1503945525314,38, -18, 3, -2, 6, 4, 4, -20
1503945525336,-4, 4, -14, 0, -1, -1, -6, 4
1503945525359,14, 4, 6, 3, 0, 5, 13, 14
1503945525381,-8, -8, -7, -3, 0, -3, -4, -2
1503945525396,-15, 16, 10, -3, -2, -2, -1, 6
1503945525418,12, 8, 0, 1, 2, 2, -2, 7
1503945525434,-12, 6, -7, 3, 17, -2, -1, -6
1503945525456,0, -6, -10, -4, -11, 2, -1, 11
1503945525478,45, 17, 7, 1, 2, -1, 6, 28
1503945525494,-51, -10, -3, -1, -3, 3, -3, -2
1503945525522,-18, 1, -6, -7, -5, -7, -1, -2
1503945525538,-12, -13, 10, 5, 0, 7, -1, -12
1503945525553,-12, -3, -9, -2, 1, -3, 2, 14
1503945525576,10, 3, 5, -1, -10, 4, -1, -12
1503945525598,17, -9, -7, 2, 2, -7, -5, -16
1503945525614,-48, 1, -5, -6, -2, 4, 12, 25
1503945525638,-57, -19, -16, -7, -24, -7, -10, -62
1503945525658,42, 6, 1, 8, 11, 13, 11, 18
1503945525674,12, -14, -5, -9, -10, -4, -10, -27
1503945525696,14, 13, 4, 3, 3, -5, -2, 3
1503945525719,4, 6, -11, -5, 9, 1, -6, -42
1503945525734,5, 4, 2, 1, 5, 2, 3, 29
1503945525756,15, -1, 1, -4, -9, -2, -7, -28
1503945525778,6, 3, 11, 3, 4, -2, 7, 55
1503945525794,-30, -11, -5, 4, 1, 0, -1, 58
1503945525816,56, 8, 5, 3, -7, 5, 2, 3
1503945525839,11, 3, -3, 8, 27, 2, 5, 103
1503945525854,-6, -1, 5, -3, -3, 1, -3, -76
1503945525876,41, 13, 2, 0, -4, -9, 2, -3
1503945525898,-17, -3, 3, -3, -7, -9, -16, -5
1503945525921,-19, -3, 2, 3, 0, -5, 1, 5
1503945525936,28, 6, 9, 1, -4, 1, 1, -25
1503945525958,5, 16, 9, 5, 2, -1, 2, -26
1503945525981,-5, -7, -4, 1, 3, -1, -9, -31
1503945525996,-41, -10, -5, -7, -2, -6, 1, 2
1503945526018,-11, -4, 2, -3, 2, 3, 1, 40
1503945526041,7, 1, 20, 3, -4, -5, -2, -56
1503945526056,-3, -5, -8, 0, -2, -3, -3, -14
1503945526078,6, -1, -7, -5, -3, 21, -4, 12
1503945526100,13, 8, 0, -5, 1, 3, 6, 30
1503945526116,23, -5, -13, -7, -5, 3, 4, 26
1503945526138,-20, -8, -12, -6, -6, -12, -8, -4
1503945526160,-11, -3, 1, 3, -2, -6, -6, -93
1503945526179,-2, 23, 29, 10, 9, -1, 3, 98
1503945526198,-47, -13, -7, -4, -6, -4, 6, 30
1503945526220,-11, 1, -3, -1, -1, -2, -4, -125
1503945526237,24, -23, -1, -1, 0, -1, -5, -126
1503945526258,24, -22, -12, 0, -2, -2, -4, 13
1503945526281,-6, -7, -16, -8, -9, -7, 8, 60
1503945526296,9, 9, -5, -1, 0, 5, 1, 34
1503945526318,16, 13, 1, -4, 0, 1, 1, 33
1503945526342,-19, 0, -4, -6, -3, -2, -5, 28
1503945526357,-19, -1, 3, 7, 8, 0, 0, -17
1503945526378,-2, 0, 3, 5, 3, -4, -6, -15
1503945526400,-8, 1, 5, -1, -1, 7, 3, 12
1503945526423,21, -4, -6, -15, -1, 0, 0, 73
1503945526438,-12, -8, -22, -64, -37, -5, 4, 105
1503945526460,24, -10, -2, 9, 6, -1, -3, -128
1503945526477,-18, 15, 5, 9, -29, -9, -5, -85
1503945526498,10, 3, 11, 15, 24, 6, -2, -23
1503945526520,4, 6, 8, 16, -6, 2, 2, 79
1503945526536,-9, -5, 0, 8, 6, -4, -2, 42
1503945526558,-25, 2, 8, 9, -12, 1, 1, -39
1503945526581,26, -6, -15, -3, 5, -3, -1, -61
1503945526596,-8, 3, 9, -3, -5, 0, -2, 15
1503945526618,-6, 0, -12, -8, 7, -3, -2, 32
1503945526640,-9, 2, 4, 3, -1, -3, -1, -9
1503945526656,-36, 1, -11, -3, 6, 3, 3, -3
1503945526679,6, -7, -7, 6, -8, 0, 2, 7
1503945526700,18, 3, 4, -1, 8, -2, -2, -5
1503945526716,-10, -6, 0, -1, 12, -2, -6, -11
1503945526739,-15, -4, -2, 4, -1, 4, -1, -2
1503945526760,9, 4, 1, 4, 3, 0, -1, 1
1503945526776,-18, 1, 2, -5, 28, 7, 2, -8
1503945526798,8, -2, -2, -5, -26, -2, -2, 12
1503945526821,1, 4, 15, 6, -8, -8, -1, 2
1503945526836,12, -7, -11, -17, -37, -6, 2, 12
1503945526858,-5, 4, 4, 8, 30, 2, -4, -23
1503945526881,-16, 0, 1, 6, 14, 0, 1, 0
1503945526903,-4, -8, -6, -1, -12, -4, -3, -4
1503945526918,0, -6, -7, 5, -1, -3, -1, 3
1503945526940,22, 8, 18, 7, 3, 1, 0, 3
1503945526963,-7, -3, -8, -3, 4, 4, -2, 19
1503945526980,1, -4, -4, -2, 13, 0, 4, -2
1503945527000,1, -5, -4, -7, -9, -3, -3, -17
1503945527023,23, 0, -1, -2, 25, -5, -2, 2
1503945527038,-5, 3, -2, 8, 0, -2, 22, 1
1503945527060,-4, 1, 1, -1, -14, 0, -9, -6
1503945527083,-50, 3, -10, -6, -1, -2, -7, -17
1503945527098,-60, -6, 1, -7, -23, 2, -1, -1
1503945527121,23, -5, -3, 1, -10, -2, -1, 12
1503945527143,18, 5, -6, -13, -17, -5, -7, -1
1503945527158,25, -13, -8, -5, 8, -9, -4, 26
1503945527182,-2, 4, 5, 7, -5, -5, -5, -18
1503945527203,16, -3, -3, -2, 3, 12, -1, 3
1503945527218,-11, -4, 8, 12, 10, 4, 6, -6
1503945527240,-7, -6, -5, -4, 5, 6, -1, -3
1503945527263,-4, 3, 3, -4, -17, -1, -3, -21
1503945527278,53, 23, -5, -2, 6, -9, -4, -1
1503945527300,-20, 8, 7, 0, 28, 12, 4, -5
1503945527324,9, -2, 1, -1, -12, -3, -3, -7
1503945527338,-18, 4, -3, -3, 0, -1, -3, 0
1503945527353,7, -8, 7, -5, -5, 5, 1, -3
1503945527361,-20, -5, -3, -1, -2, -5, -3, 8
1503945527383,10, -8, 1, 19, 20, -10, 15, 1
1503945527398,7, -1, -7, -7, -8, 5, -1, -2
1503945527421,-3, -4, -3, -1, -8, -4, -3, 4
1503945527443,18, 0, -3, -8, -17, -6, 0, 7
1503945527459,-20, -10, -11, -19, -6, -2, -8, -6
1503945527480,-9, -10, -1, 0, 3, -8, -20, -18
1503945527503,-12, -6, -1, -2, -7, 1, 6, 13
1503945527519,-10, 22, 21, 12, 4, 2, -1, -2
1503945527540,-27, -14, -7, -3, -10, -10, -2, -10
1503945527563,21, -5, -10, -5, -3, 0, -1, -11
1503945527578,56, -8, 5, 13, 6, -26, -3, 7
1503945527600,12, 1, -9, -12, 20, 18, 3, 19
1503945527623,-29, -3, -4, -1, -4, 4, 4, 17
1503945527638,4, 2, -9, -3, -4, 1, 0, -10
1503945527661,37, 13, 4, 2, 2, -1, -2, -11
1503945527685,6, -23, -10, -5, -6, -1, 2, 17
1503945527698,-9, 13, 2, 7, 1, 5, 1, -47
1503945527721,-28, 9, 30, 13, 6, 4, 2, 19
1503945527743,-15, -17, 4, -8, 2, -2, 1, 7
1503945527751,3, -3, 8, -3, -12, 3, -5, 8
1503945527772,2, -9, -5, -9, -35, -10, -2, 5
1503945527796,-11, -8, 0, 1, -3, -5, -2, 5
1503945527820,6, -8, -2, 1, -8, -1, 4, -1
1503945527834,-7, -1, 1, -3, 27, -4, -1, -14
1503945527859,-8, -16, -1, 3, 13, 6, 4, 9
1503945527887,13, -6, -18, -9, -14, -3, -3, -3
1503945527900,-18, -21, -9, 7, 12, 12, 3, 2
1503945527923,-5, 7, 10, 5, -26, -3, 5, 7
1503945527945,6, 0, 1, -3, 4, -1, -7, -11
1503945527961,-5, -1, -3, 0, -2, 1, -2, 12
1503945527983,-16, -32, -10, 6, 4, 5, 2, -4
1503945528005,4, 11, -9, -8, 24, 1, 0, -4
1503945528021,6, 1, 7, 6, 6, 4, 0, 4
1503945528043,-6, -10, -13, -12, -16, -6, 6, -1
1503945528065,-15, 25, 25, 10, 9, -3, -6, 3
1503945528080,23, 15, 8, 4, 4, -17, -5, 5
1503945528103,-16, -3, -11, -4, 0, 4, 1, -25
1503945528126,-12, 5, 18, 4, 2, -1, -6, 11
1503945528140,-6, -8, -5, -5, -1, -3, -3, 7
1503945528163,32, -1, -10, -3, -3, 3, 3, 3
1503945528185,-17, 0, -5, -6, 0, -3, 2, 2
1503945528200,37, 11, -4, -10, -21, 5, 2, -46
1503945528223,-1, 3, 12, 13, 28, 38, 10, 57
1503945528245,1, 1, -21, -7, 0, 0, -11, -1
1503945528257,6, 0, -1, 3, 8, 11, 13, 17
1503945528276,-17, -5, -3, -3, 0, -2, 2, 6
1503945528291,-15, -2, -19, -12, -2, -40, -21, -81
1503945528306,-13, -5, -5, -2, -3, 0, 2, -6
1503945528321,-9, 4, -3, -3, 4, -1, 2, 3
1503945528343,-18, -9, -1, 2, -2, 0, 7, -1
1503945528366,28, -3, -9, -4, -2, -2, -6, -18
1503945528380,13, 6, 7, 6, -9, -3, -5, -31
1503945528403,2, -12, -7, -5, -3, 2, -3, 10
1503945528426,3, -3, -6, -2, 8, -2, -3, 2
1503945528440,-5, -3, 7, 3, 0, 2, 10, 23
1503945528464,-9, -7, 0, -2, 1, -2, -10, -42
1503945528485,23, -2, -2, -5, -7, 9, 9, 26
1503945528500,6, 8, -1, 14, 29, 11, -6, -6
1503945528524,-15, -4, 0, -3, -5, -12, -2, 14
1503945528545,5, -10, -3, -7, -8, -1, 5, -2
1503945528560,35, 9, -3, -7, 2, 6, 2, 12
1503945528583,-4, 8, 3, -1, 5, -6, -1, 13
1503945528605,-8, -5, -6, -5, -20, 2, 12, 24
1503945528620,-25, 3, 9, 5, 0, -5, -1, -28
1503945528643,-13, -10, -7, -3, -7, -3, -1, -7
1503945528666,-8, -25, -23, -3, -3, -7, -16, -36
1503945528680,-18, 4, 13, 12, 11, 1, 0, 8
1503945528703,-4, 0, 1, -6, -5, -2, -1, -33
1503945528726,1, 5, 8, 2, 0, -3, -2, 35
1503945528740,0, 6, 3, -3, -6, -2, 3, 38
1503945528758,-47, -4, 1, 6, 7, 5, 7, -16
1503945528778,2, -6, -1, -2, 0, 0, -3, -1
1503945528801,22, 24, 21, 6, 0, -6, -6, 3
1503945528830,-9, 13, 19, 2, 1, -5, 3, 28
1503945528845,-24, 6, -2, -1, -11, 3, 12, -15
1503945528868,28, 8, -6, -1, 4, -7, -15, -26
1503945528883,0, -3, -8, -6, -1, -30, 10, 6
1503945528905,18, 7, -12, -3, -3, 1, -1, -27
1503945528928,-8, -21, -1, 2, 5, 13, 3, 47
1503945528943,-4, 5, -5, 0, 3, 5, 1, 6
1503945528965,-10, -19, -11, -8, -1, -5, -11, -92
1503945528988,0, 25, 33, 6, 2, 9, 5, 32
1503945529003,31, -11, -5, -3, 13, -7, -4, 5
1503945529027,-2, 3, -8, 0, -6, -5, -5, -16
1503945529048,-26, 2, -3, -2, -7, -7, -8, -17
1503945529064,20, -10, 0, 0, -3, 2, 6, 31
1503945529085,26, -2, -8, -3, 0, 2, 0, 3
1503945529108,-27, -3, -7, -3, -4, -5, 2, 20
1503945529123,3, -4, 0, 4, -1, 4, 3, 10
1503945529145,-17, 0, 3, -1, 0, 3, -5, -21
1503945529168,-11, -4, -1, -4, -2, 3, 1, 12
1503945529183,18, 1, -6, 1, 0, 1, -4, -21
1503945529205,-37, -10, -5, -3, -2, -5, 1, 24
1503945529229,-8, 6, 7, -1, -2, 3, -3, -8
1503945529243,7, 13, 12, 2, -3, -10, -14, 1
1503945529265,36, -3, -12, -5, -4, -6, -1, -4
1503945529288,30, 5, -10, -6, -6, -2, -4, 2
1503945529303,-7, 13, 16, 6, 2, -16, 1, -6
1503945529325,3, 10, 16, 9, 6, 7, 0, 6
1503945529348,-44, -6, -5, -4, -10, 0, 2, -6
1503945529363,-13, -6, 3, -5, -29, 5, 2, -5
1503945529385,3, -5, -8, -1, 9, -1, 0, -4
1503945529408,-20, -9, -4, 1, -2, 3, -1, -11
1503945529423,2, -6, -3, -5, 5, 2, 3, -1
1503945529445,19, 1, -9, 7, 16, 4, 1, 11
1503945529468,-27, 3, 11, 3, 5, -3, 0, 3
1503945529483,3, 3, -1, -5, 2, 2, -2, -6
1503945529506,9, 2, 1, 2, 0, 3, 0, 4
1503945529528,3, -4, -1, -4, -2, 7, 4, 0
1503945529543,11, 6, 0, -5, -9, -1, 1, 14
1503945529566,-1, 5, 0, 6, 9, -9, -10, -5
1503945529588,-7, -9, -3, -2, -6, 0, 3, -5
1503945529603,-11, -13, -18, -12, -8, 2, 2, 1
1503945529625,-10, 0, -2, 0, 5, -1, 0, 0
1503945529648,10, -1, 3, 3, 1, 3, 3, -13
1503945529665,-6, -1, -1, -3, -5, -2, 5, 24
1503945529685,17, -6, -2, -1, 1, 0, 2, 12
1503945529708,-3, 4, 2, 2, 2, -3, -5, -26
1503945529732,-9, 2, 2, 0, 0, -3, 0, 3
1503945529738,20, 0, -1, 2, -15, 10, 6, 9
1503945529760,4, 11, 18, 12, 6, -1, -3, 3
1503945529770,-2, -3, -8, -3, -2, 3, 3, 16
1503945529790,-5, -2, 1, -1, 23, -5, -7, 1
1503945529800,-15, -2, -6, 4, 5, -1, 2, -11
1503945529820,-4, -4, -1, -5, 6, -4, 2, -8
1503945529836,0, -2, -3, 1, 9, 2, -3, 13
1503945529858,-16, -5, 0, 3, 16, 20, -3, 8
1503945529880,-9, 0, 10, 9, 1, 0, -3, -6
1503945529896,-4, -6, -6, -5, -7, -5, -1, -4
1503945529918,10, 2, 1, 0, -2, -6, -2, 5
1503945529940,28, -3, -5, -4, -11, -5, -1, -26
1503945529956,18, 3, 1, 6, 10, 1, 1, 18
1503945529978,-20, 4, -5, -3, -6, 3, -6, 0
1503945530001,-1, -4, 1, -1, -1, -5, 3, 2
1503945530016,-16, -2, -3, -5, -1, -1, 4, 3
1503945530038,-18, -2, 3, -2, -1, -5, -7, -40
1503945530060,10, -4, -7, -2, -3, -2, -2, 26
1503945530077,12, 0, -1, -2, -2, -1, 4, 9
1503945530098,-5, -4, -2, -3, -2, -5, 9, 47
1503945530120,13, 3, 3, -1, -2, 0, -4, -12
1503945530136,-8, -2, -6, -3, 0, -2, -7, -29
1503945530158,-11, -5, -4, 4, 1, -4, -1, 8
1503945530180,5, 3, 3, -2, 1, 3, 6, 61
1503945530196,9, 2, -2, 0, 0, 0, -2, -24
1503945530219,13, 7, 10, 4, -3, 0, -2, -10
1503945530242,6, -12, -10, -1, -2, 0, 1, 11
1503945530256,-4, 2, -5, -6, -2, -3, -3, 0
1503945530279,-13, 2, 9, -2, -21, -1, -3, -40
1503945530300,-5, -3, -8, -4, 2, -16, -3, -21
1503945530316,-2, 39, 28, 5, 0, 3, -3, -10
1503945530339,-5, -9, -7, -10, -9, 5, -1, 14
1503945530361,-7, -3, -1, 7, -9, 1, -3, -7
1503945530376,-3, -5, -7, -5, 9, -2, 0, -9
1503945530399,1, 0, 6, 6, -8, 3, -3, -8
1503945530420,4, -4, -3, -3, 6, -6, -8, -32
1503945530437,-6, -1, -7, -4, -3, 2, 3, 41
1503945530458,-10, -11, 21, 10, 10, -7, 6, 12
1503945530480,9, 0, -7, -2, 0, 5, 1, 1
1503945530496,4, -1, -8, -4, -9, -5, -2, -3
1503945530518,-3, -11, -11, -10, 15, 6, 5, -13
1503945530541,1, 4, -5, -6, 1, 0, -7, -11
1503945530556,-29, -2, -3, 4, 34, 0, 1, 10
1503945530578,-2, 5, 4, 6, 1, -3, -3, 6
1503945530600,17, -3, 0, 4, 3, 0, -1, -3
1503945530623,3, 11, 14, 4, -9, 3, -2, -4
1503945530639,6, -8, -7, -1, -4, -7, -3, -8
1503945530660,-11, -11, -20, -9, -9, -5, 2, 7
1503945530683,1, -7, -6, 0, 1, -2, 0, 5
1503945530706,3, 9, 10, -1, -9, 2, 1, 0
1503945530720,28, 0, -6, -3, 2, 1, -1, -8
1503945530744,-7, 12, 11, 1, -3, 1, 3, 2
1503945530758,-8, -22, -9, 5, 15, 2, -4, 3
1503945530780,-4, 9, 6, -1, 1, -4, -7, -2
1503945530803,-11, 1, -2, 0, -9, 0, -5, -16
1503945530818,-2, -4, 2, -3, 22, -8, 1, 9
1503945530841,-6, -11, -7, -6, -10, -3, -3, -7
1503945530863,11, 5, 13, 1, -5, 4, 21, 7
1503945530879,-4, 0, 3, 13, 37, 1, -5, 4
1503945530900,-39, 3, -5, -8, -30, 2, -1, -1
1503945530923,5, 0, -3, 0, -7, -1, 1, 0
1503945530938,15, -1, -8, -8, -15, -37, 1, 11
1503945530960,13, 15, 13, 57, 87, 22, -4, 3
1503945530983,-14, -12, -11, -23, -33, -3, -2, -16
1503945530998,-14, -9, -5, -6, -14, 2, 0, 5
1503945531021,0, 4, 2, -2, -9, 0, -6, -1
1503945531044,-15, -8, -1, 7, 12, -5, 2, -2
1503945531050,3, -6, -12, -10, 4, -2, 8, 12
1503945531058,-27, 5, -5, -15, -10, -1, 1, -4
1503945531081,-10, -5, -3, -4, -18, -2, -2, -1
1503945531103,15, -3, -7, -1, -7, -13, -2, 0
1503945531112,14, -2, -6, -1, 5, -1, 1, 5
1503945531132,4, 3, 1, -2, -11, -6, -1, 1
1503945531148,27, 2, -8, -2, 4, -5, -2, 5
1503945531170,-10, -1, 14, 3, 8, -5, -1, -11
1503945531192,6, -3, -7, -5, -2, -5, -5, -16
1503945531210,-2, -10, -7, -8, -4, -1, -7, 6
1503945531230,24, 10, 30, 7, 24, 8, 3, 9
1503945531252,14, -4, -15, -5, -16, -6, -1, -8
1503945531268,-17, -2, 1, 5, 3, 1, -1, -13
1503945531291,-13, 13, 0, -5, 10, -1, -4, 13
1503945531313,-48, 0, 9, 3, 2, 1, 0, -23
1503945531328,-96, -19, -18, -8, -14, -10, -11, -31
1503945531358,32, 2, -3, 2, -1, 5, 7, 19
1503945531372,56, 13, 12, 5, -2, -4, -15, 1
1503945531388,20, -8, -10, -1, -1, 1, 11, 12
1503945531413,46, -5, -6, -4, 1, -4, 1, 60
1503945531432,1, -3, -6, -5, -1, 1, 2, -2
1503945531448,-11, -4, -9, -8, -10, -4, -3, -21
1503945531470,12, -5, -7, -1, -3, 2, 3, -18
1503945531493,16, 6, 4, 0, -6, 3, -2, -1
1503945531508,0, 5, 5, 2, 8, -1, -2, 0
1503945531530,-14, -7, -7, -6, -42, -1, -1, -6
1503945531552,-79, -16, -10, 4, 5, -1, 2, -7
1503945531574,-5, -11, -4, -3, 10, -4, -1, -15
1503945531583,9, 7, 7, 0, 1, -4, 0, -2
1503945531605,-4, -2, -5, -4, -10, -3, -3, -11
1503945531621,-4, -9, -7, -10, -34, -8, 3, 5
1503945531643,-8, 8, 4, 10, 0, 3, -1, 5
1503945531665,-7, -5, -5, -11, -10, -1, 2, -7
1503945531684,-24, 0, 4, 4, 12, 13, 3, 5
1503945531703,16, 2, 6, 5, 9, 0, -8, -18
1503945531725,2, -1, 4, 0, 7, 5, 3, 15
1503945531740,-7, -1, -2, -1, -7, -6, -4, -4
1503945531763,-10, -4, -6, -3, 1, -3, -2, -17
1503945531786,1, -2, 4, 3, 6, -4, -7, -8
1503945531800,-1, -6, -6, 0, 4, 0, 9, 19
1503945531823,-23, -7, 2, -1, 3, -2, -2, -2
1503945531849,18, -8, -7, -4, -2, -6, -7, -17
1503945531861,35, 16, 2, 1, -2, 2, 1, 16
1503945531883,-16, -1, -4, -1, -3, -2, 7, 13
1503945531905,0, -2, 1, -1, 0, -5, -7, -23
1503945531921,27, 3, 6, 3, -1, 11, 7, -17
1503945531943,-3, 4, 7, 6, 4, -1, 3, 20
1503945531965,8, -14, 7, 1, 2, -3, 0, 2
1503945531982,19, -10, -7, -5, -3, -3, 0, 14
1503945531995,14, -6, 1, 3, 4, 1, -4, -7
1503945532011,-27, 1, -6, -2, -5, -9, -5, -11
1503945532032,29, 3, -1, -3, -1, -1, 5, 8
1503945532055,11, 7, 3, 3, -4, -3, -7, -16
1503945532070,1, 16, 5, 1, 1, 1, 0, -7
1503945532092,0, 8, 1, 0, 0, 10, 4, 2
1503945532116,25, -5, -1, -1, -1, -6, -4, 6
1503945532130,-1, -4, -4, -1, 5, 4, -3, -2
1503945532153,14, -8, 7, 5, -6, -2, 0, 4
1503945532175,11, 1, -7, 0, 2, -3, 2, 18
1503945532191,-39, -4, -6, -5, -2, -3, -1, 0
1503945532213,0, -2, -1, 0, -20, 21, 1, -5
1503945532235,10, 0, 3, -5, -2, -12, -1, -2
1503945532250,5, 16, 4, -1, 3, 0, -1, -6
1503945532266,9, -9, -5, 0, 2, -7, 1, -1
1503945532281,-39, -1, -1, -2, -5, 4, 1, -2
1503945532303,22, 8, 6, -2, -5, -3, -5, -21
1503945532326,12, 2, 1, 4, -4, 1, -2, 5
1503945532341,16, 2, -1, 8, -23, 3, 1, 8
1503945532363,9, 7, 2, -4, 5, -10, -13, -14
1503945532393,16, -4, -12, -2, 5, 4, 3, 10
1503945532401,-6, -2, 1, 2, 0, -1, 0, -30
1503945532423,-6, -7, -6, -3, 3, -3, 3, 3
1503945532445,-3, -3, 1, -8, -2, -1, -2, 5
1503945532461,2, 6, 7, 0, -6, -5, -3, 4
1503945532485,4, 14, -7, 0, 2, 2, 1, 0
1503945532505,1, -6, -5, -10, 8, 3, 7, 5
1503945532528,22, 2, 3, 6, 5, -4, -5, 4
1503945532543,-3, -5, -1, -3, 6, 6, 2, 22
1503945532565,-4, -1, 4, 2, -5, -2, -1, -2
1503945532588,2, 1, -1, -3, -5, -3, 0, 17
1503945532603,12, -6, -4, 1, -4, -2, 2, 1
1503945532626,-23, 2, 3, 3, 3, -3, -3, 10
1503945532648,-12, 2, 8, 9, 20, -37, -5, -14
1503945532664,-7, 1, -3, -5, -10, 11, 5, 10
1503945532687,-35, -9, -7, -7, -3, 4, -12, -29
1503945532708,1, -3, -2, -4, -4, 4, 4, -13
1503945532723,-1, -6, -1, 1, -2, 5, -2, -5
1503945532745,-11, -2, -4, 0, -2, 7, -5, -21
1503945532768,-3, -2, 2, 1, -1, 6, -1, 3
1503945532783,2, -1, -4, -3, -1, -2, -1, -4
1503945532805,13, 4, 12, 5, 4, -2, 7, 14
1503945532828,38, 7, 2, 3, 0, 1, 2, 6
1503945532843,3, 4, 10, 8, 21, 0, -6, 14
1503945532859,7, 1, 1, 1, 6, 0, 4, 15
1503945532881,-4, 7, 0, -1, -2, 3, 5, 14
1503945532896,-5, 0, -12, -7, -7, -1, -6, -8
1503945532918,33, -7, -8, -6, -2, 15, -6, -11
1503945532941,1, -2, 1, 3, 0, -2, -1, 3
1503945532956,-26, 9, 6, -1, 1, 2, 0, 8
1503945532978,14, -2, 4, 3, -9, -6, -5, -20
1503945533001,0, 0, 7, 9, 6, -6, -5, 1
1503945533016,-4, 2, -4, -2, -1, -1, 7, 41
1503945533038,-25, -13, 4, -2, 2, -4, -5, -9
1503945533061,2, -1, -4, 0, 0, -5, 2, -12
1503945533076,-10, 1, -1, 2, 6, 10, 4, -12
1503945533098,5, -19, -13, -11, -20, 3, -2, 16
1503945533123,-8, 2, 5, 2, -2, -4, -2, -24
1503945533136,8, 7, 9, 2, 2, 0, 2, 11
1503945533158,1, -9, -6, -1, 4, -5, -6, 9
1503945533181,-14, -1, -7, -4, 3, -8, 4, 5
1503945533196,3, 7, 6, 0, 5, 3, -3, -4
1503945533218,23, -4, -8, -1, 0, 0, -2, -6
1503945533241,-12, 5, 0, -3, -3, -5, 0, 41
1503945533256,-5, 3, 0, 6, 9, -5, -4, -24
1503945533278,8, -3, -5, -6, -12, 2, 0, -40
1503945533301,9, -1, -2, -1, 2, -3, -3, -20
1503945533316,-8, 4, 1, 0, -2, 2, 0, 16
1503945533338,1, -3, -3, -9, -3, 3, 2, 27
1503945533361,13, -1, -4, -2, -2, -2, 2, 14
1503945533376,-2, 10, 5, 3, 12, 20, 2, -48
1503945533399,4, -3, -14, 0, -12, 8, 0, -6
1503945533421,-48, -12, -6, -2, -2, -8, -2, 30
1503945533436,-5, -7, 1, 10, 15, 0, 0, 8
1503945533460,11, 2, 14, -6, -4, -5, 2, 13
1503945533481,-7, 11, 18, 12, 28, 0, 3, 14
1503945533501,29, -15, -2, -5, -17, 1, -2, -25
1503945533511,15, 4, -2, 5, 7, -1, 1, -16
1503945533526,28, 21, 10, 5, -7, 1, -6, -11
1503945533548,-40, -1, -1, 5, -18, 2, 5, -2
1503945533570,-3, -1, 9, 1, 6, 3, 3, 19
1503945533585,-7, 0, -6, 1, 11, 1, 0, -3
1503945533608,-6, -5, -21, -8, 3, -3, -2, 17
1503945533633,-10, -5, -5, -3, 22, -5, -2, -16
1503945533645,-4, 7, -5, -1, 2, 4, 0, -5
1503945533668,-2, -7, 3, 6, 2, 1, -2, -4
1503945533690,-18, -4, 2, -2, -19, -6, -6, -20
1503945533705,2, 2, 2, 3, 6, 0, 2, 5
1503945533728,-5, -5, -9, -6, -5, -4, 1, 5
1503945533750,8, 1, 9, 8, 22, 6, -1, 7
1503945533765,-8, -1, 5, -6, -3, -4, -1, -1
1503945533788,8, 3, -3, -8, -28, -1, 1, 9
1503945533810,-25, -9, 5, 9, 11, 1, -4, -10
1503945533825,3, 4, 0, -2, 5, 4, 2, -16
1503945533847,-4, -2, -2, 1, -6, -4, 2, -3
1503945533870,0, -7, -4, 1, -20, 4, -1, 4
1503945533878,22, 10, 3, 0, -9, 6, 4, 1
1503945533901,20, -3, -2, -1, 1, -3, 1, 88
1503945533923,-21, -2, -2, -1, -2, 2, -2, -20
1503945533945,10, -3, -3, -4, -9, -5, -2, -18
1503945533962,13, 1, -1, 8, 6, 7, 4, -6
1503945533976,-7, 5, 4, 2, 5, 16, 1, -14
1503945533999,34, -2, -10, -4, -2, 4, -3, -2
1503945534021,-27, 3, 13, -1, 5, -9, -6, -19
1503945534036,-5, 1, 6, 5, -3, -1, -10, -7
1503945534058,0, 14, -4, -2, 3, -7, -1, 11
1503945534066,26, -10, -11, -5, -8, -18, -5, -5
1503945534088,15, 7, 6, -1, -24, -4, -4, 9
1503945534110,-9, -1, -1, -1, 4, 7, 3, 2
1503945534125,15, 7, 26, 8, 2, 2, 0, 12
1503945534148,-14, -3, -3, -12, -14, 0, 0, -9
1503945534170,-13, -4, -1, 0, 9, 4, 2, -1
1503945534178,-1, -1, -8, -2, -3, -4, 1, -4
1503945534201,7, -1, 16, 8, 5, 2, 1, -4
1503945534216,5, 12, 25, 9, 0, 1, 2, 3
1503945534239,2, 2, -9, -6, -3, 1, 0, -10
1503945534261,-7, -9, -9, -4, -14, -4, -3, -6
1503945534276,-8, -1, -1, 18, 60, 6, 2, 5
1503945534298,6, -2, -9, -13, -19, -8, 1, 1
1503945534321,-20, -4, -2, -3, -10, -2, 1, 1
1503945534336,22, 3, 1, 2, 1, 1, -2, 10
1503945534360,-1, -2, -4, -6, -3, 3, -2, -2
1503945534381,-4, -2, -2, -4, 6, -8, -6, -16
1503945534403,10, 1, 20, -5, -11, -3, 1, 3
1503945534418,-9, -11, -8, 0, -5, 3, -1, 13
1503945534441,15, -1, -7, 0, -3, -4, -6, 5
1503945534462,12, -9, 9, 3, 9, 3, -11, -11
1503945534470,34, 9, 3, -1, -4, 1, -3, -23
1503945534492,-6, 4, 5, 6, 0, -8, -2, 8
1503945534501,-1, 5, 1, 1, -2, -10, -3, -7
1503945534522,-4, -3, -2, -2, 1, -1, -2, -11
1503945534531,69, 15, -11, -3, -6, 1, 0, 5
1503945534553,1, 7, 17, 9, 4, -3, 1, 13
1503945534561,12, 5, -5, 2, 6, 0, 3, 1
1503945534583,-9, 0, 5, -1, -3, -4, 0, 20
1503945534600,5, 7, 1, -3, -3, -7, -1, -2
1503945534621,4, -1, -3, -1, -2, 4, -5, -13
1503945534643,-10, -2, -3, -2, 0, 2, -5, -22
1503945534658,-24, -9, -8, -3, -2, -3, -3, -12
1503945534681,48, 6, -1, -1, -2, -3, 1, 12
1503945534703,3, -2, -2, 4, 2, -4, -2, -15
1503945534718,5, 1, -5, -2, -3, -2, -3, -38
1503945534741,-30, 2, 2, -1, -2, 1, -9, -8
1503945534763,3, -11, 7, 3, -1, -2, -2, 0
1503945534778,-13, -2, 4, -3, -2, -4, 1, 0
1503945534802,51, 2, -3, 0, -2, -3, -1, 30
1503945534822,-11, -6, 3, 1, -1, -5, -4, -6
1503945534830,-15, -2, -6, -5, -5, -20, -6, 10
1503945534853,0, 2, 8, 2, 1, 11, -4, -38
1503945534869,9, 2, 4, -3, -2, 1, -2, -27
1503945534883,-23, 6, -1, -2, 2, 4, 5, 6
1503945534898,-1, 8, 5, 5, 5, 3, 2, 2
1503945534920,1, 10, 19, 5, -1, 0, -2, 1
1503945534943,-1, 15, 5, -2, 1, 0, -1, 2
1503945534958,-11, -5, -8, -2, -5, -3, -2, 3
1503945534980,-6, -12, -3, -3, 21, -10, -7, -14
1503945534987,10, 1, 0, 3, 8, 1, 0, -1
1503945535011,1, -8, -5, -5, -12, 0, -3, -12
1503945535033,7, -2, -3, 3, 3, -1, 0, 8
1503945535048,-6, -1, -5, 1, 5, 4, 3, 2
1503945535071,-2, 4, 6, 29, 67, 4, 7, 7
1503945535093,9, 18, 19, -3, -19, -3, -3, 3
1503945535108,-10, 5, 14, 3, -4, 0, 3, 5
1503945535131,-5, -11, -12, -8, -10, -1, -7, -17
1503945535153,6, 17, 20, 1, -3, -2, 1, 7
1503945535172,24, 2, 4, 3, -10, 1, 1, 12
1503945535197,-2, -12, -21, -9, -8, -5, -3, 14
1503945535213,-12, -8, -9, 1, 12, -1, 0, -5
1503945535228,14, -3, -7, -5, -9, -3, -3, -19
1503945535244,13, 18, 25, 9, 10, 2, 2, 10
1503945535258,-7, -2, -3, 2, 4, -13, 4, -10
1503945535281,-15, -5, 0, 4, 19, 9, -4, 9
1503945535305,1, -11, -15, -6, -8, -10, -8, -8
1503945535325,-2, 3, -4, -4, -4, -3, -2, 10
1503945535341,19, -23, -6, 0, -16, 2, -2, -17
1503945535363,18, -5, -8, -3, -6, -35, -2, 9
1503945535385,-11, -9, -7, -3, 0, 9, -2, -27
1503945535408,-28, 1, 0, 0, 4, 10, 5, 2
1503945535422,17, 11, 3, 6, 5, 4, -8, -17
1503945535445,-35, 11, -6, -5, -3, -3, -5, 0
1503945535460,11, 7, 8, -2, -3, 5, 3, 4
1503945535482,-66, 4, -1, -1, 2, 3, 4, 4
1503945535506,33, 1, 5, 4, 4, 4, 9, 28
1503945535520,8, -6, 6, -2, -4, -10, -15, -29
1503945535534,-18, -6, -7, -1, -1, -2, 5, 9
1503945535550,18, -4, -2, 3, 2, 19, -7, -15
1503945535574,-14, -2, -4, -4, 0, -2, -1, 2
1503945535594,14, 5, -5, 2, 9, -7, -5, -2
1503945535610,-8, -9, 3, -2, -6, -6, 0, -18
1503945535633,42, -1, -5, 0, -3, -4, 7, 23
1503945535654,-1, 11, 8, 3, 2, -3, -7, -7
1503945535670,-14, 7, 21, 4, 5, 0, 2, -9
1503945535692,-39, -18, -3, -1, -2, -6, -5, -9
1503945535714,-13, -13, -13, -9, -13, -2, -5, -5
1503945535722,-23, -1, -3, -2, 1, 0, 5, 10
1503945535745,17, 1, -1, 0, 3, 1, 3, -6
1503945535760,-2, -1, 2, 0, 7, 0, -4, 3
1503945535783,2, -1, -1, 3, 3, 2, -1, -2
1503945535805,9, -5, -16, -10, 0, -3, -1, 5
1503945535820,-2, 3, 6, -1, -6, -2, -4, -10
1503945535843,1, 3, 12, 5, 4, 4, 3, -1
1503945535865,2, -6, -5, -6, -5, -3, 0, 8
1503945535880,-20, -2, -3, -3, -3, -5, -6, -21
1503945535902,-4, -4, -7, -6, -4, -1, -1, 1
1503945535925,-65, -12, -10, -8, -3, 3, 3, -3
1503945535946,6, 5, -5, -1, -5, 0, 4, 10
1503945535963,28, 0, 7, 3, 4, 0, -2, 3
1503945535985,1, -1, 1, 2, 1, -6, -3, -20
1503945536001,7, 2, 8, 3, -3, 2, -2, -10
1503945536015,-11, 0, -12, -5, -4, -3, -1, -13
1503945536030,-32, -13, -9, -9, -3, -8, -9, -16
1503945536053,29, -9, -2, 1, 0, 2, 9, 38
1503945536076,-22, -3, -4, -3, -3, -4, -2, -5
1503945536090,14, 11, 6, 3, -4, -2, -6, -36
1503945536114,6, 2, 5, 2, 3, -1, 2, 14
1503945536145,-20, 12, 5, 5, 1, 1, 4, 21
1503945536165,-4, -1, -7, -8, -3, -7, -2, 0
1503945536181,5, -5, -8, -3, -1, -2, 8, 36
1503945536203,21, -1, -3, 2, 0, -2, 3, 19
1503945536225,28, 1, -4, -3, -2, -7, -2, -28
1503945536248,-1, -12, -13, -5, -3, -3, -4, -11
1503945536263,-14, 4, -6, -2, -4, 0, -1, 18
1503945536285,-6, -9, -7, -4, 7, -8, 0, -16
1503945536307,-10, -9, 2, -3, -5, 5, -2, 3
1503945536323,2, 2, 0, -1, -3, -1, 0, 33
1503945536347,-11, 6, 5, 4, 0, -4, -5, -18
1503945536368,-5, -11, -4, -4, -3, -1, 3, -4
1503945536385,-5, -4, -2, 10, 8, 9, 4, -14
1503945536405,-1, -4, -6, 1, -8, 1, 5, 6
1503945536428,22, 1, -1, -5, 1, -4, -2, 0
1503945536443,-2, 9, 8, 7, -1, -2, -5, -6
1503945536465,3, 9, 6, 2, 1, -4, 0, 73
1503945536488,23, -8, -7, -12, 19, 2, -2, -77
1503945536504,-31, 14, 0, -3, -29, 0, -2, 16
1503945536525,7, -2, -10, -4, -1, -7, -19, -23
1503945536548,-13, 1, -5, -1, 0, -5, -2, -35
1503945536563,-7, -8, -3, -4, 2, -5, 7, -2
1503945536585,-31, 0, 6, 11, 6, 5, 0, -11
1503945536593,-1, 6, 5, -1, -13, -5, -7, -17
1503945536615,-12, 1, -1, -3, -23, 3, 14, 20
1503945536637,-1, 28, 20, 23, 33, 5, -3, 14
1503945536652,-21, 1, -9, -8, -1, -2, -1, 2
1503945536667,4, -5, -5, -6, 0, 6, 2, 7
1503945536683,-12, -4, -4, -6, -19, -5, 6, 14
1503945536705,-3, 1, 10, 1, -2, -1, -1, -11
1503945536727,6, 6, -12, -2, 5, 1, 0, -3
1503945536735,-27, -38, -24, -19, -2, -4, 4, 9
1503945536757,5, 16, 1, 21, 52, 12, 4, 5
1503945536772,-23, -4, -3, -8, -16, -7, -4, -3
1503945536795,-1, -4, -18, -12, -16, 6, 3, 15
1503945536818,-12, -9, -10, -11, -15, 0, 15, 23
1503945536833,-28, -15, -10, -2, -9, -3, -1, -4
1503945536856,6, 2, 17, 3, -5, -18, -11, -26
1503945536877,4, 2, -4, 0, 0, 3, -11, -10
1503945536893,-14, 0, -1, -5, -8, -3, 0, 6
1503945536918,15, -1, -10, -6, -22, 1, -4, -3
1503945536937,8, 12, 10, 0, 6, -3, 0, 12
1503945536953,1, 2, -9, 6, 7, 1, -3, 0
1503945536975,-31, 7, 4, 1, 2, 2, -2, -10
1503945536997,-10, 14, -9, -9, -1, 0, 3, -3
1503945537013,-2, -2, 21, 7, 2, -2, -1, 1
1503945537035,16, -7, -21, -6, -16, -20, -3, 4
1503945537059,-38, -10, -9, -7, -3, 4, -6, -10
1503945537072,2, 7, 1, 6, 7, 6, 2, -5
1503945537095,-2, -2, 10, 1, 1, 3, 2, -4
1503945537119,21, -1, -1, 0, -2, -3, -5, -10
1503945537139,-5, -1, 5, 8, 0, 7, 4, 13
1503945537155,-5, -6, 0, -3, 1, 2, 2, -3
1503945537177,2, 0, -1, -15, 23, 4, 0, 1
1503945537199,-16, -9, 1, -2, -19, -3, 1, 7
1503945537215,-19, 1, -7, -6, 0, -6, -6, -5
1503945537237,-5, -5, 10, 7, 14, 2, 1, -1
1503945537261,20, 4, -3, 0, -6, 3, 1, -2
1503945537275,1, 0, -4, -2, -20, -5, 0, -4
1503945537297,16, -4, -5, -2, 1, -1, -2, 5
1503945537320,14, 11, 11, 9, 29, 1, 0, 7
1503945537335,24, -1, -7, -7, -25, -3, -7, 3
1503945537361,-9, -9, 3, 8, 15, 2, -6, -7
1503945537379,-30, 0, 10, 10, 6, -3, 0, -9
1503945537395,-2, -2, 3, -10, -21, -11, 12, -2
1503945537420,6, 6, -5, 16, 38, 16, 8, 5
1503945537439,15, -5, -5, -5, -35, 0, 0, 1
1503945537456,6, -6, -3, -6, 3, -3, -3, 13
1503945537477,-19, -8, -6, 0, -7, 0, -2, -14
1503945537499,-32, 0, 3, -4, 1, -2, -2, -3
1503945537515,6, -5, -2, 9, 62, 2, -1, -3
1503945537537,63, 17, 16, -4, -17, -3, -6, -10
1503945537559,-47, -7, -15, -4, -10, 0, -1, -8
1503945537575,-36, -12, -7, -6, -14, 1, 4, -6
1503945537597,9, 2, 40, 17, 4, 2, -2, 4
1503945537622,17, -5, -23, -14, -21, -8, -5, 3
1503945537635,-43, -7, -15, -8, -12, 7, -6, -22
1503945537661,4, 1, -17, -8, -11, -3, 5, 12
1503945537679,-20, -9, -13, -12, -7, -1, -3, -10
1503945537689,52, 9, -3, -3, 0, -4, 1, 7
1503945537710,19, 0, -3, 6, 32, -29, -11, 0
1503945537725,-35, -6, -3, 2, -9, 13, -4, -22
1503945537747,-7, -8, -8, -7, -4, -1, -1, -3
1503945537770,3, 13, 20, 3, -35, 4, 2, 9
1503945537786,-14, -8, -12, -14, -20, 0, -11, -6
1503945537807,-9, -2, -12, -7, -6, 1, 5, -10
1503945537830,-7, -9, -5, 2, 2, -2, -9, -18
1503945537845,-6, 3, -1, -1, 7, -5, 12, 23
1503945537867,20, -7, -4, 2, 11, 3, 0, 21
1503945537890,16, -7, -3, -6, -17, -7, -4, -4
1503945537913,-11, 11, 5, 1, 0, -2, 0, -19
1503945537927,5, 10, -6, -3, 3, 4, -2, -31
1503945537957,7, -5, -8, -2, -2, -1, 3, 17
1503945537966,-9, -7, -5, -6, 2, 0, -1, 15
1503945537987,19, -1, 2, 2, 2, 1, 0, 5
1503945538010,-6, 5, -2, -5, -3, 2, 3, -39
1503945538025,-10, -4, 2, 3, 5, 4, -2, 5
1503945538050,1, -5, -3, -2, -3, -6, -8, -27
1503945538071,-29, 1, 13, 5, 0, -2, 1, 8
1503945538095,-24, -6, -2, -4, 4, -3, -22, 14
1503945538108,-55, -9, -6, 1, 1, -1, 5, 4
1503945538130,1, 2, 0, -2, -1, -33, -4, 1
1503945538152,25, 2, 6, -1, -6, 7, 9, 32
1503945538167,20, -3, -9, -3, 5, 9, 0, -10
1503945538197,14, -5, 5, 3, 2, 7, 29, 15
1503945538212,42, 3, 15, 8, 3, 5, -1, 28
1503945538229,1, -5, -13, -5, -6, 3, 2, 13
1503945538250,-15, -2, -5, 7, 7, -26, -11, -16
1503945538272,-11, -4, -6, -8, -6, 4, 0, -18
1503945538287,-1, 7, 12, 3, -1, 6, -9, -3
1503945538310,27, 0, -10, -4, -11, 3, 2, 0
1503945538332,-15, -3, -2, 0, 4, 4, -14, 72
1503945538347,0, 6, -1, -7, -4, 3, 7, -4
1503945538370,-9, -9, -6, -2, -4, 15, 2, -31
1503945538395,3, -2, 5, -1, 1, 8, -4, 5
1503945538401,5, -5, -11, -5, -4, 7, 7, 2
1503945538423,-13, -5, -5, -5, -1, 0, -8, -25
1503945538438,-2, -5, -2, -6, -26, -9, 8, 19
1503945538461,-3, -8, 3, -2, -2, -3, -1, -7
1503945538483,-1, -7, -11, 0, -3, -38, 11, -1
1503945538498,23, 6, 2, 1, 6, 13, 3, 2
1503945538520,4, 0, 11, 3, 5, 4, -7, 9
1503945538543,-4, 13, 25, 4, 2, 1, 9, 2
1503945538558,-54, -7, -10, -4, -2, 4, -2, -3
1503945538581,2, -5, -8, 3, 2, 5, -3, -26
1503945538603,-6, 7, 18, 6, 7, 2, 5, 8
1503945538619,1, -13, -20, -6, -2, -4, -4, -2
1503945538641,14, 11, -1, 0, 6, 37, 2, 9
1503945538663,18, 11, 14, 6, 2, 3, -3, 0
1503945538678,0, 1, -7, -3, -3, -6, 3, 8
1503945538695,7, 14, 2, 1, 2, -11, 7, 26
1503945538707,-44, -12, -3, -3, 11, 0, -3, -3
1503945538732,9, 1, 1, -5, -12, -2, -4, -6
1503945538752,-13, -6, -6, -2, -3, 1, -7, -12
1503945538767,0, -4, 1, -2, 3, -1, 0, -6
1503945538790,22, 10, 6, 4, 2, -16, 1, -2
1503945538812,31, 3, 4, 0, 7, -1, 0, 9
1503945538832,14, -4, -6, 2, -4, 4, -5, -11
1503945538850,0, -3, -7, -5, -2, 1, 0, 0
1503945538881,6, 0, -1, 1, 17, 0, 2, 8
1503945538905,-15, -14, -4, 0, -1, -5, 0, -3
1503945538918,-1, 12, 17, 4, -2, 2, -1, -4
1503945538947,-5, -3, -4, -3, -8, 2, -3, -6
1503945538965,11, -4, 4, -1, -3, -8, -1, 6
1503945538978,-31, -7, -9, -4, -5, 1, -1, -2
1503945539005,13, -7, -12, -9, -2, -2, -4, -1
1503945539023,-7, -6, -10, -3, -1, 3, 9, 5
1503945539045,-5, -6, -5, 0, -3, -3, -2, 10
1503945539070,13, 8, 5, 2, -3, -45, -3, -2
1503945539083,5, 3, 2, 1, 0, 14, 0, -4
1503945539105,9, 6, 9, 4, -1, 6, 2, 7
1503945539121,-19, -1, -3, 7, 6, 9, -4, -13
1503945539143,-3, -10, -8, -7, -4, -6, -8, -45
1503945539165,8, 2, -5, -1, 1, 6, 3, 15
1503945539180,42, 5, -2, -2, 0, 11, 3, 11
1503945539203,-5, 1, 0, -1, -3, -5, -1, 10
1503945539225,8, 7, 11, 2, 1, 3, -3, -1
1503945539241,-20, -2, -1, -1, -1, -5, -4, 10
1503945539263,2, -4, -3, -1, -1, 0, 0, 0
1503945539285,-6, 0, -8, -5, -4, -2, -3, -9
1503945539302,-7, -3, -5, -4, -2, 0, 0, -4
1503945539323,-3, -3, -4, -2, 0, 0, 2, 1
1503945539345,-15, 4, 10, 3, -1, -3, -4, -19
1503945539360,1, 7, 7, -2, 0, 3, 1, 7
1503945539383,1, -3, -3, -2, -1, 1, 2, 7
1503945539408,2, -3, -2, 0, -1, -3, -5, 18
1503945539420,27, 2, 0, -1, 0, 2, 2, 9
1503945539443,4, 1, -1, 1, 2, 0, 1, -3
1503945539467,-3, -5, -5, -2, 0, -1, -2, -2
1503945539480,-6, 1, 2, 1, -2, -7, -5, -21
1503945539504,-9, -3, -3, -4, -4, 1, 4, 1
1503945539525,5, -1, 0, 4, 7, 2, 0, 6
1503945539540,-48, 4, 5, 2, -1, 16, -2, -4
1503945539563,13, 11, 12, 0, 0, -3, -2, -2
1503945539585,3, -6, -8, -4, -3, -2, -3, -5
1503945539611,1, 2, 0, 0, -1, -4, -3, -5
1503945539623,-27, -9, -8, -4, -6, -6, -5, -9
1503945539645,13, 6, 9, 2, 1, 2, 6, 11
1503945539660,17, -2, -2, 1, 0, -6, 1, -9
1503945539690,3, -6, -10, -2, -2, 11, -4, -13
1503945539705,-12, 14, 7, 2, -2, -3, 1, 11
1503945539720,1, -7, -7, -2, 2, -5, 1, 3
1503945539744,26, -2, -2, 1, -2, -3, 2, 9
1503945539765,-12, -10, -3, -9, -3, -5, -3, -3
1503945539780,-9, 5, 7, 1, 0, -2, 1, -5
1503945539807,4, -2, -5, -2, 0, 1, -2, -3
1503945539825,6, -2, -1, 0, -3, -5, -10, -7
1503945539840,-10, -4, -8, -4, -4, -2, 3, 4
1503945539863,-29, -5, -6, -2, 0, 0, 1, 3
1503945539874,-23, 12, 13, 6, 2, 1, -3, -3
1503945539892,2, -2, -3, -5, -3, -1, -1, 14
1503945539915,7, -5, -7, -3, -1, -4, 2, -1
1503945539930,-1, -3, -2, -1, 1, -2, -4, 0
1503945539952,7, -1, 0, -1, 0, -2, 0, -1
1503945539975,-33, -13, -5, -1, -2, -1, 0, -19
1503945539996,8, -1, 2, -1, 0, -2, 1, -3
1503945540012,9, 0, 2, 4, 1, -6, -4, 9
1503945540039,20, 7, 3, -2, -2, 1, 2, 7
1503945540057,8, 0, -3, -4, -2, 0, -1, -3
1503945540073,17, 9, -1, -4, -5, -1, 0, -13
1503945540095,1, -1, -1, -6, -2, -6, 0, 7
1503945540117,0, -8, -12, -6, -3, 6, -3, -3
1503945540132,-11, 0, 4, 3, 0, 1, 3, 4
1503945540155,15, 4, 0, 1, 3, 1, -1, -16
1503945540177,22, -6, -2, 2, 2, 2, 3, 8
1503945540192,-13, -2, 1, 1, -1, -2, 1, 10
1503945540215,-4, 2, -2, 0, 1, 8, -2, 5
1503945540240,-11, -4, -2, 1, -4, 5, -3, -6
1503945540252,-7, 3, 3, 3, 4, -9, -4, 8
1503945540276,-35, -10, -8, -4, -4, -5, -2, -14
1503945540297,0, -2, -3, -1, -2, -4, -1, 9
1503945540319,6, -3, -3, -2, -1, 0, 1, -12
1503945540343,-3, 3, 3, 2, 0, 3, -2, 8
1503945540357,-1, 0, -1, -3, -3, -9, -1, 9
1503945540374,-6, 8, 0, 4, 1, 4, -6, -20
1503945540395,-10, -4, 1, -2, -2, -2, -1, 3
1503945540424,-1, -2, -1, -1, -2, -3, -1, 4
1503945540432,8, 1, 2, 1, 0, -1, 0, 2
1503945540455,14, -1, 0, 0, -3, -3, 2, 2
1503945540477,13, -1, -4, -4, -3, -2, 4, 20
1503945540492,-4, 4, 1, 0, 1, 1, -1, -10
1503945540515,7, -5, 1, 0, 3, 0, -2, 2
1503945540537,2, -1, -7, -6, -2, 11, 2, 5
1503945540553,1, 1, 4, 6, 3, 6, -2, -14
1503945540576,-12, -2, 2, -2, -4, -9, -2, -6
1503945540596,-10, -1, -1, 1, 0, -3, -5, -6
1503945540613,-23, 16, 20, 0, 0, -6, -4, -11
1503945540635,0, -7, -9, -2, -3, -44, 6, 5
1503945540657,1, -4, -9, -3, -2, 11, -2, -4
1503945540672,3, -3, -2, -1, -1, 3, -1, -3
1503945540695,8, 0, 3, -1, 1, 0, -3, 0
1503945540718,-10, -2, 8, 2, 0, 2, 0, 10
1503945540734,-1, -3, -7, -3, -1, 7, -5, -18
1503945540755,-12, -4, -10, -1, -3, -1, 1, -7
1503945540778,-27, -11, -18, -8, -4, -5, -1, -59
1503945540792,13, 1, 2, 2, 1, -2, -1, 39
1503945540815,9, 1, 9, -2, -2, 8, -1, 26
1503945540837,6, -4, -2, 1, 3, 1, -4, -28
1503945540852,1, 1, -5, -4, -3, 0, 1, -5
1503945540876,52, 0, -12, -8, -4, -3, -1, 13
1503945540897,0, 5, 9, 2, 0, 7, 8, 13
1503945540919,-20, -1, -5, -1, 0, 0, -4, 62
1503945540935,-20, -21, -18, -4, -6, -9, -8, -48
1503945540957,6, 0, -6, -5, -5, 4, 1, -11
1503945540979,-8, 1, 3, 0, 5, 2, -1, 9
1503945540995,13, 12, 6, 7, 2, -4, -4, -10
1503945541017,6, 5, 7, 3, 3, 0, 2, 0
1503945541039,4, -3, 5, 0, -1, 10, 0, 6
1503945541055,-18, 1, 4, 5, 2, 8, 0, 3
1503945541078,0, -6, -2, 3, -1, -2, 0, -4
1503945541099,9, -4, -6, -8, 6, -4, 3, -9
1503945541115,-2, 2, 3, 3, -5, -5, -4, -1
1503945541137,0, 1, -2, 2, -11, 0, 0, 5
1503945541159,-7, 1, -1, -5, 1, 14, 1, 1
1503945541175,14, 0, 0, -10, -10, 4, 0, 3
1503945541197,-26, -2, -1, -2, 2, -5, -1, 2
1503945541219,-9, -6, 1, -9, -34, -34, -36, -4
1503945541235,4, -3, -7, -18, -19, -2, 18, 3
1503945541257,-1, 7, 13, 10, 6, 1, 6, 2
1503945541280,9, 3, -3, 9, 20, 3, 0, -1
1503945541295,3, 0, 2, 0, -3, -4, 0, 5
1503945541317,12, 2, -9, 1, 10, 0, 1, -7
1503945541339,-2, -3, 1, -11, 10, 1, 4, 5
1503945541358,38, 5, 9, 5, -3, -1, -9, -18
1503945541377,-24, 3, -3, 0, -4, -1, 2, 4
1503945541399,-11, -5, -3, 9, 5, 10, 0, -3
1503945541415,1, -3, -1, 6, 25, 2, 5, 4
1503945541437,7, -4, -2, 0, -18, 2, 10, 11
1503945541459,-5, 3, 7, -4, -7, -4, -5, 0
1503945541475,12, 4, -4, 1, -7, -7, -5, 5
1503945541497,-19, 2, -5, -2, 2, -2, -2, -12
1503945541519,-57, -6, 2, 3, -5, -3, -4, -7
1503945541535,6, -4, -5, -4, 19, -11, -7, 3
1503945541557,25, -9, -10, -3, -7, -1, -2, -9
1503945541579,-32, -13, -4, -5, 2, 2, 2, 10
1503945541601,-6, 0, 3, 2, -37, -9, -1, -1
1503945541610,5, 0, 3, 4, 4, 10, -2, 1
1503945541639,-1, 1, -2, 1, 24, 6, 0, -5
1503945541655,-88, -21, -14, -3, 8, -2, 3, 1
1503945541677,18, 1, -1, 5, -2, -2, 0, -2
1503945541699,27, 5, 7, 13, 61, 21, 3, 1
1503945541716,14, 0, 0, 0, 11, 0, -5, -7
1503945541737,12, 7, 3, 13, 8, 3, 1, 6
1503945541759,23, 2, 1, -1, 4, 0, 5, 4
1503945541775,9, -4, 1, -6, -13, -4, 1, 3
1503945541797,-4, 7, 2, -5, 49, -8, -10, -8
1503945541819,0, -7, -3, -12, -80, -10, -7, -3
1503945541842,30, 5, -4, 1, -5, 0, 2, -4
1503945541857,17, -12, -23, -12, -9, -2, -7, 1
1503945541872,-26, 3, 0, 5, 38, -1, 2, 2
1503945541888,2, 0, -4, 8, -14, 0, 0, -2
1503945541910,16, 2, 4, 4, -34, -5, 3, 5
1503945541933,-67, -21, -17, -6, 28, 2, 1, -5
1503945541947,18, 2, 1, -12, -12, 0, -1, -2
1503945541970,3, 11, 9, 23, -1, 5, 4, 3
1503945541993,-12, -22, -9, 1, 18, -1, -5, -12
1503945542007,11, 17, -5, -9, 6, 1, 1, 0
1503945542030,11, 8, 16, 10, 35, 7, 0, -1
1503945542052,-1, -4, -4, -18, -30, -5, 10, -3
1503945542067,1, 5, 2, -1, 3, -3, -7, 0
1503945542090,26, 7, 9, 4, 1, 4, -1, 0
1503945542112,3, -4, -4, 3, 25, 1, -3, 1
1503945542127,-9, -6, -10, 4, 8, 2, -1, -1
1503945542150,2, -4, -4, -6, -11, -7, -3, -2
1503945542172,-11, -6, -3, 8, 11, 5, -4, 5
1503945542188,3, 9, 1, -5, -13, -6, 1, 2
1503945542210,3, -5, -6, -5, 30, 4, -1, -3
1503945542232,5, 1, 0, -1, -5, -4, 1, 2
1503945542247,-3, -4, -5, -2, -17, -4, -5, -6
1503945542270,-4, -4, 0, 10, -2, 3, -1, 0
1503945542292,4, 18, 0, -6, -5, -6, -1, -1
1503945542307,-21, -9, -5, -8, -21, -4, -2, 0
1503945542330,25, 1, -10, -5, 0, -1, 1, 13
1503945542357,3, 9, 5, 2, -2, -1, -2, -4
1503945542367,1, 6, 20, 11, 9, 5, 5, -2
1503945542390,-7, -8, 0, 18, 5, -7, -2, -1
1503945542412,12, -4, -2, -5, 6, 2, -1, -4
1503945542427,-6, -1, 15, 4, 4, 0, -4, -14
1503945542450,-1, 5, -3, -11, 1, -3, 0, 1
1503945542472,-1, 3, -8, -14, -22, -4, -2, -2
1503945542488,-33, -14, -8, -7, -3, 5, 0, -11
1503945542510,17, 3, 2, 7, 5, -3, -2, 6
1503945542532,-13, -3, -7, 5, -1, 4, -1, -1
1503945542547,48, -2, 20, -1, -7, -3, -7, 7
1503945542570,4, 0, -7, 0, -17, -7, -2, 1
1503945542593,-5, 2, -2, -4, 7, -3, -1, 4
1503945542607,-33, -2, -8, -1, 1, 0, -5, -3
1503945542623,8, -11, -12, -5, -1, 1, 0, 10
1503945542637,-10, -1, 10, 4, -4, -11, -7, -16
1503945542659,-15, 3, -5, -3, -1, -1, 1, -8
1503945542681,-34, -6, -5, -6, -8, -6, 3, 13
1503945542698,28, 1, 32, 16, 8, 2, 7, 59
1503945542719,0, 8, 5, -3, -2, 0, 0, -14
1503945542741,-4, -9, -17, -16, -32, -8, -1, -16
1503945542771,-1, -7, -10, 7, 10, 3, 0, -9
1503945542779,-66, -7, 5, -2, 7, 2, -6, -5
1503945542801,7, 2, -5, 3, -6, -4, 1, 3
1503945542824,13, -3, -4, 14, 12, 2, -1, -6
1503945542839,-7, 14, 2, -7, -1, 8, -2, -4
1503945542861,25, 0, -9, -11, -10, -12, -9, -11
1503945542884,5, -6, 0, -2, 10, 1, 1, 0
1503945542906,-2, 2, 7, 4, -13, -3, 1, 1
1503945542915,-3, -1, 7, -1, -15, -2, 5, 2
1503945542930,13, 1, -1, 9, 5, -6, -2, 1
1503945542952,1, -1, -4, -8, -15, 5, -3, -31
1503945542975,6, -1, -3, 7, 20, 4, -1, -7
1503945542993,-13, 14, 15, -1, -5, -6, -9, 7
1503945543012,8, 3, 13, 6, -1, -2, 0, -2
1503945543035,21, 2, 29, 4, -2, 6, 5, 6
1503945543050,26, 2, -12, -3, -3, -7, -2, 9
1503945543072,11, -5, -12, -7, 18, -4, 2, -10
1503945543095,14, 6, 2, 1, -2, 1, -1, 8
1503945543103,-5, -14, 13, 1, 4, -15, -4, -21
1503945543127,-9, -2, -4, -2, 1, -4, -6, -2
1503945543148,-7, -2, -6, -7, 1, -5, 0, 13
1503945543164,-57, -6, -1, 1, 5, -2, 0, -29
1503945543186,20, 10, 12, 3, 3, -2, -2, 8
1503945543214,-23, 4, 14, 7, 4, 9, -4, -32
1503945543223,46, 2, -8, -2, 9, -2, 0, 9
1503945543245,10, 1, -8, -3, -6, -2, 3, 15
1503945543268,30, -2, -8, -4, -1, -4, 0, -7
1503945543283,-24, -5, -2, 3, -3, 1, -1, 6
1503945543306,27, 1, -7, -5, -1, -2, 1, -12
1503945543330,-33, -5, -5, -3, -5, -5, -2, -9
1503945543344,-5, 2, -3, 1, 0, 1, 6, 22
1503945543365,-38, -14, -6, -5, 2, -1, -3, -17
1503945543388,21, 2, -5, -8, -3, -36, -7, 13
1503945543403,0, -3, 4, 1, -5, 10, 2, 17
1503945543425,-4, 8, 15, 6, 0, 5, -6, -11
1503945543448,-7, -6, -1, 1, -3, -2, -3, -10
1503945543464,6, 9, -1, 1, 0, 2, 4, 1
1503945543485,-12, -6, -7, -2, -6, -4, 1, -2
1503945543511,-3, -3, 12, 1, 1, 9, -2, -9
1503945543523,-4, 0, -6, -1, 11, 2, -7, 10
1503945543546,-17, -4, -9, -5, 4, 21, 1, 4
1503945543568,11, -1, -6, -6, -16, 6, -5, 0
1503945543583,50, 2, -5, -4, -1, -3, 10, 11
1503945543606,5, 3, 5, 6, 0, -7, 1, -3
1503945543629,-1, 1, -2, -2, 1, 0, -2, 17
1503945543643,-25, -13, -11, -7, -12, -10, 5, -12
1503945543666,-5, -1, -2, 2, 0, -6, 5, 73
1503945543688,21, 11, 8, 2, 3, 4, 0, 6
1503945543703,-5, -10, 0, 0, 0, -1, -7, -19
1503945543728,6, -7, -11, -4, -8, 5, -5, -29
1503945543748,-13, 5, 12, 8, 1, -30, -11, -28
1503945543768,12, 5, 2, 0, 0, 9, -6, -53
1503945543785,-5, -1, 2, 1, 2, -2, 1, 15
1503945543808,-7, 0, 2, -1, 0, 1, 1, 37
1503945543825,1, 17, 6, 0, 1, -4, 0, -7
1503945543838,7, -2, 9, 3, -1, 3, -1, 15
1503945543852,14, -2, 9, 2, -1, -10, -5, -10
1503945543875,-19, -3, -5, -3, 0, 5, -2, -5
1503945543898,15, 4, -5, -5, -3, -3, 1, 30
1503945543912,-9, -3, -4, -2, 0, -3, 8, 14
1503945543935,-40, -10, -8, 3, 0, -4, -5, -4
1503945543957,16, 4, 1, 0, -1, -15, 6, 16
1503945543972,9, -3, 1, -2, -1, 6, -7, -12
1503945543995,46, 6, 0, -3, -2, 5, -2, 32
1503945544017,5, -4, -4, 0, -3, 1, 0, -8
1503945544032,-25, 1, 3, 1, 0, -4, -3, -4
1503945544054,4, -7, -12, -4, -2, -4, -4, -30
1503945544077,15, 0, -8, -5, -3, -4, -5, -33
1503945544092,5, 0, 1, 1, 3, -4, 2, 45
1503945544114,-5, 3, 4, 1, -3, 2, -4, -5
1503945544137,-61, 3, 8, 2, -3, -3, -2, -7
1503945544152,-45, -15, -9, 0, -2, -1, -1, 4
1503945544175,2, 4, 1, 2, 2, -4, 1, -8
1503945544197,26, 5, 2, 0, 2, 10, -1, -7
1503945544212,9, -2, 7, -1, -4, 0, 0, 3
1503945544235,6, -5, -5, 1, 0, -5, 2, 4
1503945544257,30, 9, 6, -4, -3, -4, -1, -5
1503945544273,-28, 8, 9, -1, 2, -21, -1, -1
1503945544295,4, -6, -10, -5, -2, 9, 4, -3
1503945544317,16, -2, -2, 0, -1, 13, 5, 0
1503945544334,-10, -6, -8, 1, 0, -4, -5, -26
1503945544356,14, 7, 8, 1, 0, -1, 0, 0
1503945544378,-22, 0, -5, 1, 1, -1, 3, 2
1503945544392,20, 0, 6, 8, 3, -1, -8, -7
1503945544415,6, -2, -11, -5, -3, -5, -2, 14
1503945544437,-37, -2, -3, -6, -2, -6, -5, 19
1503945544452,22, -2, -8, -1, -1, 6, 0, -6
1503945544475,-18, -6, -2, -1, -3, -1, -5, -11
1503945544497,-6, 0, 4, -1, 0, 8, 2, 4
1503945544512,8, 14, 8, 5, 0, -2, 0, 12
1503945544536,-15, -9, -5, -1, -1, -1, -2, -7
1503945544557,11, -3, -2, -3, -1, -4, 0, 3
1503945544574,19, -3, -6, -3, -3, 4, -4, -11
1503945544595,-4, 11, 18, -1, -1, 5, -6, -13
1503945544617,-39, -7, -10, -4, -4, -4, 5, 53
1503945544640,14, -7, -5, -2, 0, -2, 3, -9
1503945544655,2, -4, -9, 1, 0, -4, -2, 13
1503945544677,2, 4, 5, 2, 3, -3, -2, -17
1503945544700,14, 15, 3, 0, -1, 4, 0, -10
1503945544715,2, -6, -3, -1, 1, -5, 2, 1
1503945544737,-4, -7, -5, -3, -3, -2, 0, -1
1503945544746,-9, -4, 4, 2, 0, -3, 0, 4
1503945544768,-3, -2, -5, 1, 0, -5, -3, -6
1503945544789,-18, -2, -2, -1, -3, 1, -3, 3
1503945544806,18, 2, 1, -2, -1, 0, 4, 50
1503945544828,-7, -1, -1, 1, 2, -3, 3, -2
1503945544850,8, -2, 2, 2, -1, -4, -6, -17
1503945544865,9, 4, 4, 0, 0, 3, -2, -13
1503945544888,13, 1, 0, -2, -3, -2, -6, -24
1503945544910,-7, -6, -5, -5, -1, -3, 1, -7
1503945544925,11, 0, -3, -3, -3, 6, 5, 16
1503945544949,-25, 0, -5, 2, 2, -3, -6, -21
1503945544972,-21, 2, 2, 2, 2, 1, -3, 3
1503945544985,-10, 2, -3, -2, -6, -33, 1, 8
1503945545014,7, 7, 7, 0, 5, 11, -4, -3
1503945545030,7, 10, 3, 0, 0, 2, -3, -9
1503945545045,7, 6, -5, -2, -2, 1, -2, -9
1503945545067,-10, -19, -13, -6, -6, -12, -16, -75
1503945545089,-2, -3, 1, 1, -1, 15, 5, 22
1503945545107,-5, -20, -4, -3, 0, 1, -1, -11
1503945545127,16, -7, -15, -10, -45, -3, 4, 20
1503945545149,5, 2, -2, 6, 13, 7, 3, 31
1503945545165,-6, 6, 12, 4, 7, -2, 0, 5
1503945545187,-15, -7, -2, 0, 9, 1, 1, 7
1503945545210,2, 6, 5, -1, -3, -3, -3, -6
1503945545225,2, 3, 2, 6, 8, -2, -1, -5
1503945545248,0, 0, -8, -7, 9, 3, 6, 4
1503945545269,-13, -6, 1, 1, 2, 4, 0, 0
1503945545277,-1, 1, -2, 4, 8, -2, -1, 1
1503945545299,-11, -4, 0, 2, 16, -5, 0, -1
1503945545309,-10, 4, 6, 37, -17, -3, -3, -11
1503945545329,-11, -9, -9, -18, -6, -4, -2, -3
1503945545345,6, -2, -1, -6, -6, -2, 0, 4
1503945545367,5, -1, -3, 5, -6, 3, -2, -18
1503945545375,-3, -5, -8, -2, -9, 0, 1, -2
1503945545397,-49, -1, 8, 4, -13, 24, 0, -12
1503945545419,9, -4, 0, -3, 6, -5, 3, -12
1503945545436,26, -5, -3, -4, 1, -7, -2, 3
1503945545457,-22, -10, -10, -2, -4, -6, -1, -7
1503945545480,32, 13, 18, 9, 2, -4, -2, -9
1503945545488,7, 0, 1, 3, 4, -2, -1, 5
1503945545510,-13, 2, 3, 6, 11, 2, -2, -7
1503945545532,-8, 2, 11, -3, -8, -1, 0, 1
1503945545547,1, 5, -3, -1, -1, 0, 1, -2
1503945545570,10, 3, 2, 0, 4, 5, -1, 1
1503945545592,-14, -4, -5, -4, 20, -1, -5, -15
1503945545611,-20, -5, -5, -5, -4, 6, 0, 0
1503945545622,5, -6, 7, 2, 0, 0, 0, 11
1503945545637,-2, -4, -5, -2, -6, -5, -2, -11
1503945545660,2, 4, -5, -4, -16, -1, -2, 1
1503945545682,-8, -4, -3, -3, -1, 1, 0, -2
1503945545697,-8, -1, -2, 2, -1, -1, -4, -18
1503945545721,11, 4, 0, -1, -27, -7, 7, 11
1503945545728,6, -2, -3, -3, -5, -1, 6, 6
1503945545749,0, -3, -2, -3, -9, 3, -6, 7
1503945545772,5, 4, 2, 4, 7, -3, 0, 0
1503945545788,2, -10, -7, -5, -8, -4, 5, 7
1503945545813,13, 0, 2, 2, 23, 0, 3, 2
1503945545832,2, 4, -1, -1, -4, 1, -4, -6
1503945545848,-33, -6, 0, 2, -7, -2, -3, -6
1503945545870,25, 2, 7, 1, 1, 1, 0, 22
1503945545881,-8, -5, -2, 0, -1, -2, 0, 5
1503945545899,9, 0, 0, 3, 3, 0, 0, 0
1503945545922,5, 4, -1, 1, 30, -30, -2, -5
1503945545937,27, 1, 5, 4, 0, 14, 0, 0
1503945545960,-11, -2, -9, 0, -2, 2, -13, -21
1503945545982,15, 4, 4, -2, -4, 1, 4, 18
1503945545997,-5, -2, -2, -2, 7, 1, 4, 10
1503945546020,-12, -4, -1, -1, -10, 3, -1, -4
1503945546041,23, 4, -7, -4, -13, -2, -4, 3
1503945546057,-17, 1, 5, 4, 21, 26, 1, -2
1503945546080,3, 1, 2, -2, -13, 1, -3, -28
1503945546102,6, -1, 2, 2, -6, -2, 1, 12
1503945546117,5, -6, -9, -2, -7, -2, 6, 10
1503945546140,-1, -3, 1, 1, 1, -4, 4, -22
1503945546169,-18, -8, -5, 1, -2, -6, -3, -3
1503945546177,-14, -5, 2, -1, -8, 2, -1, 2
1503945546199,2, 1, 2, -5, 8, 0, -2, -1
1503945546222,8, 3, -5, -1, -8, -5, -1, 14
1503945546237,-2, -1, 1, -2, 12, 8, -1, -7
1503945546260,-29, -1, -2, -1, -10, -6, 1, 6
1503945546282,-10, -1, -2, -3, 0, 3, 1, 3
1503945546297,1, 8, -6, -1, -3, -1, -2, 3
1503945546328,-15, -4, -5, 2, -9, -1, 2, 6
1503945546353,-9, 0, -2, -5, 2, 2, 5, -4
1503945546372,-16, 0, 0, 0, 1, -7, -4, 4
1503945546388,-11, 0, -2, -1, 4, 9, 0, 2
1503945546402,5, -5, -3, -3, -7, -8, 0, -6
1503945546417,-9, -1, 3, 3, -5, -8, -1, 3
1503945546439,-2, -4, -5, -2, -27, -4, 2, 2
1503945546461,-29, -1, -4, -3, 0, -4, -2, -10
1503945546484,-5, 8, 2, 0, 3, 2, -6, 5
1503945546499,8, -7, -5, -3, 3, -5, -2, -10
1503945546521,-13, -1, 4, 3, 1, -29, 0, 4
1503945546544,-6, -7, -2, 4, 15, 8, 6, 0
1503945546560,10, -2, -1, -4, 0, 1, -2, 1
1503945546585,-5, -3, -6, -3, -5, 4, -2, -10
1503945546604,13, 5, 4, -10, -56, 11, 2, 5
1503945546620,3, 8, 1, 0, -2, -2, 14, 0
1503945546641,23, -2, -6, -6, 5, -2, -1, 43
1503945546664,-13, -5, -2, -1, 12, -5, -4, -5
1503945546680,8, -3, 0, 5, 5, -1, -3, -10
1503945546701,8, 4, 7, -5, -5, -2, -1, 4
1503945546709,46, 29, 12, 1, 1, -6, -1, -7
1503945546732,-18, 1, -11, -6, -7, -33, -1, 5
1503945546755,-2, 0, -1, -3, 5, 15, 2, 2
1503945546769,-17, -11, -10, -2, 9, 4, -3, 0
1503945546794,1, -7, -5, -3, -2, 0, -2, -3
1503945546814,-4, -2, 3, 0, -42, -5, 2, 8
1503945546830,11, -4, -2, -1, 12, 21, -2, -28
1503945546855,-22, -5, -5, 0, 1, -3, 4, -5
1503945546874,-22, 2, 1, -5, 0, -1, 1, 5
1503945546890,2, -6, 1, 0, -27, -7, -8, 3
1503945546912,-9, 1, 0, -4, 10, -6, 2, -17
1503945546935,7, 2, 0, 2, -9, 15, 2, 9
1503945546949,-59, -6, -8, 2, 19, 5, 0, -5
1503945546972,36, -1, -1, -4, 3, -8, -2, 10
1503945546995,3, 0, 4, 2, -21, 3, 3, -2
1503945547010,-23, 12, 8, 1, -5, -16, 6, 13
1503945547032,24, 2, 1, -1, 8, -2, -3, -3
1503945547040,4, 3, 1, -3, 10, -5, 0, 8
1503945547062,20, 2, -1, -2, 2, -1, -8, -11
1503945547084,-5, 3, 3, 6, 13, -9, -1, -6
1503945547099,5, -1, -2, -3, -16, -5, 6, 5
1503945547121,14, 6, 5, -4, -8, 4, -1, 5
1503945547144,-9, 4, -5, -2, -2, -1, -2, -4
1503945547160,10, -15, -10, -6, 4, 6, 3, -13
1503945547175,11, -5, -3, -1, 3, 4, 0, -17
1503945547190,-67, -7, -11, -9, -29, -3, -6, 2
1503945547212,46, -5, 0, 1, -4, -1, 0, 12
1503945547234,4, 1, 2, 1, 17, 5, -4, -10
1503945547249,26, 5, 0, 2, -38, -16, -1, 5
1503945547272,-17, 6, 9, 4, 17, 38, -3, -22
1503945547295,3, -6, -8, -3, 11, 11, 8, 9
1503945547309,-12, 0, 2, 1, 2, -8, -2, 1
1503945547332,-39, -7, -3, 1, 22, 6, -7, -15
1503945547356,15, 10, 12, 0, 7, -6, 4, -11
1503945547369,-52, -10, -9, -8, 4, -1, -8, 19
1503945547384,-23, -12, -23, -6, -6, 5, -1, 4
1503945547406,-5, -9, -2, -4, 4, 9, 5, 8
1503945547422,14, -2, -2, 2, 20, 29, 4, -7
1503945547437,15, 1, 1, 0, -12, -6, -4, 1
1503945547460,6, 5, 2, 1, 6, -8, -2, 11
1503945547474,11, -1, -3, -1, 2, 1, 1, 5
1503945547497,-11, -12, -1, 0, 2, -2, 0, 16
1503945547512,-4, 6, -10, 0, 0, -10, -1, -2
1503945547527,86, 16, -14, -10, -14, -3, 2, 18
1503945547542,-34, 27, 31, 11, 6, 14, -2, -9
1503945547564,-24, -5, -8, -2, 19, -3, -7, -9
1503945547586,-12, 6, 4, -1, -9, 1, 3, 0
1503945547603,-1, -14, -12, -4, -2, -1, -3, -4
1503945547625,-39, -18, -4, 2, -3, -1, 2, 4
1503945547648,11, -10, -7, -2, 9, 0, -1, -5
1503945547666,-2, 9, 0, 5, -26, -11, -5, -19
1503945547684,-6, -12, -13, -8, 7, 2, -2, -12
1503945547706,20, -1, -2, 4, 23, 5, -1, 7
1503945547730,1, -5, 6, 0, 5, 11, 6, 13
1503945547744,25, -1, 0, -3, 14, -3, -1, -3
1503945547767,-12, -5, -12, -7, -10, -11, 1, -16
1503945547775,-4, 0, 2, 3, 11, -7, -3, -7
1503945547797,-4, 2, 7, 3, -1, 3, -2, 3
1503945547812,30, 13, -4, -7, -13, 0, 3, 24
1503945547835,-31, -8, -1, -1, -5, -3, -8, -38
1503945547859,4, 15, 1, -3, -2, 0, -9, -9
1503945547872,-18, 6, 1, 5, 11, -3, 7, 0
1503945547896,-7, -7, -2, 0, -6, -1, -4, -10
1503945547917,6, -4, -6, -3, 18, -9, -4, 7
1503945547941,19, -2, 3, 3, -2, -1, 0, 17
1503945547955,4, -2, -1, 0, 3, 5, 1, -28
1503945547977,-17, -6, -8, -7, -10, -5, -3, 1
1503945547994,-12, -9, -2, -2, -17, -1, -3, -9
1503945548014,-8, 1, -1, -1, 4, 4, 11, 22
1503945548037,49, 11, 7, 2, 7, 0, -1, -10
1503945548052,-12, 1, 0, 2, -1, -2, 0, 5
1503945548074,-81, -5, -2, -3, 3, 3, 1, -8
1503945548097,17, 2, -4, 1, -6, -41, 10, 27
1503945548112,25, -2, -2, -1, 1, 13, -1, -5
1503945548135,-33, 0, 5, 0, -2, 6, -7, -27
1503945548157,24, -22, 9, 2, -1, 5, -3, -10
1503945548172,18, -2, -7, -4, 8, 14, -6, -4
1503945548195,-13, -5, -13, -4, -4, -4, -5, -15
1503945548217,31, 2, 0, -1, -1, -3, 0, 15
1503945548239,-37, -14, -4, -1, -21, 21, 3, 12
1503945548254,-6, -2, -2, 0, 24, 16, 2, 9
1503945548277,-7, 3, 10, 3, 4, -8, -7, -2
1503945548292,-3, 6, -10, -8, -10, -16, 12, 13
1503945548314,38, 8, 0, 2, 8, -2, -4, -4
1503945548337,-3, 5, -3, 0, 29, -1, -3, -1
1503945548362,-10, 2, 2, 10, 34, -34, -1, -5
1503945548374,3, -7, -3, -12, -30, 2, -8, 3
1503945548397,-43, -8, 4, -1, -21, 2, -1, 5
1503945548419,-5, 7, -2, -1, -12, 0, 2, 10
1503945548434,9, -4, -4, 3, -6, 6, -4, -5
1503945548457,6, 7, 0, -4, -6, 14, 5, -10
1503945548479,1, -9, -3, 8, 2, -10, 1, 4
1503945548488,18, 10, -1, -3, -3, -8, -2, 0
1503945548510,-1, 3, -2, 0, 3, 11, 1, 10
1503945548525,-36, -8, -1, -7, -24, -5, -1, -6
1503945548547,-6, -5, -7, 0, 46, 0, -17, -22
1503945548570,-8, 11, 13, 4, -14, -8, 2, -7
1503945548585,-17, -5, -2, -1, -1, 0, 0, 2
1503945548607,17, -5, -1, 0, -2, 0, 0, -21
1503945548631,10, -4, -2, 1, 3, -1, 4, 36
1503945548645,-2, 2, 3, 2, -4, -2, 7, 14
1503945548668,-8, 1, 3, 2, 1, -7, -7, -4
1503945548690,11, -3, -3, -1, 5, 4, -1, 11
1503945548705,14, -4, -8, -4, 0, -4, -5, -43
1503945548727,-16, 3, -2, -3, -2, 3, 7, 3
1503945548750,-19, -6, -13, -6, -10, -8, -1, -2
1503945548766,-19, -12, -3, -1, 7, 4, -5, -19
1503945548779,26, 3, -2, -1, 14, -5, -5, -5
1503945548794,9, 1, 2, -6, -7, -5, 6, 22
1503945548817,-28, 7, 15, 1, 1, -9, -3, 2
1503945548839,7, -13, -10, -5, -12, -6, 1, -5
1503945548854,20, 0, -1, -4, -6, -12, -2, -3
1503945548877,1, -5, 1, 6, 10, -1, -2, -5
1503945548900,-11, 0, -5, 0, -1, 1, -13, -34
1503945548914,-6, 11, -1, -1, 3, 10, 12, -7
1503945548937,-29, -10, -6, -2, 2, -12, -9, 12
1503945548959,31, -3, 14, 8, 6, 8, 7, 11
1503945548975,2, -5, -8, -2, 9, -3, -5, 16
1503945548997,24, 12, -1, -2, -18, -1, 0, -2
1503945549019,-2, -8, -8, -7, -8, 4, 4, -8
1503945549035,2, 10, 3, 2, 15, -4, -2, -1
1503945549057,11, 12, -5, -1, 3, 11, 9, 43
1503945549079,-55, -14, 0, 1, -6, -17, 1, 4
1503945549094,93, 6, -12, -6, -1, -1, -4, -15
1503945549117,-4, -14, 0, 2, -7, -6, -4, -9
1503945549140,-25, -1, -4, -3, 4, 4, -5, -11
1503945549154,2, -3, -3, 2, -6, -11, 4, -3
1503945549177,-17, -1, 0, -6, -17, 2, -2, -11
1503945549201,-12, 0, 1, -1, 9, 1, 0, 1
1503945549214,-5, -18, 9, 7, 12, 1, 4, 2
1503945549237,-7, 0, -7, -7, 4, 3, -2, -4
1503945549259,-15, 2, -2, -10, -33, -24, -8, -8
1503945549282,13, -4, -5, -1, 2, 6, -3, 6
1503945549298,2, 7, 1, 1, -6, 9, -1, -14
1503945549319,-6, -5, 0, 4, 35, 3, -4, 0
1503945549342,7, 8, 1, 1, -10, 1, -1, 1
1503945549357,2, 9, 3, 2, 1, 7, 1, 8
1503945549379,25, 2, -1, -2, -1, 12, 8, 6
1503945549403,-15, -2, -3, 2, 0, -7, 0, -2
1503945549417,-5, -2, 2, 6, -14, 1, 0, -7
1503945549440,-13, -13, -14, -10, -14, -9, -8, -21
1503945549462,4, -8, -1, 0, 7, -21, 0, 9
1503945549477,13, 2, 4, -1, 5, 7, -2, -11
1503945549499,36, 8, -1, 4, -4, 3, 4, 0
1503945549522,-2, 8, 2, 11, 7, 25, 3, 17
1503945549537,15, 6, 7, -1, 5, -5, -6, -29
1503945549559,-8, 10, 4, 3, -3, -16, -12, -23
1503945549567,-4, 3, 2, 1, -4, 1, -7, 9
1503945549590,-11, -3, -2, 8, 25, 6, 5, -10
1503945549614,-36, 4, 3, -5, 2, -3, -4, -9
1503945549620,-47, -7, 4, 1, 33, 50, 7, -2
1503945549642,4, 0, -1, -2, -3, 12, -4, 22
1503945549657,17, 7, -9, 0, -2, -23, 6, 7
1503945549680,-32, -18, -8, 0, 5, 14, -3, -15
1503945549702,-69, -7, -9, -3, -5, -16, -4, -17
1503945549717,5, 12, 14, -4, -13, -21, -1, -15
1503945549740,-20, -20, -11, -4, -4, -15, -9, 11
1503945549762,52, 9, -7, -2, -1, -3, 3, -1
1503945549773,15, -18, -13, 6, -11, -44, -1, -11
1503945549792,-1, 13, 8, -3, 3, 19, 5, -2
1503945549809,-4, -5, -14, 1, 5, 4, -6, -1
1503945549830,22, 27, 22, 2, -21, 5, 1, 7
1503945549852,-1, -8, 8, -3, -1, 3, 2, 3
1503945549867,10, -6, -12, -7, 4, 5, -1, 3
1503945549890,-23, -21, -14, -6, -2, -5, -5, -1
1503945549912,20, 4, -3, -4, -3, -5, -4, -2
1503945549927,-25, -21, -14, 6, 16, 7, 0, -10
1503945549950,26, -1, -4, -2, -3, 8, -6, 4
1503945549975,-8, -9, 4, 0, -26, 4, 2, 12
1503945549988,-23, -10, -19, -7, 1, -3, 1, -3
1503945550010,48, 9, -3, 2, 9, -5, -4, -6
1503945550032,-8, -7, 1, -1, 3, -2, 4, 4
1503945550047,4, -5, 1, 5, 15, 2, 3, -4
1503945550070,23, 0, 13, -1, -7, -1, -1, -27
1503945550092,-11, 7, -3, -4, -5, -7, -3, 16
1503945550108,8, -1, 3, 1, 4, 0, 1, 2
1503945550130,-17, -3, -1, 1, -2, -1, -3, 1
1503945550152,-15, 1, -4, -1, 6, 20, -3, -1
1503945550167,7, -4, -7, -7, -5, -1, -2, -3
1503945550190,-9, -8, 3, 2, 0, -14, -1, 0
1503945550213,3, -2, -2, 1, 9, -2, 0, -2
1503945550234,4, 4, 3, -1, -6, -1, -1, 1
1503945550251,-13, 5, 12, 4, -1, -7, 1, -1
1503945550272,-10, -3, -4, -4, 24, 22, 3, 0
1503945550294,7, -2, -1, 0, -3, 2, -2, 8
1503945550311,-30, 1, -6, -5, -11, -14, -8, -12
1503945550332,-13, 6, -6, -5, -12, -3, -5, -11
1503945550357,8, -3, 2, 2, -1, -9, -2, -6
1503945550370,-53, -6, 0, 1, -2, 0, 3, -5
1503945550392,19, -8, -4, -2, -30, 0, 3, -6
1503945550414,9, 3, 2, 3, -2, -3, -1, -1
1503945550430,63, 3, 4, -3, 4, -5, 2, 10
1503945550453,-12, -5, -9, -5, 3, -32, -5, 11
1503945550474,-5, -4, 3, -1, 0, 8, -2, -1
1503945550490,20, 11, 3, 2, -19, 1, 2, 1
1503945550513,4, -19, -13, -1, 8, 11, -10, -8
1503945550534,0, -7, -4, -6, -6, -8, -5, 11
1503945550557,-12, 2, -2, -2, 7, -7, -2, -8
1503945550572,-14, -5, -4, -3, -4, 1, 0, -2
1503945550594,22, 6, 0, 1, 21, 8, 13, 5
1503945550614,3, -8, -10, -5, -4, 2, -1, -8
1503945550632,-62, -10, -6, -3, -2, -10, -8, -14
1503945550654,-4, 9, -1, -10, -31, -2, -4, 8
1503945550670,-20, -11, 2, -3, 0, -3, -8, -11
1503945550692,-29, 5, -3, -1, 5, -1, 0, -2
1503945550715,-15, -17, 5, 3, 8, 7, -1, -4
1503945550730,21, 0, -3, 0, -2, 1, 10, 17
1503945550752,-38, 6, 5, 7, 10, -2, 6, 8
1503945550774,85, -6, 0, 3, 4, 0, 0, 10
1503945550790,24, 26, 1, 3, 0, -2, -13, -41
1503945550816,-17, 6, 2, 0, 3, 9, 4, -3
1503945550834,0, 3, -3, -2, -1, 3, 6, 11
1503945550850,-11, -2, 3, 7, 2, -5, -7, -14
1503945550872,-36, -13, -8, -4, -1, -8, -3, -2
1503945550894,77, 6, 1, 0, 2, 10, 4, 51
1503945550910,-9, 2, 3, -1, -2, -1, 3, -3
1503945550933,5, 2, 11, -3, -1, 7, 3, -2
1503945550955,1, 4, 7, 1, -2, -2, -3, -5
1503945550970,9, -3, -6, -2, 2, 0, 0, 2
1503945550993,0, -5, -7, -3, -5, -3, 3, -3
1503945551015,-26, -8, 0, -2, -1, 1, -5, -10
1503945551030,6, 10, 2, -4, -4, -43, -1, 6
1503945551052,-55, 4, 3, 2, 1, 10, -1, -8
1503945551075,29, 6, 1, 1, 2, 13, -2, 5
1503945551090,1, -9, -7, -2, 9, 1, 2, 5
1503945551116,23, -14, -6, -1, -7, -2, -2, -18
1503945551134,7, -2, 1, -1, 4, 28, 2, 3
1503945551157,4, 1, -4, -3, 2, 6, 1, 1
1503945551172,-3, 3, 0, -2, -6, -11, -7, -10
1503945551194,12, 0, 0, -1, -6, -3, 0, 0
1503945551217,-6, -2, 0, -1, 1, -4, 1, 3
1503945551232,29, -6, -11, -2, -2, -1, 3, 4
1503945551255,-16, -4, 2, 0, -5, -41, -4, -2
1503945551277,-8, -1, 1, 0, 3, 8, 0, -7
1503945551292,-8, 2, -2, 0, -11, 4, -2, 3
1503945551316,6, 5, 6, 2, 3, 4, 1, -3
1503945551337,-23, 0, -1, 2, -7, -4, -3, 3
1503945551352,41, 4, -8, -4, 2, 8, 0, 3
1503945551374,-12, -4, -1, -1, 0, -2, -7, 0
1503945551397,-1, -3, 1, -3, 4, 3, 2, 1
1503945551412,-8, -3, -1, 3, -3, 3, -2, 0
1503945551434,-2, -2, -2, -5, -4, -4, -1, 3
1503945551457,-10, -6, -2, -1, 4, 1, 0, -1
1503945551472,-4, 0, -2, -2, -3, -1, 4, 5
1503945551494,19, 4, -1, -3, -1, 2, -1, -3
1503945551518,-10, 1, 6, 2, -20, -5, -6, -1
1503945551532,10, 2, -4, -3, 2, 4, -1, -6
1503945551554,-9, -4, 2, -1, 7, 1, 0, -3
1503945551577,-13, -4, -6, 3, 3, -2, 0, 1
1503945551592,22, 0, -3, -3, -3, 0, 2, 28
1503945551606,-4, -3, -5, -5, -4, -7, -7, -11
1503945551622,3, -2, -7, -4, -1, 9, 4, 8
1503945551644,-12, -5, 4, 5, 1, 1, 3, 12
1503945551666,27, 2, -5, -1, 1, -7, -1, -5
1503945551682,14, 6, 9, 4, 1, -4, 3, 34
1503945551704,-1, -1, 7, 3, 2, 0, 0, 2
1503945551726,-10, -6, -8, 6, 17, 16, 0, -14
1503945551742,0, -3, -3, -6, -13, 3, -2, -11
1503945551764,0, 0, 3, 3, -1, -6, -4, 0
1503945551788,2, 1, -4, 2, -3, -1, -2, -7
1503945551802,5, 1, 1, -1, -2, -4, -1, 3
1503945551825,-14, 3, 5, 0, -1, -7, 1, 1
1503945551846,13, 3, -3, -8, 0, -2, 0, -1
1503945551862,1, -1, -2, -9, -7, 5, 1, -6
1503945551884,10, -5, -9, -3, 0, -4, -3, 0
1503945551914,11, 0, 2, -3, 0, 1, 1, 1
1503945551916,17, 6, -1, -4, -3, 5, 2, 0
1503945551937,-12, 1, 4, 2, 4, -13, 2, -6
1503945551955,-44, -4, -9, -9, -5, 1, 1, 2
1503945551974,54, 4, 1, 2, 3, 4, -3, 3
1503945551997,2, -2, -3, 4, -4, 1, 1, -4
1503945552013,-5, -1, 2, 5, 3, 13, -3, 0
1503945552034,5, 4, 5, 1, 2, -3, 1, -3
1503945552057,-2, -7, -6, -6, -3, -4, -3, -1
1503945552079,11, 5, 10, 8, 4, -4, -1, -12
1503945552094,-15, 0, -2, -3, -4, -1, 1, 2
1503945552117,14, -5, -12, -8, -5, 2, 1, 12
1503945552139,-22, -11, -9, -2, -2, 0, -1, -7
1503945552155,24, -2, -4, -1, 1, 14, 2, -12
1503945552169,1, 0, 15, 4, 2, -2, -1, 6
1503945552184,14, -3, -10, -3, -2, -8, 1, -6
1503945552206,-2, 2, 5, 2, -1, -4, -3, -8
1503945552229,22, 6, -3, -2, 0, -4, 0, 11
1503945552244,16, 0, -5, -2, -4, -4, 0, 1
1503945552266,-2, 2, 3, -2, -1, -3, 2, 12
1503945552289,-2, 1, -8, -6, -15, -3, -3, -6
1503945552304,-4, -3, 3, 15, 16, 3, 0, -9
1503945552326,3, -1, -5, -9, -9, -4, -2, -8
1503945552349,0, -2, -3, -2, 2, -1, -1, -18
1503945552365,-2, -2, 0, -3, 16, 0, -2, -8
1503945552386,11, 3, 9, 52, 54, -23, 0, 11
1503945552408,5, -1, -2, -15, -26, 9, -2, 1
1503945552424,-23, -6, -4, -10, -12, 0, -6, -29
1503945552446,-57, -9, -6, -2, -10, 0, -2, -14
1503945552469,9, -2, -1, 5, 22, 7, 6, 2
1503945552484,18, 5, -3, -15, -21, 0, -3, 13
1503945552506,30, 9, -2, -4, 1, 1, -2, 2
1503945552536,7, 29, 46, 8, 0, -1, 0, -11
1503945552544,9, -8, -6, -8, -7, -1, -6, -3
1503945552567,6, 5, 3, 0, 3, -2, -11, -12
1503945552589,-16, -9, -9, -2, 5, -5, 1, 3
1503945552604,-2, 9, 13, 3, 12, 2, -3, -3
1503945552619,-3, -1, -3, 0, -1, 0, -1, -2
1503945552635,-16, -3, -7, -2, -7, -3, -12, -19
1503945552659,6, 2, 0, -1, -27, 0, 4, 4
1503945552679,2, -1, -5, 6, -15, -2, 0, 1
1503945552695,3, 6, 4, -2, 0, 2, 0, 1
1503945552717,11, 3, 3, 1, 17, 1, 1, 6
1503945552739,9, -2, -10, -8, 13, 3, 6, 8
1503945552754,-4, -8, -8, -7, -10, -6, -1, -1
1503945552777,-3, -8, -5, 2, 19, 1, -3, -3
1503945552800,1, 0, 2, -2, -14, -2, 0, 1
1503945552815,-1, 14, 13, 8, 10, 2, 2, -3
1503945552837,-16, -12, -5, -8, -33, -5, -5, -7
1503945552860,6, -4, -1, -2, 11, 3, 4, -2
1503945552874,-4, 0, -6, 13, 50, 0, 0, 1
1503945552898,4, 9, 17, 2, -19, -3, -4, -3
1503945552919,7, 16, 6, 0, 0, 0, -2, 6
1503945552934,4, 0, 4, -2, -3, 2, -1, -10
1503945552957,-19, -15, -10, -9, -23, -3, -4, -4
1503945552979,-13, -4, -5, -9, -14, -3, 2, 2
1503945553003,16, 3, -11, 4, 19, 3, 5, 3
1503945553017,16, -13, -14, -6, -3, 3, 2, -4
1503945553039,7, 4, 5, 1, 2, -4, -3, 3
1503945553062,-14, -15, -2, 2, -4, -3, -1, 3
1503945553077,-47, 0, -4, -5, -8, -1, -3, -10
1503945553100,9, 10, 10, 2, 0, 3, -2, 41
1503945553122,-31, -10, -3, 1, 0, 14, -3, -15
1503945553138,38, 22, 17, 4, 0, -3, 3, 32
1503945553159,-14, 12, 4, 0, 3, -4, -3, -8
1503945553182,22, 0, -8, -4, -11, -5, -6, -28
1503945553197,3, 6, -8, -5, 2, -1, -1, -8
1503945553219,-2, -14, -8, -8, -17, -6, -2, -2
1503945553242,5, 5, -11, -6, -2, 0, -2, -10
1503945553257,-4, -14, -8, -1, 9, -1, 2, -1
1503945553273,11, -2, 16, -3, -6, -8, 1, -1
1503945553304,8, -2, -4, -12, -7, 1, -1, -1
1503945553317,8, 2, 7, 14, 39, -1, -7, -7
1503945553341,2, 2, 0, -7, -22, -3, 3, 6
1503945553372,-2, -4, -6, -1, 5, 7, 2, 7
1503945553377,10, -9, -4, 8, 16, 1, 1, -2
1503945553399,-10, -10, -14, 3, 12, 5, 5, 5
1503945553422,-36, -9, 3, 1, 30, 2, -2, -5
1503945553437,34, -1, 2, -5, -26, -6, -1, 2
1503945553459,-9, -17, -11, -3, -10, -26, -1, -7
1503945553482,-21, -26, 4, -1, -16, 1, -2, -7
1503945553498,27, 7, -4, -1, -46, 6, -1, 1
1503945553519,54, 11, 2, -4, -7, -1, -1, 7
1503945553542,2, 9, 13, 11, 19, 4, 0, -1
1503945553557,-19, -7, -7, 0, 5, 3, -3, -8
1503945553579,21, 10, -2, -1, -9, 12, -3, 5
1503945553602,13, 5, -3, 1, 22, 7, -3, -2
1503945553617,-65, 9, 27, 12, 2, -5, -3, -25
1503945553639,-14, -5, -17, -9, -2, -8, 0, -11
1503945553662,18, 2, -6, -3, -5, -6, 5, 7
1503945553677,12, -1, -7, -5, -6, -20, -11, 5
1503945553699,-23, -13, 0, -3, 3, 10, -6, -65
1503945553721,-8, -1, 1, -1, 2, 1, -2, 12
1503945553737,30, 6, -7, -5, -2, 1, 7, 25
1503945553759,3, -2, -5, -1, 1, -3, -2, 6
1503945553782,-10, -5, -7, 4, 1, 2, -2, 12
1503945553797,2, 1, 4, -4, -11, 2, 8, 13
1503945553819,-16, 7, 0, -2, 5, -1, 1, -2
1503945553842,-7, 11, 0, 0, 23, 14, 3, 6
1503945553857,-4, -1, 19, 7, -10, -7, -1, 1
1503945553880,-25, 2, -7, 3, 21, 11, 0, 0
1503945553904,14, 4, -15, -1, 9, -4, 7, -2
1503945553917,-6, -17, -15, -7, -7, -5, -5, -1
1503945553939,0, -12, -10, -4, -16, -6, -2, 5
1503945553962,-17, 4, 2, -3, -15, 0, -2, 0
1503945553985,8, -6, -1, -12, -13, -4, -2, -11
1503945554015,-8, 11, -3, -3, -2, 4, -4, -3
1503945554030,-10, -8, 4, -1, -14, -3, -1, 4
1503945554052,6, -1, 0, 9, 30, 0, 0, 1
1503945554075,8, 1, -7, -9, -28, 4, 0, -7
1503945554090,1, 8, -8, -8, -19, 2, 3, 2
1503945554112,38, 1, 4, 2, 3, -3, 1, 5
1503945554137,-15, 7, 5, -2, -4, -6, -8, -2
1503945554150,19, 2, 1, 0, 15, -2, -2, -42
1503945554172,-24, -20, -7, -8, -20, -11, -8, 2
1503945554195,-19, 8, 1, 3, -1, -4, 4, 48
1503945554210,-5, -12, -7, -3, -3, 1, 5, 17
1503945554232,-5, -1, -6, 1, 2, 5, 2, -15
1503945554240,0, -5, -1, -4, -5, 0, -2, 15
1503945554262,-16, 5, 12, 2, 4, 2, -7, 14
1503945554284,7, -6, -6, -6, 1, 4, 6, 15
1503945554299,5, -1, -2, 0, 3, 10, 4, -10
1503945554321,4, 1, -6, 0, 0, 3, 1, 5
1503945554344,-5, 14, 20, 4, 3, -1, -1, -25
1503945554359,2, 2, -21, -4, -5, 8, 0, 20
1503945554382,-6, -7, -13, -6, 3, 18, 8, -1
1503945554405,1, -5, -3, -1, -4, 7, -5, -8
1503945554435,-11, -5, 2, 0, -3, -1, 0, 8
1503945554450,-4, -4, 3, 0, 6, 1, 2, 9
1503945554473,62, 11, -4, 0, 2, 5, -3, 5
1503945554495,18, -4, -9, -1, 3, -1, 6, 46
1503945554517,-15, -6, 4, 1, -3, -5, -4, -3
1503945554532,-11, 2, 9, 5, 1, -1, 2, -4
1503945554555,-11, -2, -5, -1, -7, -2, 0, -2
1503945554570,-32, 3, 6, 0, 5, 1, -2, -16
1503945554593,35, 19, 2, -1, -7, -1, 2, 0
1503945554615,1, -11, -5, -4, -3, -3, 2, 1
1503945554630,-20, -9, -4, -3, 0, 5, -2, 26
1503945554652,-11, -7, 1, 2, 6, -15, 0, -14
1503945554675,14, -4, -3, 3, -23, 0, -2, -9
1503945554690,-3, -14, -10, -6, 7, 0, -3, -10
1503945554713,-57, -4, 0, 1, 7, 0, -1, 1
1503945554735,14, 6, 2, 3, 4, 4, 3, -11
1503945554750,-15, 3, 8, 1, 5, 2, -1, -22
1503945554774,-30, -1, 1, -1, 0, 0, -3, -1
1503945554794,12, 6, 1, -3, 6, 7, 7, 7
1503945554810,-31, -10, -1, 0, -5, -5, -5, -37
1503945554832,1, 4, -3, -3, 2, 6, -1, -3
1503945554855,15, -3, 0, 1, -6, 4, 4, 24
1503945554877,28, 8, 12, -5, 0, -5, -2, 1
1503945554892,-17, 10, -18, -9, -4, -9, -2, -12
1503945554915,7, -13, -9, -1, -6, 0, 1, 1
1503945554937,11, 5, 4, -4, 16, -2, -1, 9
1503945554952,10, 11, -4, -6, -13, -3, 0, 13
1503945554977,-29, -36, 26, 13, 3, -1, -2, -4
1503945554997,13, -3, -14, -2, -4, -2, -1, 6
1503945555013,6, -7, -7, -3, -6, 2, -3, -1
1503945555035,-5, -12, -10, 10, 11, 19, 1, 2
1503945555043,2, -11, -10, -4, -3, -2, -1, -4
1503945555064,-13, 0, -1, -4, -3, 1, -6, -21
1503945555087,5, -5, -8, 1, 5, -6, 8, -12
1503945555102,22, 0, -3, 0, 0, 4, 3, 7
1503945555124,6, 0, -9, -3, -1, -3, -7, 1
1503945555147,-26, 7, 9, 2, 4, 0, -7, -18
1503945555161,38, 10, 2, 0, -1, -1, -1, 7
1503945555185,-10, 1, 0, 0, -1, -3, 5, 4
1503945555207,-8, -10, -11, -3, 2, -1, 0, 11
1503945555222,3, -9, -7, -1, 0, 2, 1, 7
1503945555245,-12, 10, 10, 1, -7, -7, -5, -4
1503945555267,-10, -1, 1, -3, -17, -3, -3, -5
1503945555282,52, 2, -7, -2, 1, -1, -9, 25
1503945555305,-17, 2, -7, -1, 5, -2, 3, 5
1503945555327,-31, -6, 3, -1, 14, -3, -3, -30
1503945555345,-17, 1, 2, -2, -12, -2, -5, -14
1503945555365,15, 4, 7, 2, 4, 2, 5, -13
1503945555387,10, -5, -3, 1, 2, 5, 3, 0
1503945555402,-20, -1, -2, -4, -3, -5, 3, 11
1503945555424,-11, -2, -9, 1, -2, 6, -1, -5
1503945555448,20, 5, 10, 2, 5, -1, 0, 8
1503945555462,-4, -6, -1, -2, -12, -5, -4, 4
1503945555484,-9, 4, -7, -1, 7, 6, 3, 24
1503945555507,17, -2, 6, -1, -2, -5, 2, -1
1503945555522,28, 13, 5, 4, 0, 8, 0, -6
1503945555546,3, -15, -9, -7, -6, -4, -5, 10
1503945555567,-49, 1, 0, 0, 1, -1, 1, -22
1503945555585,-10, -14, -10, -6, 3, -3, 2, -4
1503945555604,-8, -13, -14, -5, -4, -4, -6, -18
1503945555627,8, 10, 9, 1, 10, 1, 0, 3
1503945555642,3, -21, 27, 21, 8, 1, -2, -2
1503945555664,33, 30, 20, 2, 2, -3, -2, 5
1503945555688,-5, 4, -5, 3, -12, 5, 1, 9
1503945555703,-5, 5, -12, -4, 0, -1, -12, -32
1503945555724,23, -9, -8, -6, -9, -11, -2, 31
1503945555747,9, 8, 4, -2, -5, -1, 2, 0
1503945555762,-19, 17, 8, -3, 3, 0, -3, -8
1503945555784,-11, 7, -18, -7, 3, 3, 1, -4
1503945555806,-4, -7, -1, 0, 0, -2, 2, 2
1503945555829,-31, -18, -7, -4, -7, -15, -6, -19
1503945555844,-1, -7, -2, -2, 2, 3, 1, 3
1503945555867,13, -3, -7, -3, -3, 1, 0, 3
1503945555889,20, -6, -7, -4, -3, -3, -5, 0
1503945555904,28, 3, -2, -2, 0, 6, -2, -9
1503945555927,61, 4, 4, 2, 2, 28, 6, 65
1503945555949,-82, -2, 12, 2, 1, 0, -1, -27
1503945555964,-43, -14, -6, 2, 2, -4, 0, 6
1503945555987,13, -6, -13, -4, 1, -5, 10, 18
1503945556008,-15, 8, 10, -4, -7, -8, 1, -12
1503945556024,0, 3, 6, 6, 5, -2, -3, -14
1503945556049,1, 3, -7, -6, 1, 21, 0, -32
1503945556068,4, 5, 8, 0, -1, 9, 9, 15
1503945556086,0, -20, -14, -2, -8, -12, -3, 2
1503945556106,12, -4, -10, -3, -2, -9, -6, -19
1503945556128,6, 1, -6, 0, -1, -7, -2, 2
1503945556144,-14, -7, -7, -1, 2, -2, -3, -1
1503945556167,7, -3, -6, -2, -1, 0, -4, -1
1503945556196,53, -5, -5, -1, -5, -13, -12, 0
1503945556211,-32, 1, 8, 16, 4, 3, 6, 7
1503945556227,-1, 12, 22, -1, -9, 1, 3, 1
1503945556251,-70, -5, 0, -1, 1, -2, -1, -8
1503945556264,8, -1, -4, 2, 7, 27, 3, -3
1503945556279,15, -1, 4, 0, -5, -4, -1, -6
1503945556295,0, -2, -2, -1, 1, -1, 2, 5
1503945556318,3, 0, 0, 4, -8, 2, 2, 8
1503945556339,4, 4, 7, 0, 6, -2, -3, 2
1503945556358,26, -10, -13, -2, 3, 2, 6, 7
1503945556377,15, -1, -4, -4, -3, -9, -7, -34
1503945556399,-9, 1, 2, 3, 10, 5, -5, 6
1503945556415,-29, 12, 21, -2, -5, -2, 1, 12
1503945556437,7, -19, -13, -4, -4, 2, 3, 3
1503945556459,-18, 0, -1, 2, 6, -2, 0, -11
1503945556475,2, -1, -1, -2, -6, -3, 2, 0
1503945556503,-19, 5, 2, 1, -1, 4, -1, -1
1503945556520,-47, -12, -16, -6, -1, 2, -1, -8
1503945556535,9, 5, -3, -3, 39, -6, -4, 2
1503945556557,14, -1, 1, -3, -13, -2, -3, -1
1503945556579,14, 15, 6, 8, 1, -1, 3, 0
1503945556595,-26, -18, -18, -8, -13, 0, -2, -10
1503945556616,19, 3, 4, 0, 2, 2, 2, 9
1503945556639,18, -8, -3, 2, -13, -3, 0, -1
1503945556655,15, -10, -7, -6, -2, -5, -1, 9
1503945556677,24, 1, 4, 0, -3, 1, 1, 17
1503945556699,-10, 0, -3, 3, -3, -2, -3, -8
1503945556714,49, 0, 3, 0, -4, -2, -2, 19
1503945556736,29, 5, -2, -2, -4, -42, -2, -5
1503945556759,-31, -7, 10, 1, 1, 10, -2, -13
1503945556782,-85, 7, -4, -1, -3, 5, -3, -19
1503945556797,-46, -2, 5, 3, -2, -6, 1, 6
1503945556823,13, 6, 0, 5, 3, 6, -6, 6
1503945556842,4, -16, -2, -1, 2, 8, 1, -7
1503945556857,6, -13, 11, 2, 2, 3, 1, -14
1503945556879,-24, -3, -9, -6, -5, 2, 2, -1
1503945556901,13, 18, 6, -2, -2, 7, 0, -2
1503945556917,0, -10, -8, -3, -1, 1, -1, 2
1503945556939,12, 6, -4, 0, -2, 0, -4, -8
1503945556962,19, -4, -6, -2, -1, -3, 2, -6
1503945556978,-17, -8, -4, -1, -2, -3, -5, -27
1503945556999,1, 6, 1, -1, -1, 2, 1, 11
1503945557023,-2, 10, 3, -1, 2, -2, 0, 0
1503945557037,-11, -4, 4, 2, 1, 1, 2, 5
1503945557059,32, -26, -16, -8, -1, -1, -2, -1
1503945557081,-7, 11, 5, 2, 1, 3, 5, 16
1503945557097,9, 3, -4, 2, 1, -7, 2, 12
1503945557119,9, -1, 1, 0, 2, 7, -5, -4
1503945557141,1, 8, 9, 0, -2, -6, -8, -10
1503945557158,-1, 4, 1, 0, -2, -2, 6, 28
1503945557179,-36, 1, 0, 2, 21, -1, 1, -12
1503945557202,16, -1, -8, -1, -11, -5, -4, -5
1503945557217,-7, -12, -14, -11, -9, 3, 2, 2
1503945557239,14, 0, 0, 4, 4, 19, -4, -15
1503945557262,-9, 5, -6, -7, -4, 3, -2, 5
1503945557277,-14, 1, 3, 7, -3, -5, -3, -10
1503945557301,46, 1, 3, 1, -1, -6, 1, 2
1503945557322,3, -6, -7, 0, 1, -2, 2, 3
1503945557331,-1, 3, -2, 0, -2, -4, -6, -10
1503945557351,-8, -2, -5, -5, 5, 2, -1, -20
1503945557368,-8, -7, -5, 1, 20, -2, -6, -11
1503945557389,-22, 2, 10, 3, -1, 4, 1, 2
1503945557412,37, 0, -9, -9, -11, -4, -1, 0
1503945557428,18, 1, 9, 5, 1, 7, -2, -7
1503945557449,0, 2, 1, -1, -4, -4, 4, 11
1503945557471,-25, -8, -10, -7, 7, -4, 0, -7
1503945557487,4, -6, -4, -3, -12, -29, 4, 21
1503945557509,-6, -3, -2, 0, 0, 6, -1, 0
1503945557531,-8, 5, -2, 2, 0, 14, 4, 0
1503945557546,-17, -7, -1, 0, -1, -5, -8, -18
1503945557569,13, 7, 2, 3, 0, 2, 1, 33
1503945557591,-25, -11, -1, 0, -1, 5, -1, 1
1503945557606,-14, 0, 0, 2, 0, 0, -6, -10
1503945557621,-6, -10, -8, -3, -4, -1, 4, 4
1503945557637,15, -4, -13, -9, -7, -21, 4, 26
1503945557660,-42, -11, -10, -6, -5, 7, -2, 2
1503945557681,28, 5, 1, -2, -1, 2, -1, 10
1503945557704,20, 16, 23, 15, 6, 0, -4, -7
1503945557719,-6, -5, -1, -1, -2, 3, 6, 3
1503945557741,-4, 9, 14, 11, 9, 0, -9, -11
1503945557764,-8, -8, -10, -7, -2, 1, 0, -4
1503945557779,-36, -8, -7, -3, -4, -5, 0, -15
1503945557802,-13, -11, -11, -5, -3, 1, 1, -22
1503945557824,12, 11, 12, 0, -2, 2, 3, 11
1503945557839,23, -11, -7, 0, -1, 2, 1, 2
1503945557863,2, -2, -2, 0, -3, -4, -1, 2
1503945557870,9, -10, -9, -4, -2, 3, 1, -16
1503945557891,-17, -4, -7, -3, -2, 3, -2, 2
1503945557913,2, -6, 0, 0, 1, 6, -3, -7
1503945557930,2, 9, 14, 9, 7, -8, -6, -5
1503945557951,4, 1, -7, -8, -4, -2, 2, 0
1503945557973,-5, -2, -6, -2, -19, -5, -5, -27
1503945557989,8, 29, 6, 0, -1, 1, 1, 2
1503945558011,-36, -11, -2, -5, -1, 1, 1, 2
1503945558034,19, -4, -9, -1, 9, 1, 5, -20
1503945558049,-5, -2, -1, -3, -7, -36, -2, 17
1503945558073,-12, -9, -3, -2, 9, 11, 0, 59
1503945558098,27, -1, -3, 9, 10, 3, 0, -22
1503945558117,6, 3, 5, 11, 15, 4, 0, -7
1503945558132,-2, -2, 2, 3, -2, 1, -1, -1
1503945558154,-35, 17, -7, -2, -1, -7, -3, 30
1503945558162,-34, -7, -6, -1, -17, 1, 2, -8
1503945558185,-6, -1, 4, 2, -10, 0, -1, 4
1503945558199,-2, 4, -6, 3, 10, 1, 2, 3
1503945558221,-40, 6, 3, 0, 14, -5, 1, 4
1503945558244,-25, -9, -1, 4, 0, 4, -3, -7
1503945558260,19, 3, -2, -1, 5, -1, 1, 8
1503945558275,13, -2, -4, -1, -7, -7, -1, -11
1503945558298,5, 1, 0, -6, -15, 1, 1, 2
1503945558305,20, -2, 0, 3, 8, 1, 0, -2
1503945558319,3, -5, 11, -3, -1, -5, 0, 4
1503945558335,-1, -11, 11, 2, -13, -3, 2, 8
1503945558357,9, -1, -6, -6, -12, -4, 0, 0
1503945558373,3, -4, -7, -3, 5, -1, -1, 1
1503945558394,11, -7, -2, 0, 6, 1, -3, -7
1503945558402,69, -1, 0, 0, -1, -1, 0, 37
1503945558424,-6, 1, -7, -3, -2, -1, 1, -5
1503945558439,-21, -1, -1, -3, -5, -1, 0, -1
1503945558455,-14, -1, 5, -3, 4, 0, -2, -3
1503945558477,-18, -2, 4, 2, 0, 0, 1, -1
1503945558492,1, -7, -6, 0, -10, -2, -1, -5
1503945558515,1, -2, -1, -6, -6, 1, -7, -9
1503945558537,10, 4, -2, 0, 0, -3, -5, 6
1503945558552,9, -7, -5, 1, 14, 2, 0, -3
1503945558575,-6, -1, -10, -2, -2, -3, 0, -3
1503945558597,22, -1, 11, 2, -5, -1, -1, 5
1503945558612,14, 5, 7, 1, -9, -3, 0, 5
1503945558635,-12, 5, 1, -2, -4, -1, 7, -1
1503945558657,-11, -4, 2, 3, 17, -5, 0, -4
1503945558673,21, 4, -3, -5, -11, -2, -4, -4
1503945558695,-12, -3, 1, 1, -2, 3, -4, -8
1503945558717,-1, -4, -2, -1, -1, -2, 5, 5
1503945558735,8, 4, 0, -4, -5, 2, 0, 6
1503945558754,3, -1, -6, 11, 27, 4, 0, -5
1503945558777,-11, -3, -1, -6, -9, -3, -2, -2
1503945558792,-17, -2, -1, 1, -3, 2, -3, -9
1503945558815,-3, -1, -1, -1, -2, -4, 0, 8
1503945558839,-6, 0, -3, -4, -21, -2, 0, -3
1503945558853,-2, -6, -4, -3, 12, 1, -4, -4
1503945558875,-13, -14, -6, 0, -6, -2, -1, -6
1503945558882,4, 11, 16, 4, 1, -1, 0, 12
1503945558905,-6, -1, -2, 1, -2, 0, -1, 2
1503945558926,-7, 2, 0, -1, -6, -2, 1, 1
1503945558936,9, 2, 4, 14, -9, 12, 2, 2
1503945558957,24, 5, -4, 1, 15, 6, -1, 1
1503945558972,7, -3, 8, 2, -2, -11, -5, -4
1503945558994,-6, 0, -7, -3, 1, 5, 5, 5
1503945559017,6, 2, -2, -8, -5, -2, -2, 4
1503945559032,-8, -11, -2, 3, -9, -5, 1, -1
1503945559047,5, -7, -2, 4, -8, -13, -2, -9
1503945559062,-8, 4, 19, 5, 11, 6, 2, -4
1503945559084,-13, -7, 1, 2, 5, 2, -1, 2
1503945559107,1, 11, 5, 4, -5, 0, -5, 0
1503945559121,-5, 1, -7, 0, -5, 3, 2, 0
1503945559146,-10, -4, 2, 5, 24, 8, 1, 5
1503945559166,11, 1, -10, -11, -10, -24, -1, 8
1503945559181,13, -2, -4, -6, -11, 5, -2, -4
1503945559205,0, 1, 3, 3, -7, -1, 1, -13
1503945559226,8, 1, 2, 0, 1, 1, -4, 3
1503945559242,-13, -2, -1, 0, -1, 1, 0, -1
1503945559264,-1, 1, 2, 1, 0, 6, 0, 6
1503945559287,-4, 2, -2, -4, -7, 1, 0, 3
1503945559301,-2, -7, -2, 1, -6, -2, 3, -1
1503945559324,5, 0, -5, -5, -11, 13, 4, 2
1503945559347,1, 3, 25, 7, 11, 6, 2, 0
1503945559362,-15, 0, 1, 7, 3, -7, -3, 0
1503945559384,-19, -4, -7, -5, 5, -5, -3, -7
1503945559400,-7, 5, 2, 13, 16, 1, 1, 0
1503945559415,-4, -9, 0, -1, -3, 5, -3, 4
1503945559441,1, -2, -2, -1, -3, -5, 2, 6
1503945559452,-7, -5, 0, -4, -6, -1, 2, -2
1503945559474,0, -1, -2, 0, -18, -2, -1, -2
1503945559497,-5, 0, -2, -2, 13, 3, 4, -6
1503945559519,4, 5, -1, -4, -9, -35, -8, -4
1503945559542,6, 1, -5, -6, -11, 10, -3, 1
1503945559557,0, -6, -4, 2, 5, 6, 3, 4
1503945559579,0, 4, 4, 3, -8, 6, 3, 3
1503945559594,0, 1, -6, -6, -2, 2, -3, 0
1503945559617,-2, -2, -4, -1, 7, 5, -4, -7
1503945559643,4, 5, 7, -6, 20, 0, 4, 5
1503945559655,-5, -3, -7, -3, -18, -2, 0, -1
1503945559677,-18, 2, 1, 1, 6, -7, -4, -2
1503945559699,-8, 0, 6, 5, 1, -5, -5, -8
1503945559716,10, 18, 7, -1, -13, 3, -3, -6
1503945559737,5, -2, -5, 1, -3, 0, 1, -1
1503945559759,17, -4, -4, -2, 1, 3, -1, 2
1503945559777,0, -5, 0, -6, 9, -3, -5, 1
1503945559797,19, -12, 0, -1, 6, 0, 2, 0
1503945559819,-6, -3, -6, -2, 0, -5, -1, -5
1503945559834,-6, 8, 18, 2, 9, 18, -2, 0
1503945559857,-8, 5, -1, -1, 5, -4, 2, -1
1503945559879,-9, 5, -6, 0, -4, -2, -3, -6
1503945559894,-7, -5, -8, -5, 1, -3, 5, -5
1503945559918,2, 2, -4, 0, -5, -1, 4, 7
1503945559939,-7, -3, -4, 0, -2, -3, -3, -1
1503945559954,4, 0, 2, 7, 22, 1, -1, 7
1503945559978,3, -3, 0, -2, -12, -6, -6, -10
1503945559999,-12, -5, 7, 1, -7, -2, 1, -3
1503945560015,4, -3, 3, 0, -3, -1, -2, -18
1503945560037,-1, -5, -5, 7, 5, 8, -5, 6
1503945560059,-27, 13, 16, 3, -5, -7, -6, -3
1503945560074,13, -8, -10, -7, -4, -3, 3, 6
1503945560099,-2, -13, -11, -7, -11, -2, -2, -2
1503945560119,-2, -2, -6, -5, 2, 1, -1, -2
1503945560134,26, 4, -10, -1, -1, 0, -2, 1
1503945560149,7, 3, 6, 3, -4, 0, -4, -11
1503945560164,9, -4, -1, 0, -15, -1, -5, -9
1503945560186,-3, 17, 10, 1, -2, 3, 2, -10
1503945560211,14, -24, -11, -1, 6, -1, -2, -18
1503945560226,-18, -9, 6, 4, 1, -2, -2, 7
1503945560246,6, 8, -3, 0, 6, 0, -1, 1
1503945560269,-16, -4, 5, -3, 3, 3, -2, -5
1503945560284,-13, -15, 14, 7, -16, -9, -8, -8
1503945560306,0, 1, -3, 0, 5, 5, -3, -10
1503945560329,-3, 7, -11, -6, -9, -6, 1, 7
1503945560347,11, 10, 5, 2, 11, 3, 2, 7
1503945560366,7, 6, -4, -2, -14, 2, 1, 2
1503945560389,-9, 0, -4, -1, 20, -2, 2, 0
1503945560404,3, -3, -2, -9, -14, -3, 3, 3
1503945560426,25, 6, -1, -2, -2, 0, 0, 2
1503945560450,-5, 1, 2, -1, -10, -1, -2, 1
1503945560471,-10, -2, 0, 0, 13, 1, 14, -1
1503945560487,-12, -5, -5, -1, 4, 3, -3, -5
1503945560509,-20, -2, 4, 1, -6, -1, -4, -11
1503945560531,-2, -15, -6, -1, 8, -4, -7, -1
1503945560547,0, -4, -7, -9, 2, -1, -7, -3
1503945560569,-3, -1, 1, -6, -24, 0, 1, 3
1503945560591,-2, 11, 6, -1, -18, 1, 5, 11
1503945560606,-12, 0, 4, 2, 35, 6, -10, -9
1503945560622,10, 8, 1, -9, -21, 0, 4, 8
1503945560629,-10, 8, -14, 1, 10, -3, -1, 1
1503945560652,-5, 1, 9, 10, 12, -1, -4, -5
1503945560666,1, 0, 6, 14, 14, -4, 1, -5
1503945560690,-5, -8, -6, 0, 0, 3, -2, -5
1503945560712,15, 28, -4, -3, -1, 2, 0, 3
1503945560726,5, -2, 0, 2, 2, -5, -2, 2
1503945560749,-16, -11, -2, -7, 5, 1, -1, 1
1503945560771,-7, -10, -2, -5, -4, -4, -7, -5
1503945560801,8, -4, -8, -4, 13, -31, 1, 12
1503945560818,-12, -4, 3, -3, -3, 10, 0, 0
1503945560839,2, -1, 1, 0, 5, 5, -4, -1
1503945560861,3, 0, 5, 2, -1, 1, 2, -5
1503945560877,-5, 2, 3, -7, 3, 3, 1, 2
1503945560906,-6, -1, -7, 0, 10, 2, -1, -1
1503945560921,3, -4, -4, -6, -16, 1, -1, 0
1503945560937,-15, -6, 11, 1, 3, -2, -2, 1
1503945560959,19, 2, -4, 0, -6, -1, 0, 5
1503945560983,17, 5, -3, 1, -1, 2, -1, -4
1503945560997,-19, -4, 4, 7, 13, -3, -5, -9
1503945561019,-8, 1, -10, -5, 1, 1, -2, -3
1503945561041,-39, -9, -2, 4, 6, -2, 0, 3
1503945561051,13, 8, 7, -1, 4, 1, 1, -2
1503945561071,-15, 1, 9, -2, -2, -4, 1, -1
1503945561086,20, 3, -1, 1, -2, 1, -4, -9
1503945561109,-4, -6, -4, -5, -34, -8, -2, 2
1503945561131,3, -1, -7, -5, 1, 4, 4, 5
1503945561146,34, -5, 5, 6, 14, 2, -2, -4
1503945561169,-1, -5, -5, 0, 7, -1, -1, -2
1503945561192,-24, 3, 2, 3, 11, 4, 5, 3
1503945561206,-2, 5, 23, 6, 13, 3, -1, 1
1503945561229,-8, 4, -12, -9, -8, -7, -2, -6
1503945561254,-2, 4, -4, 4, 9, -1, -1, 2
1503945561266,13, 5, 15, 4, -1, 0, 0, 8
1503945561289,-2, -8, -10, -6, -7, -4, 2, 11
1503945561312,-1, -6, -10, -2, 7, -3, -1, -6
1503945561326,-21, -10, -16, -6, -9, 2, -4, -7
1503945561349,-11, -1, -2, 1, 4, -1, -1, -1
1503945561371,-9, -3, -7, -6, -10, -5, -3, -5
1503945561393,8, -3, 0, 13, 32, 8, 2, 2
1503945561409,9, 1, 1, -2, -7, -5, -3, -3
1503945561431,-1, 4, -9, -8, -10, -1, 2, -5
1503945561454,-8, -5, -5, -5, 4, 4, 1, -5
1503945561469,-35, -6, 9, -3, -8, -6, -3, -5
1503945561491,12, 1, 3, 4, 4, 0, -1, 3
1503945561513,6, 2, 12, -3, -8, -1, 1, -3
1503945561529,-10, -11, -11, -4, -7, 1, 3, 0
1503945561550,7, -9, -9, 0, 2, 1, -5, 1
1503945561573,-4, -10, -6, 2, 0, -2, 0, 1
1503945561589,-16, -9, 1, 0, -1, -1, -2, -15
1503945561612,39, 4, -2, -4, -2, -2, -1, 7
1503945561633,10, 14, 20, 5, 2, 0, -4, 2
1503945561649,-4, -32, -14, -3, 0, -1, 0, -13
1503945561671,-14, 10, 4, 2, 5, -1, 0, 6
1503945561693,-6, 15, 6, 4, -8, -2, -3, -1
1503945561709,0, 4, -19, -8, -7, 3, -3, -3
1503945561731,11, -1, -3, -5, -2, -8, -1, 5
1503945561756,-2, 6, 1, 2, 7, 7, 2, -1
1503945561762,-16, -3, -2, 6, 19, 7, -2, -8
1503945561784,29, 4, 0, -4, -10, -4, -4, -5
1503945561799,-5, -2, 5, -2, 10, -1, -2, -5
1503945561824,-6, 1, -4, 3, -3, 3, 9, -2
1503945561844,-4, 0, -2, -2, 0, 1, -4, 5
1503945561860,-16, -3, -5, 0, 0, 1, -1, -3
1503945561881,-4, -8, -7, 1, -4, -3, -2, 0
1503945561904,-7, 1, -2, 0, 11, 2, -4, -2
1503945561919,-16, -3, 0, 4, 2, -3, -6, -4
1503945561943,4, 3, -2, -4, 3, 0, 0, -3
1503945561964,-18, 8, 4, -3, 6, -2, -8, -12
1503945561972,-8, 8, -2, -1, -2, -2, 0, 5
1503945561994,6, -7, -6, 2, -4, 1, 1, 2
1503945562009,6, 0, 12, 2, 9, 13, 5, 2
1503945562032,-4, 4, 5, 5, -4, -6, 1, 4
1503945562053,9, 1, 6, 1, 14, 2, -1, -5
1503945562076,-4, -9, -5, 0, -12, 0, -6, -4
1503945562099,11, 12, 3, 0, -2, -5, 3, 28
1503945562113,-29, -1, -5, -9, -10, -3, -5, -12
1503945562129,10, 12, -2, -2, 9, -1, 0, 10
1503945562151,-6, -4, 9, 4, -9, -4, -1, -19
1503945562174,20, -10, -6, -5, -8, -19, -12, -7
1503945562189,3, -1, -4, -1, -4, -6, 6, 14
1503945562211,-3, 3, 1, 1, 6, 3, -9, 9
1503945562234,-9, 2, 1, 4, 18, 14, 1, -2
1503945562249,12, -7, -9, -7, -17, 9, 6, 12
1503945562271,-22, -5, -4, -1, -9, -5, -1, -4
1503945562296,16, -1, 3, 15, 27, 5, 2, -6
1503945562309,6, 4, -8, -8, -10, -9, -1, -12
1503945562331,7, 3, -8, -10, -14, -4, -4, 4
1503945562353,7, -7, -3, -1, -4, 3, 0, -16
1503945562376,-14, -12, -1, -8, -5, 1, -5, 15
1503945562394,19, -1, -3, 1, -2, 3, -2, -19
1503945562413,-14, 15, 17, 4, 1, -3, 2, -10
1503945562436,-16, -12, -5, -1, -1, -5, 0, -12
1503945562452,-10, -4, -3, -2, -2, -2, -4, -17
1503945562473,-4, -3, -1, 1, 2, -4, 4, 2
1503945562496,-11, 3, 10, 3, 1, 1, 11, 12
1503945562512,4, -8, -10, -6, -2, 2, 1, -5
1503945562533,-9, 0, -6, -4, -1, -2, -4, 17
1503945562564,-15, 0, 2, 1, 0, -2, -3, 6
1503945562571,-14, -5, -11, -6, -5, -38, 4, -15
1503945562595,22, 8, 8, -2, -1, 7, -21, -1
1503945562616,41, 0, -1, 3, 1, 3, -3, 24
1503945562632,-8, -4, 2, 0, -3, 4, 0, 3
1503945562653,-6, 8, 6, 0, -3, 0, -4, -30
1503945562676,-3, -7, -7, -2, -4, 9, 6, -1
1503945562691,-6, 1, -6, -2, 0, 1, 0, -9
1503945562713,-56, 16, 31, 10, 7, 2, -1, -8
1503945562736,16, -5, -4, 1, 1, -1, 6, 11
1503945562751,13, -7, -10, 2, 7, 0, -6, 24
1503945562774,-2, 15, 1, 0, 2, 5, 6, 3
1503945562796,2, -17, 5, 0, -7, -3, -2, -2
1503945562811,6, -6, -13, -7, -2, -4, -8, -8
1503945562833,13, 0, -2, -2, 1, -3, -3, -7
1503945562856,-20, 6, 10, 3, -1, 0, 3, -8
1503945562873,47, 2, -14, -5, -4, -1, -5, 7
1503945562893,-12, 0, -2, 2, 0, -2, 3, -11
1503945562916,11, -1, -3, -2, -2, 6, 1, 29
1503945562932,9, 6, 8, 1, -3, 7, 3, 9
1503945562953,-29, -17, -16, -6, -2, -6, -4, -28
1503945562976,37, -19, -15, -6, -2, -7, 0, -24
1503945562991,-44, 1, 3, -1, 2, 8, 1, -2
1503945563013,-6, 1, 2, 2, 2, -1, 0, -4
1503945563036,28, 2, 3, 0, 0, -3, -1, 6
1503945563051,-11, 13, 5, 0, 0, -3, -3, 1
1503945563073,-15, 2, -3, -2, -3, -3, 2, 8
1503945563098,-23, -5, -5, -2, -1, -5, -4, -14
1503945563111,10, 1, -12, -3, -2, 2, -1, -7
1503945563133,-9, -11, -5, 1, 1, 2, 3, 13
1503945563155,-4, -4, -2, 3, 11, -7, -2, -3
1503945563179,0, -14, -4, 1, -4, 2, 0, 0
1503945563194,-46, 0, 6, 2, 0, -6, -1, 8
1503945563217,11, 1, -1, -3, -3, 0, -1, 7
1503945563239,16, 1, 3, 2, -3, 4, 1, -3
1503945563261,5, 9, 6, 1, -12, -2, -4, -3
1503945563277,4, -6, -7, -4, 0, -3, -2, -7
1503945563300,-1, -4, -3, -3, 16, 0, -1, 4
1503945563321,29, -2, 2, -1, -8, -1, -2, -5
1503945563337,20, -3, -4, -2, -2, 11, 1, -1
1503945563361,-18, 11, 5, 3, 1, 8, -2, -8
1503945563382,-2, -2, -5, -1, -1, -4, -1, 0
1503945563398,-37, -5, -5, -2, -3, -3, -1, 3
1503945563419,10, -4, -2, -6, -4, -5, 2, 13
1503945563442,-1, -2, 4, 2, -1, -19, -5, -8
1503945563457,6, -2, -1, 1, 0, 4, 3, 2
1503945563479,4, 10, 4, 3, -3, 0, -6, -31
1503945563503,-14, 4, 4, 0, -2, 2, 1, 9
1503945563517,11, -7, -2, -3, 0, -2, 1, 13
1503945563539,-2, 3, 3, -5, -3, 2, -1, -19
1503945563562,-58, 5, -11, -8, -6, 2, 4, 10
1503945563577,58, -5, -1, 1, 0, 0, 1, 23
1503945563601,-14, -8, -8, -5, -6, -41, -4, -9
1503945563622,-11, -5, 1, 2, 1, 14, -2, -20
1503945563637,5, 7, 4, 2, 2, 5, 0, 0
1503945563659,29, 4, 4, -1, 0, 4, 0, -18
1503945563682,-41, -15, -12, -9, -5, 1, -2, -14
1503945563697,-2, -2, -1, -4, 0, 9, 5, 23
1503945563719,16, -7, -11, -5, -4, 7, 7, 14
1503945563749,27, 2, 1, 0, -7, -23, 0, 24
1503945563757,-18, 14, 9, 3, 4, 7, -3, -30
1503945563779,-5, 4, 5, 0, 1, 3, -1, -7
1503945563803,5, 8, 5, 5, 5, 0, -4, -6
1503945563817,4, -3, -3, 2, 0, 2, -5, -2
1503945563839,-4, -4, 2, 1, 5, 7, -1, -3
1503945563862,-8, 1, 3, 1, -1, 0, 11, 24
1503945563877,25, -8, 1, 5, -1, -4, 0, -10
1503945563899,2, 5, -1, -5, -5, 0, -2, 14
1503945563922,-5, 5, 2, 2, 4, -2, -3, 0
1503945563942,-3, -3, -9, -3, -9, -8, -6, -1
1503945563959,-19, 1, 5, -1, 12, 19, -3, -21
1503945563982,16, -1, 30, 7, -1, -3, -3, -3
1503945563997,17, -12, -19, -7, -2, 2, 1, 2
1503945564019,-3, -12, -5, -8, -13, -4, -3, -1
1503945564043,-8, 1, -4, 20, 7, 0, 3, 6
1503945564057,-2, 14, 9, -3, -3, -6, -2, 2
1503945564080,-4, -1, -9, -6, -4, -5, -4, 2
1503945564102,-14, -1, -8, -8, 76, 2, -3, -8
1503945564117,-21, -10, -12, -11, -15, -6, -2, 59
1503945564140,-5, 0, 3, 1, -16, -1, 1, -20
1503945564162,-7, -5, -5, -5, -44, -1, 0, -2
1503945564177,4, 5, 0, -2, -37, -3, -2, -11
1503945564199,6, 5, -1, -1, -10, -2, -1, 4
1503945564222,-3, 1, 8, 4, 11, 2, 3, -11
1503945564237,-4, 2, -1, 11, 22, 4, -2, -6
1503945564259,7, -1, -2, -4, 1, -1, -2, 8
1503945564282,11, -4, -8, 0, 3, 0, 1, -8
1503945564297,3, -11, 14, 6, -19, -3, -4, 4
1503945564319,-1, -3, -8, -2, 6, 0, 1, -17
1503945564342,15, 6, -1, 3, 21, -1, -3, 1
1503945564374,4, 5, -1, 0, -6, -3, 0, -5
1503945564386,-20, -12, -16, -7, -8, 1, 0, -11
1503945564409,16, 3, 2, -3, -1, 1, 1, 5
1503945564431,20, 9, -3, -1, 2, 0, -3, -4
1503945564446,1, -1, 5, -1, 4, -4, -2, -19
1503945564469,-1, 5, 7, 1, -22, -5, -3, 1
1503945564491,-9, 1, 0, 0, -3, -3, 0, 0
1503945564508,5, 3, -14, -3, -1, -2, -5, -11
1503945564529,4, -5, -9, -6, 2, -2, -1, 3
1503945564551,-2, 3, 5, 2, 4, 2, -2, -11
1503945564566,-2, 0, 4, 1, -2, -1, 1, 6
1503945564589,-4, -2, 2, 2, 10, 1, 0, 2
1503945564612,-4, -3, 4, -2, -9, -2, -1, 5
1503945564626,-6, 0, 3, 2, 1, 0, -2, 5
1503945564649,16, -4, -9, 0, 1, -1, -2, -2
1503945564671,-24, -6, 2, 0, 1, 4, 0, -6
1503945564680,13, 3, -2, -1, 8, -12, 3, -4
1503945564702,-5, 1, -2, 0, -4, 3, -1, -3
1503945564717,-3, 1, -1, -3, -4, 0, -1, 4
1503945564739,25, 0, -7, -4, -2, -3, -6, -1
1503945564761,10, -1, -6, -3, -7, 3, 2, -1
1503945564777,-11, -3, 0, 1, -7, -2, -4, -3
1503945564799,-4, -2, -1, -1, 3, 1, -2, 2
1503945564821,-3, -2, 1, 0, -2, -2, -1, -4
1503945564837,-7, -3, 0, 1, 2, 0, 0, -9
1503945564859,7, 1, -6, -4, -2, -6, 4, 5
1503945564881,-7, 1, 2, 2, -6, -1, -2, -2
1503945564897,-3, 5, 1, -5, 1, -1, 1, -2
1503945564919,10, 2, 3, 3, -14, -2, -1, 6
1503945564941,-6, -10, -12, -4, 0, 3, 1, -12
1503945564964,-5, 0, 2, 3, 0, 0, -2, 13
1503945564979,-3, 1, 1, 0, -8, -3, -3, -4
1503945565001,-3, 1, 0, -2, -2, -35, -8, -7
1503945565017,5, 1, 17, 3, 2, 9, -2, -5
1503945565039,0, -8, 5, 4, 7, 5, 0, -22
1503945565062,2, -1, -8, 0, 2, 6, 3, 14
1503945565079,-9, 1, -1, -3, 4, 4, 2, 4
1503945565099,7, -1, -4, -2, -4, 2, -2, 2
1503945565121,6, -4, -6, 2, 2, -1, 0, 1
1503945565148,7, 1, -3, -6, 0, 4, -1, -6
1503945565159,-2, 6, -3, 0, -3, -2, -2, -1
1503945565181,-3, -2, -1, 1, 3, 18, 2, 1
1503945565204,2, 2, -5, -4, -8, -2, 0, -2
1503945565219,4, 1, -2, 0, 5, -3, -2, 2
1503945565241,-9, -1, -3, 1, 0, -6, -2, -17
1503945565264,-13, -4, -3, -3, -1, -1, -1, 6
1503945565282,-6, -2, 3, 1, 1, -4, -1, 7
1503945565301,0, 0, 1, 0, 1, 2, 0, 0
1503945565324,-12, -1, -1, -3, -4, -3, -1, -1
1503945565339,5, -6, -5, -3, 0, -1, 1, 13
1503945565361,-3, -3, -3, 2, 1, -2, -2, -9
1503945565384,2, 0, 3, 0, -4, -2, -1, 5
1503945565406,4, 3, 3, 0, 1, 3, 0, 0
1503945565428,-12, -4, 1, -1, -3, -2, -2, -8
1503945565444,6, 1, -8, -3, -2, -2, 0, -1
1503945565459,-7, 0, -3, -2, 0, -3, -3, 0
1503945565488,-7, -3, 1, 2, 5, 11, 2, -4
1503945565504,0, -1, -4, -1, 0, 4, -3, -4
1503945565520,6, 0, 3, 1, -5, -5, 2, 6
1503945565542,-12, -2, -2, -1, 2, -4, -1, 1
1503945565564,2, 1, 2, 0, -2, -1, -1, -2
1503945565582,2, 6, 4, -2, 0, -2, -3, -5
1503945565602,9, -2, 1, -5, -2, 5, -1, 1
1503945565624,1, -3, -3, 1, -2, -7, 1, 5
1503945565639,-5, -1, 0, -1, -1, 5, 0, -4
1503945565662,2, 6, 2, 2, 0, -3, -3, 0
1503945565685,6, -2, -2, 0, 0, -3, 3, 11
1503945565699,1, -4, -4, -3, 1, -3, 0, -4
1503945565722,-7, -2, -2, -4, -1, -2, -1, -7
1503945565744,7, -1, -2, -1, 0, -1, -3, 2
1503945565760,-5, -1, -3, -2, -2, -37, -4, 0
1503945565784,-1, -1, 3, 3, 0, 8, -3, -7
1503945565804,9, 3, -1, -3, -1, 1, 1, 7
1503945565820,4, 1, -6, -3, -1, 4, 2, 4
1503945565842,-35, -9, -5, -4, -1, 0, -1, -19
1503945565864,9, 2, 1, 1, -1, 4, -1, -4
1503945565879,2, -1, 1, 1, -4, 3, -1, 0
1503945565901,3, 0, 0, 2, 2, 2, -1, -2
1503945565924,-8, -2, 0, -1, 2, 3, 3, 13
1503945565947,4, -2, 0, 2, -1, 0, -1, -2
1503945565962,-1, 0, 3, -2, -3, 2, 2, 4
1503945565985,-7, -2, -5, -3, -3, 1, 0, 0
1503945565999,9, -4, -5, -1, -1, -5, -3, -6
1503945566022,0, 2, -2, 0, 1, -1, -4, -13
1503945566044,13, -2, 6, -2, -3, 0, -1, -2
1503945566066,-6, 1, 1, -1, -1, -2, -1, 2
1503945566082,-8, -1, 0, -1, -4, 1, 0, 4
1503945566111,-6, 0, -1, 2, -2, -22, 0, -5
1503945566126,-3, -1, 0, -2, 4, 6, 1, 8
1503945566142,-4, 1, -3, -3, -3, 5, -2, -5
1503945566164,-1, 0, -4, 1, 1, 1, 0, 4
1503945566187,-8, -7, -1, 1, 1, 6, 4, 1
1503945566202,18, 5, 2, -3, -2, -1, -3, -5
1503945566225,4, -3, -1, -1, 2, 0, 1, -6
1503945566246,-4, 2, -2, -1, -4, -3, -1, -15
1503945566263,2, -18, -5, -5, -59, -2, 2, 5
1503945566284,10, 3, 2, -3, 14, -3, -1, 2
1503945566306,-1, 0, -3, -1, 9, 3, -4, 1
1503945566322,-5, -5, -1, 0, -3, -4, -6, -1
1503945566344,-7, 1, -1, -1, 2, 4, -1, -1
1503945566366,11, 8, 0, -2, 7, -5, -2, 0
1503945566382,-1, 1, 0, -1, 7, -1, 0, 9
1503945566404,-4, -2, 2, 1, -8, 2, 0, -2
1503945566426,-11, -2, 0, -1, 2, -24, 0, 6
1503945566442,4, -3, -1, -1, 3, 7, 0, -2
1503945566464,-4, 5, -6, 2, 6, -2, -1, -9
1503945566486,6, -2, -3, 3, 20, 6, 4, 2
1503945566502,-16, -1, 3, -2, -3, 7, 0, 6
1503945566524,8, -3, -3, -1, 4, 6, -3, -8
1503945566546,2, 7, 4, 0, -1, 0, -11, -1
1503945566562,-1, -2, -6, -3, -21, -2, -3, 2
1503945566584,21, 4, -2, -5, -2, -4, -2, -7
1503945566606,0, -2, -5, -1, -1, -3, 5, 11
1503945566623,-14, 7, 7, 3, 3, -2, 5, -7
1503945566644,-6, 0, -2, -1, 5, 3, 20, -12
1503945566666,-4, -7, -4, -1, -3, 0, -3, 20
1503945566682,-8, -5, -1, -1, -8, 10, 21, -3
1503945566704,-11, -18, -13, -2, -1, -7, -16, -7
1503945566726,-9, 0, 0, -2, -3, -3, -47, -11
1503945566742,11, -1, 0, 4, 7, 21, -3, 13
1503945566764,-21, 2, 7, 2, 7, 2, 12, -22
1503945566786,-6, 5, -5, -2, 0, -7, 1, -14
1503945566802,47, 18, 3, -2, 20, 22, 33, 14
1503945566824,-17, -4, 6, 1, -2, -6, -1, -13
1503945566847,-58, -16, -2, -4, -6, -8, -2, 5
1503945566854,79, 23, -5, -11, -12, -15, -32, 11
1503945566875,-23, -8, -2, 4, 5, 2, 9, 7
1503945566892,-11, 2, 0, -2, -1, 0, 1, -9
1503945566913,-18, -10, -6, -3, -7, -4, 2, -28
1503945566935,-16, -1, 2, -1, 2, 1, 3, 12
1503945566951,-18, 0, 4, 2, -9, -8, 3, 1
1503945566974,7, -2, 0, -1, 5, -4, -1, 5
1503945566996,3, -2, -3, -1, 4, 5, 1, -1
1503945567018,-30, -7, -1, -1, 2, 0, -3, -3
1503945567035,-55, -9, -8, -3, -4, 1, 1, 1
1503945567055,3, -1, 3, -2, -2, -1, -2, 5
1503945567078,12, -1, -3, 5, 6, 2, 0, 1
1503945567094,2, 5, 5, 3, -11, -1, -6, -2
1503945567116,-20, -5, -3, -3, 5, 0, -3, 10
1503945567138,17, 8, 10, -1, 0, 0, 3, 1
1503945567154,12, 2, -4, -2, 9, 11, -2, -2
1503945567175,-13, -15, -7, -1, -4, -4, -7, -10
1503945567184,-21, 0, 0, 3, 21, -1, 31, 6
1503945567206,-1, -3, -6, -2, -8, -1, -35, -3
1503945567231,6, -1, -5, 4, -31, -6, 6, 0
1503945567243,17, 1, -2, 3, 41, -9, 8, -12
1503945567266,-20, -11, -6, -10, -21, 2, -6, -18
1503945567289,15, 0, -1, 0, 3, 7, -2, 5
1503945567304,8, 4, 4, 2, 0, 4, -16, 11
1503945567327,-7, 12, -2, -5, -4, 1, -1, 1
1503945567348,2, -5, -3, -14, 4, 13, 17, -1
1503945567364,13, -10, 9, 4, -1, 0, 9, 13
1503945567386,-7, 4, -7, -5, -6, 0, -5, -3
1503945567409,-2, -1, -1, 3, -1, -8, 0, -8
1503945567424,-19, -3, 0, 0, -5, 3, -2, -3
1503945567446,16, 3, 1, -1, -20, -2, -1, 8
1503945567469,7, 5, 1, 6, 11, -5, 0, -1
1503945567484,0, -9, -1, -7, -19, 3, -2, -7
1503945567507,17, -4, -8, -7, 0, -2, -1, 23
1503945567529,6, 8, 0, 3, -1, -6, 1, -4
1503945567544,23, 2, 14, 7, 7, 2, -1, -3
1503945567566,40, 4, -4, 1, 3, -1, 1, 58
1503945567589,-2, 8, 12, 1, 3, -2, 1, -9
1503945567597,1, 2, 3, -4, -1, 6, -2, -7
1503945567618,15, 3, -8, 0, -12, -7, -6, -17
1503945567634,-16, -10, -6, -2, 3, 0, -7, -10
1503945567655,-11, -8, -2, -2, 3, -1, 2, 13
1503945567665,39, 9, 2, -2, -7, 3, 1, 14
1503945567687,-11, -20, -23, -9, 10, 0, 2, -2
1503945567708,12, 5, 4, 5, 0, -5, -3, -9
1503945567724,12, 2, -8, -4, -10, -4, -2, 0
1503945567739,19, 12, 6, 4, 0, -5, 2, 11
1503945567754,-2, -20, -5, -1, 0, -11, 0, 26
1503945567776,10, 3, -8, 2, -3, -7, -5, -17
1503945567800,-25, -3, 2, -1, 7, -5, 1, -7
1503945567814,-20, -5, -8, -7, -3, -9, -2, -4
1503945567829,-5, -5, -10, -1, -9, 6, 2, 0
1503945567844,6, 0, -2, 2, -17, 11, 1, 7
1503945567874,34, 16, 9, 5, -6, 4, 3, 0
1503945567897,-3, -3, -7, -5, -1, 2, -3, -1
1503945567904,13, -2, 1, -4, -2, -3, -2, 1
1503945567926,-9, -9, 7, 0, 4, -2, 0, 1
1503945567949,16, 9, 8, -1, -2, -4, 0, -2
1503945567971,-6, 13, -17, -5, -2, 0, 5, 19
1503945567994,33, 9, 3, -1, 6, 3, 1, 20
1503945568009,0, -14, 2, 6, 2, 1, 1, -13
1503945568034,-13, -8, -9, 2, 25, 3, 1, -2
1503945568046,-26, 18, 25, 9, -2, -4, -2, 1
1503945568069,-30, -9, 5, 2, -4, 0, -8, -21
1503945568091,1, -11, -1, -10, -4, -4, 4, 5
1503945568106,2, -3, -9, -5, -7, -16, -4, 2
1503945568128,-36, -1, -14, -9, -8, 5, 0, 4
1503945568151,-6, 9, -4, 0, -1, 0, -2, -17
1503945568168,5, -8, -22, -6, 7, -4, -5, -6
1503945568188,6, 9, 5, 2, -5, -3, -1, -3
1503945568211,2, -13, 0, -3, -7, -32, -5, 2
1503945568226,15, -3, -16, -6, -4, 11, -3, 1
1503945568248,17, -12, -6, -8, 10, 7, 3, -3
1503945568271,1, 4, 2, -2, -5, 3, 2, 3
1503945568286,15, 5, 7, 3, -5, -2, 0, 2
1503945568310,-5, 2, 4, 0, -17, -5, -3, -2
1503945568332,9, 25, 32, 10, 3, 6, 0, 1
1503945568346,-41, -16, -8, -1, -5, 8, 5, -2
1503945568369,-26, 0, -9, 0, 1, -10, -18, -47
1503945568391,3, -8, 1, 5, 18, 2, 8, 12
1503945568406,9, -6, -7, -1, 0, 0, 0, 14
1503945568428,-56, -13, -13, -1, 5, 1, -1, -3
1503945568451,30, 9, 8, -2, -21, -2, 0, -1
1503945568469,-34, -9, -5, 2, 24, 0, -1, 2
1503945568488,15, 1, -4, -10, -6, 3, -2, 2
1503945568511,-12, -2, 5, 2, 5, 1, -5, -1
1503945568526,20, -3, -8, -3, -2, 0, 1, 8
1503945568549,8, -3, -1, 5, 9, -1, 2, 3
1503945568572,54, 10, 6, 0, -5, 2, 0, 5
1503945568586,-22, -3, -3, -5, -12, 3, -4, -12
1503945568609,57, 13, 5, 6, 4, 5, 4, 10
1503945568631,-14, -3, 7, 1, -3, -3, 3, -2
1503945568646,-8, 3, -1, -2, 4, -1, 7, 8
1503945568671,-82, -12, -5, -2, -10, -8, -9, 5
1503945568691,5, 1, 5, 9, 3, -11, 0, -6
1503945568706,-6, -11, -10, -2, 0, 13, -3, -6
1503945568728,-24, -7, -13, -1, 0, 2, -13, 10
1503945568747,13, 5, 0, -3, 5, 6, 4, -2
1503945568759,7, 6, 3, 1, -9, 0, -13, -1
1503945568782,4, -1, -6, -2, 5, 1, 5, 2
1503945568805,12, 0, -5, -1, 0, 1, -7, -2
1503945568812,-4, 2, -6, 0, 2, -4, 1, -10
1503945568826,-10, -6, -4, -4, -2, -14, -3, 10
1503945568848,2, 10, 2, 0, 1, 10, -2, -22
1503945568872,40, 0, -5, -3, -2, 1, 2, 9
1503945568894,-5, -11, -7, -7, -15, -6, -1, 16
1503945568909,1, -1, -4, -3, 1, 1, -1, -5
1503945568932,10, -1, 1, 1, 2, 21, 12, 32
1503945568954,6, 4, 4, -1, 3, 3, 4, 37
1503945568968,-33, -2, -2, 0, -1, -5, -3, -8
1503945568991,16, 3, 0, 1, 3, -1, 2, -2
1503945569014,-14, -2, 3, 1, 0, -4, -4, -30
1503945569028,-3, -3, 1, -1, -7, -7, -10, -9
1503945569051,-7, 1, -2, -2, -3, -6, -3, 7
1503945569074,1, 2, 4, 2, 1, -1, 5, -7
1503945569088,-2, -1, 1, 2, 1, 1, 5, 11
1503945569111,-4, -3, -3, -1, 0, 0, -1, -8
1503945569134,-4, 2, 5, 11, 9, 3, -7, -6
1503945569149,-8, -6, -6, -5, -3, -2, 0, -10
1503945569171,-10, -1, 0, -2, 1, -4, 1, -5
1503945569193,-33, -8, -2, -1, -2, -6, -10, -17
1503945569202,-7, 2, 2, 0, -3, 0, 2, -4
1503945569224,0, -1, -3, -4, -1, -4, -2, 13
1503945569243,24, 4, -8, -1, -2, 0, 2, 13
1503945569261,-53, -3, -10, -4, 6, 4, 0, 7
1503945569284,-8, -9, -3, 2, 0, -1, 0, 22
1503945569299,-5, -7, 2, 1, 1, -2, -1, 3
1503945569322,24, 8, -4, -4, 0, 3, -1, -5
1503945569351,-5, -14, -6, 2, 1, 3, 3, 5
1503945569354,-68, -13, -17, -7, -4, 0, -10, -22
1503945569375,-48, 13, 9, 6, 0, 5, 4, 8
1503945569389,28, 26, 26, 2, 0, 7, -1, -17
1503945569412,24, 7, 7, 1, 2, -3, 4, 7
1503945569434,-24, -4, -3, -6, -13, 10, 5, 20
1503945569444,-1, 1, 4, 1, -2, 9, 3, -2
1503945569470,14, -15, -9, -5, -4, -3, 0, 3
1503945569480,2, 5, 1, 1, 1, 5, -6, -49
1503945569502,25, -8, -4, -2, -2, 4, 4, 19
1503945569524,-76, -3, -2, -2, -6, 23, 0, -13
1503945569539,29, 3, 0, -1, 0, -10, 3, 63
1503945569561,-36, -8, -1, 0, -3, -5, -6, -18
1503945569584,22, 2, -6, -6, 0, -1, -4, -8
1503945569599,-1, -3, 7, -1, -1, -1, -4, 0
1503945569621,33, 21, 2, 3, 6, -2, 7, 10
1503945569645,-104, -8, -5, -5, -6, -38, -2, -12
1503945569666,-5, 0, -6, 1, 0, 8, -2, -27
1503945569674,29, -3, -10, -4, -3, -3, 2, 21
1503945569688,-4, -8, 27, 7, 3, -4, 1, 44
1503945569711,-73, -20, -10, -5, -4, 3, -3, -8
1503945569720,39, 3, 7, 1, 0, 0, -2, 9
1503945569741,52, -3, -4, -1, -1, 7, 1, 5
1503945569764,9, -4, 16, 4, 1, 2, 2, 19
1503945569787,8, 19, 6, -2, 1, 5, 2, -19
1503945569801,-20, -6, -8, 3, 3, -1, -3, 5
1503945569824,5, -4, -1, 0, -4, 8, 1, 8
1503945569846,20, -8, -10, -5, -2, -5, -6, -4
1503945569862,-9, -7, -9, -3, -3, -4, -2, -5
1503945569884,19, -2, -2, -2, -2, -3, -2, -3
1503945569906,-13, 2, 6, -2, 1, 23, 1, -10
1503945569923,8, -7, 11, 7, 4, 3, 1, 5
1503945569947,-15, 3, -3, 2, -1, -10, -1, 6
1503945569966,19, 10, 12, 2, -1, -7, 1, 7
1503945569982,-4, -9, -4, -2, -4, -8, -6, -4
1503945570004,21, -5, -2, -1, 0, -6, 0, 4
1503945570026,-2, 1, -4, -5, -4, -2, 2, 15
