1503616371609,-21, -1, -1, -1, -1, -1, 0, 0, 0
1503616371625,-14, -3, -1, -1, 1, -2, -7, -10, 0
1503616371659,15, -3, -3, -2, -3, -3, -6, -5, 0
1503616371679,23, 3, 1, -1, 1, -3, 3, 0, 0
1503616371700,-52, 0, 1, -1, 2, 0, -3, -3, 0
1503616371717,22, -2, 0, -1, 1, -1, 2, -3, 0
1503616371737,-13, -3, -3, -1, -1, 1, -6, -9, 0
1503616371761,-21, -4, 0, -2, -1, 0, 0, 0, 0
1503616371775,-8, 3, 0, 1, -2, -4, 1, 1, 0
1503616371797,-16, -7, 0, 1, 0, 2, 1, 6, 0
1503616371820,-41, -6, -3, -4, -3, 0, -2, -7, 0
1503616371835,-11, 0, -2, -4, -3, -2, -1, 4, 0
1503616371857,36, 3, -2, 0, -2, 3, 0, -2, 0
1503616371880,31, 0, 0, 1, 3, -1, -2, -6, 0
1503616371895,0, 4, 1, 1, 0, -2, -2, 4, 0
1503616371918,-4, -5, -3, 1, 1, -2, 2, 1, 0
1503616371940,38, 5, 2, 0, -1, -2, 1, 5, 0
1503616371962,10, 0, -2, -2, 2, -2, 0, 1, 0
1503616371977,29, 3, 0, -1, -4, 0, 2, 2, 0
1503616372000,-14, 0, -2, -2, -2, -3, -5, 0, 0
1503616372022,2, -1, -2, 0, 0, 2, 0, 4, 0
1503616372037,-20, 0, -1, -1, 0, -2, -1, -6, 0
1503616372060,-26, -6, -2, -1, 0, 1, 1, -2, 0
1503616372083,16, 0, -2, -1, 0, 0, -4, -4, 0
1503616372097,-22, -13, -6, 0, -3, 2, -1, 3, 0
1503616372121,6, 1, 2, 0, -1, -2, -2, -4, 0
1503616372142,21, 3, 2, -2, -2, 0, -3, 1, 0
1503616372158,6, -4, -4, -2, 1, -4, -1, -7, 0
1503616372180,-25, -5, -2, 1, 2, 0, 0, 1, 0
1503616372203,14, 5, 1, -1, 0, 0, -3, -2, 0
1503616372218,-18, -8, -4, -4, -2, 1, -1, 1, 0
1503616372232,16, -4, -2, -2, 1, 0, 2, 12, 0
1503616372255,26, 4, 0, 1, 1, 2, -1, 1, 0
1503616372277,-19, -2, -1, 0, -1, -2, -1, 2, 0
1503616372292,-1, 2, 1, 1, -1, -1, -5, -3, 0
1503616372308,82, 10, 2, -2, -3, 3, -1, -3, 0
1503616372330,-69, -13, -4, -3, 1, 0, 3, -1, 0
1503616372354,-6, 1, -1, 1, 0, -1, -2, -1, 0
1503616372367,-31, -2, 0, -1, 1, 0, -2, -3, 0
1503616372390,0, -3, -2, -2, -3, 2, 1, 1, 0
1503616372412,12, 0, 2, -1, 0, -3, 1, -1, 0
1503616372427,36, 3, -1, -3, -3, -2, 1, 0, 0
1503616372450,-44, -4, -2, 0, 1, 0, 1, 2, 0
1503616372472,-6, 1, 0, -2, -1, 0, -4, 3, 0
1503616372488,21, 0, -1, -1, -1, 0, 2, 0, 0
1503616372510,-26, -1, -2, 0, -1, -3, -3, -8, 0
1503616372532,32, 2, 0, -2, 0, 4, -2, 3, 0
1503616372548,-25, 6, 1, 0, -3, -2, -2, 1, 0
1503616372563,21, 6, 0, 1, -1, -4, -2, -2, 0
1503616372585,-8, -1, -1, -1, 0, -1, 1, -1, 0
1503616372600,4, -4, -4, -4, -2, -2, -2, -2, 0
1503616372625,28, 3, -1, -2, -2, 1, -1, 2, 0
1503616372638,-11, 2, 1, 1, -3, -1, 0, 2, 0
1503616372660,-37, -3, -2, 1, 1, 1, -1, 2, 0
1503616372690,-48, -5, -1, -1, -2, 0, -1, -7, 0
1503616372698,5, 1, 0, -1, 0, -2, 0, -2, 0
1503616372720,-3, -2, -1, 0, 0, 0, 0, -1, 0
1503616372742,4, -1, 0, -1, -3, 0, 1, 1, 0
1503616372758,47, 1, -1, -2, 1, -2, -2, 2, 0
1503616372780,6, -6, 0, 0, 0, -2, 0, 1, 0
1503616372802,-14, -3, 0, 0, -1, 1, -3, -5, 0
1503616372818,3, 1, -2, -1, -4, -5, 0, 0, 0
1503616372840,-7, 1, 1, 4, -1, 1, -1, -5, 0
1503616372863,-46, -2, -1, -2, 2, 2, -5, -5, 0
1503616372885,-6, -3, 1, -2, -1, -3, 0, 0, 0
1503616372900,18, -2, -1, -1, 0, -1, 3, 1, 0
1503616372924,2, 2, -1, -1, 2, -2, -3, -2, 0
1503616372945,7, -3, -3, -1, -4, 1, -1, -3, 0
1503616372952,0, -2, -1, -1, -4, 0, 4, 4, 0
1503616372974,17, 1, 0, -1, 1, 1, 2, -1, 0
1503616372997,22, 0, -3, -1, 0, -4, -3, -5, 0
1503616373011,-33, -2, -3, -2, -1, 1, -4, -8, 0
1503616373034,-6, -1, -2, 0, 0, -3, 1, 5, 0
1503616373050,-24, -9, -1, -1, -1, -2, -2, -4, 0
1503616373072,14, -3, -2, 0, 2, 0, 1, 4, 0
1503616373102,26, 0, -3, 0, -3, -2, -5, -3, 0
1503616373110,-16, 1, 1, -1, -1, -2, -2, -2, 0
1503616373132,18, 5, 2, -2, 1, 0, 1, 1, 0
1503616373154,13, -1, -4, -3, 0, 0, 0, 0, 0
1503616373170,8, -5, -4, -1, -5, -2, -3, -5, 0
1503616373194,-13, -4, 0, -1, -1, -3, 2, 5, 0
1503616373214,-12, -1, 0, 1, 0, 1, -2, -6, 0
1503616373230,36, 6, 1, 0, 1, 1, 0, -1, 0
1503616373252,7, 1, -1, -1, -5, 1, 0, -4, 0
1503616373274,30, 4, -1, 0, 1, -1, 0, 3, 0
1503616373290,8, -3, -3, -2, -1, -2, -4, 2, 0
1503616373320,-4, -1, -1, -1, -1, -3, -2, -1, 0
1503616373342,28, 2, 0, -2, -2, 1, 1, -5, 0
1503616373350,7, 2, 0, -1, 0, -3, -4, 2, 0
1503616373366,8, 0, 0, 0, 1, 1, 1, 0, 0
1503616373380,-9, 1, 1, 1, -2, 3, 0, -6, 0
1503616373403,-7, -5, -4, -1, -4, 0, -1, 0, 0
1503616373425,-4, -2, -1, -1, -2, -2, -1, -3, 0
1503616373440,32, 8, 1, -2, 0, -3, 1, 2, 0
1503616373463,-24, -4, -2, -1, -3, -4, -5, -7, 0
1503616373485,-23, -2, -1, -1, 0, -4, -1, -4, 0
1503616373501,25, 0, 0, 0, 3, 3, 2, -1, 0
1503616373522,34, 8, 1, 0, 1, 2, -1, 2, 0
1503616373545,6, -2, -3, -2, -2, -3, -2, 0, 0
1503616373560,15, 0, -1, -1, -2, -3, 0, -4, 0
1503616373582,-24, -2, -2, 2, 0, 0, 1, 3, 0
1503616373605,-35, -4, 0, 0, -1, 2, -1, 3, 0
1503616373620,31, -2, -1, -1, 0, -3, 2, 2, 0
1503616373642,-28, -4, 0, -1, 0, 1, 0, -2, 0
1503616373665,22, 4, 2, 0, -1, -2, -1, 5, 0
1503616373680,-8, -4, -2, -2, -2, -2, -2, -1, 0
1503616373703,-36, 1, 3, 0, -1, 1, -4, -9, 0
1503616373725,51, 4, -1, -2, -1, 0, -1, 0, 0
1503616373740,1, 0, -1, 0, 1, 0, 2, 2, 0
1503616373764,23, -1, -1, -2, -1, -1, -2, 2, 0
1503616373785,-48, -6, -2, 0, -1, -1, 0, -6, 0
1503616373808,44, -2, -4, 0, -1, -1, 1, 1, 0
1503616373823,13, 3, 2, 2, 1, 0, -3, 1, 0
1503616373845,-4, -3, -3, -1, -1, -1, 1, 0, 0
1503616373867,-25, -1, -1, -2, -1, 1, -3, -8, 0
1503616373882,-20, 0, -1, -2, 1, -2, 1, 0, 0
1503616373905,-78, -10, -4, 0, -2, -5, -3, -9, 0
1503616373927,54, 4, -3, -1, -3, 1, -2, -2, 0
1503616373943,18, -5, -1, 1, 1, 0, 1, 6, 0
1503616373966,-12, -3, -1, -2, -2, -3, -2, 2, 0
1503616373987,-24, 0, 0, 0, 0, 1, 0, -6, 0
1503616374003,10, 9, 4, 0, 0, 2, 3, 4, 0
1503616374026,19, 0, -2, -2, 1, -3, 0, 4, 0
1503616374047,18, 3, -1, -1, 0, -2, -1, -7, 0
1503616374062,23, -2, -4, -3, -4, -2, -4, 5, 0
1503616374085,-5, 2, 0, -2, -1, -3, -3, -4, 0
1503616374109,34, 4, 0, -1, -2, 3, 2, 5, 0
1503616374123,-12, -8, -1, 0, -2, 0, 1, 3, 0
1503616374145,-3, -3, -3, -1, -1, 0, -3, -7, 0
1503616374167,-25, -1, -1, 1, 0, 2, -3, 0, 0
1503616374182,4, -4, 1, -2, -3, -2, 0, 0, 0
1503616374206,-3, -3, -2, -2, 0, -1, -2, 0, 0
1503616374227,-16, -2, -1, 0, 1, 0, -4, -12, 0
1503616374243,5, -2, 0, 3, 1, 1, 0, 4, 0
1503616374265,15, 1, -1, -2, -3, -4, -1, -2, 0
1503616374288,23, 1, -1, 0, -1, 0, 1, 3, 0
1503616374303,-16, -1, -2, -2, -1, 0, -1, 4, 0
1503616374325,-15, -2, -2, -1, 0, -1, 3, -2, 0
1503616374347,15, 4, 1, 1, 1, -1, -1, -3, 0
1503616374362,-93, -9, -1, -1, -4, -1, -1, -1, 0
1503616374385,25, 2, -2, -3, -3, -1, -5, 2, 0
1503616374407,-1, -1, -2, -1, 0, -4, -2, -2, 0
1503616374423,5, 1, 0, 1, 0, 0, -2, -4, 0
1503616374445,-9, -8, -2, 0, -1, 0, 2, 1, 0
1503616374469,16, -1, -2, -1, -2, 1, 0, 1, 0
1503616374483,0, -1, -1, -1, 1, 0, -1, -1, 0
1503616374505,-9, -3, -2, -2, -1, -1, -1, 1, 0
1503616374527,-4, 1, 2, 0, 0, -1, 0, -4, 0
1503616374543,8, -2, -1, -4, 1, -2, 0, -3, 0
1503616374566,-27, 1, 1, -1, -2, 1, -2, 7, 0
1503616374587,20, 3, 0, 2, -1, -1, 1, 0, 0
1503616374604,22, 3, 4, 2, 1, 1, 0, 2, 0
1503616374625,-6, -2, -1, -1, 0, -3, 1, -2, 0
1503616374647,-7, 0, -1, 0, -1, 2, 0, -1, 0
1503616374662,43, 8, 0, -3, -3, -3, -2, -3, 0
1503616374685,34, -1, 0, -1, -1, -3, -2, 2, 0
1503616374707,-25, -2, -2, 1, 1, 0, 2, 1, 0
1503616374730,-12, -6, -1, -5, -2, -3, -1, -3, 0
1503616374746,8, -2, -3, 0, -2, -2, -2, -2, 0
1503616374774,-22, -1, 0, -1, 1, -1, 1, -2, 0
1503616374790,1, -1, 0, -1, -3, 1, 0, 0, 0
1503616374820,-20, 1, -1, -3, -2, -3, -1, -2, 0
1503616374835,20, -2, -2, 1, 1, 3, -3, 1, 0
1503616374858,-1, -5, -3, -1, 1, -2, 2, -2, 0
1503616374880,42, 6, 0, 1, -2, -1, -3, -1, 0
1503616374895,4, 1, 2, 0, -2, 0, 3, 4, 0
1503616374918,40, 2, -1, 1, 0, 0, -4, -4, 0
1503616374940,10, -1, 1, 2, -1, -1, 1, 2, 0
1503616374955,-2, -3, -1, -3, 0, -4, -1, -3, 0
1503616374978,42, -1, -1, 0, -1, 2, -1, 3, 0
1503616375000,0, 3, -1, -1, -3, -3, -2, 4, 0
1503616375015,-41, -2, 0, -2, 2, -2, -2, 0, 0
1503616375040,-11, -2, -3, -2, 1, -1, 0, -1, 0
1503616375060,11, 0, -1, 0, -1, 2, 0, -1, 0
1503616375076,-29, 1, -2, -1, 0, -1, -2, 0, 0
1503616375098,-41, -3, 2, 2, 2, -2, 2, 0, 0
1503616375109,-1, -3, -3, -1, -2, -1, -1, 2, 0
1503616375127,-4, -3, 1, -2, -2, 2, -1, 3, 0
1503616375150,18, 3, 0, -1, 0, -2, 2, 0, 0
1503616375165,15, -2, -3, 0, 0, -3, -1, 0, 0
1503616375187,-38, -7, -2, -3, -2, -3, 0, -7, 0
1503616375210,21, 2, -1, 2, 1, 1, 0, 3, 0
1503616375225,-19, -1, -1, -2, -3, -4, -2, -1, 0
1503616375247,-10, 4, 3, -1, 3, 2, -3, 2, 0
1503616375255,71, 6, 1, -2, 0, 3, 1, 5, 0
1503616375278,-28, -2, -2, 0, 1, -1, 2, 1, 0
1503616375300,45, 3, 1, 1, 1, 0, 0, -1, 0
1503616375318,-15, -5, -2, -1, -3, 1, -3, -2, 0
1503616375338,-55, -5, 0, -1, 0, -5, -3, -7, 0
1503616375360,-47, -3, -3, 0, -3, 0, 0, -3, 0
1503616375376,-26, -1, 0, -2, -2, -1, 0, -2, 0
1503616375404,6, 4, 2, -2, 0, -2, 0, 2, 0
1503616375420,-46, -7, -1, -1, 0, -2, -1, -1, 0
1503616375435,42, 1, -1, 2, 1, 3, 0, 0, 0
1503616375458,3, -2, -4, -3, -3, -1, -2, -1, 0
1503616375480,-23, -3, 1, -1, -4, -4, -3, -4, 0
1503616375495,27, 4, 0, -1, -2, 0, -1, -1, 0
1503616375518,-47, -5, -3, -2, 0, 1, -2, -2, 0
1503616375540,1, 2, 2, 2, 0, -2, 3, -3, 0
1503616375555,16, 2, 0, -1, -1, -2, -1, 6, 0
1503616375578,-17, 1, 0, 1, 0, -1, 0, -4, 0
1503616375600,-35, -4, 0, 0, -2, 0, -1, -1, 0
1503616375617,22, -3, -2, -1, 2, -1, -2, 3, 0
1503616375638,36, 5, -3, -4, -1, 3, 0, 6, 0
1503616375660,26, 1, 0, 1, 0, -5, -3, -3, 0
1503616375682,5, 0, -1, 0, 0, -2, -2, -5, 0
1503616375698,-4, 1, 3, 1, -3, 0, -1, -4, 0
1503616375720,-8, -1, -1, 0, 0, 0, 1, 1, 0
1503616375743,-4, 1, 2, -2, -1, -1, -1, -3, 0
1503616375758,25, -1, -3, -3, -2, -3, 1, 5, 0
1503616375781,5, -3, -2, 0, -3, 0, -3, 0, 0
1503616375802,-29, -2, 0, 3, 0, 0, -3, -5, 0
1503616375818,-27, -5, -2, -1, 2, 0, 1, -2, 0
1503616375840,2, 0, 0, -4, -1, -3, -1, -2, 0
1503616375862,-2, -3, -3, 0, -3, 2, 0, -3, 0
1503616375878,17, 4, -3, -3, -5, 2, -2, 2, 0
1503616375900,9, -4, -3, -2, 0, -3, -2, -1, 0
1503616375922,38, -1, -4, -2, -1, -1, 1, 1, 0
1503616375938,-48, -6, 0, 0, 1, 1, 0, 0, 0
1503616375960,-8, -4, -1, -1, -2, -2, -1, 3, 0
1503616375982,-37, -4, 0, 1, 0, 0, -1, -5, 0
1503616375998,44, 2, 0, 0, 0, 0, -2, 0, 0
1503616376021,55, 7, 1, -1, 0, -2, 0, 3, 0
1503616376042,-23, -5, 0, 0, 0, 1, 1, -3, 0
1503616376058,-10, -4, -2, 0, -3, -1, -3, 0, 0
1503616376088,10, -4, -2, -1, -2, 0, -3, -2, 0
1503616376110,19, 3, 2, -1, 2, 0, 3, 6, 0
1503616376132,6, -2, -3, -2, -1, 1, -1, 1, 0
1503616376148,19, 0, -2, -1, -2, -2, -3, -4, 0
1503616376170,-9, -3, -2, 1, 2, 0, 1, 2, 0
1503616376192,-33, 0, 1, -1, -3, 0, 1, -2, 0
1503616376207,10, 0, -2, -1, -1, -1, 2, -1, 0
1503616376230,10, 1, 3, 0, 0, 0, 0, 4, 0
1503616376252,3, 0, -1, -1, -3, 2, 2, 5, 0
1503616376267,17, 6, 0, 0, -2, 0, 1, 3, 0
1503616376290,6, -5, -3, 0, -2, -1, -3, -8, 0
1503616376315,4, -1, 0, 0, 3, -3, 0, -1, 0
1503616376327,-18, 0, 4, 1, -2, 0, -2, -4, 0
1503616376350,-13, -4, 0, 1, -1, 1, 1, -1, 0
1503616376372,13, -4, -3, -1, -2, -3, -3, -1, 0
1503616376387,-13, 1, -1, 0, -1, 2, -4, -1, 0
1503616376410,8, 8, 1, -2, 2, -3, 0, 2, 0
1503616376432,28, 3, -1, -2, -1, 0, -1, -2, 0
1503616376449,0, -1, -1, -1, -1, -2, 1, -5, 0
1503616376470,-53, -6, -1, 1, -1, -2, -4, -2, 0
1503616376492,-5, -3, -2, -1, -2, 1, -2, -1, 0
1503616376507,14, -1, 0, -1, 0, 0, 1, 3, 0
1503616376530,-18, -3, -1, -1, -3, -3, 0, -1, 0
1503616376552,26, 5, -3, -1, 0, -1, -3, 0, 0
1503616376567,-8, -3, 0, -1, -1, -2, 0, -5, 0
1503616376590,17, 1, -3, -2, -1, -2, 0, 4, 0
1503616376612,-37, -7, -4, -1, -3, 2, 0, -6, 0
1503616376634,24, 3, -2, -1, 1, 0, -3, -1, 0
1503616376652,16, 3, -1, -2, -2, -2, 1, 3, 0
1503616376672,19, 0, 1, 0, 0, -1, 2, 4, 0
1503616376694,-98, -9, -3, -3, -1, -2, -3, -7, 0
1503616376711,21, -2, -3, 0, -2, 1, -2, -2, 0
1503616376732,-9, 1, 2, 1, 1, -1, -3, -5, 0
1503616376754,22, 0, 0, 0, -4, -1, 2, 5, 0
1503616376770,5, -3, 1, -1, -2, 1, 1, 2, 0
1503616376793,18, 1, 1, 1, 2, -1, -2, 0, 0
1503616376814,-56, -10, -2, 0, 1, -3, 1, -2, 0
1503616376830,35, 1, -4, -1, -3, -1, 1, 3, 0
1503616376853,20, 0, -1, -4, 0, 3, 1, -1, 0
1503616376861,43, 0, -1, 0, -4, -1, -4, 0, 0
1503616376882,-10, 6, -1, -1, 1, -3, -3, 0, 0
1503616376905,-11, 2, 2, 0, -1, -3, 1, 3, 0
1503616376920,-38, -6, -1, -1, -3, 0, -2, -2, 0
1503616376942,10, 3, 0, 1, -2, -2, 2, 3, 0
1503616376965,-57, -5, -1, -2, -1, 0, -5, -10, 0
1503616376980,15, -2, -1, -1, 2, 0, -1, -1, 0
1503616377002,11, -1, -2, -2, -1, -1, -1, -6, 0
1503616377025,-13, -6, -1, -1, -2, -1, 0, 0, 0
1503616377040,23, 3, 1, -4, -2, -4, 3, 5, 0
1503616377062,10, -3, -3, -3, -2, 0, -3, -1, 0
1503616377087,34, 1, 0, 1, 1, -1, -3, -2, 0
1503616377100,-9, -4, -3, -1, 1, 2, 2, 3, 0
1503616377122,9, 0, -1, 0, 1, 1, 2, 2, 0
1503616377145,-13, -3, -3, -3, -2, -3, 0, -1, 0
1503616377161,-22, -2, -1, 2, 0, 1, 0, 3, 0
1503616377182,2, 0, 0, -1, -2, 0, -2, -4, 0
1503616377205,-3, 4, 2, 0, 0, 1, 1, 1, 0
1503616377221,32, 0, -2, -1, -3, 1, -1, -7, 0
1503616377242,30, 9, 0, 2, 0, -1, -2, 2, 0
1503616377265,-30, -4, 0, -1, 0, 0, 2, 2, 0
1503616377280,10, -4, -2, -1, 0, 0, 1, 5, 0
1503616377302,-43, -2, -1, 1, -3, 2, -2, -3, 0
1503616377325,-6, -4, -2, -3, -1, -1, -1, 2, 0
1503616377340,7, 2, 1, 0, -1, -5, -4, 1, 0
1503616377362,10, 3, 0, 0, -2, -2, 1, -5, 0
1503616377385,-5, -5, -2, -3, 0, -3, 2, -1, 0
1503616377400,-3, -3, -2, -1, -2, 1, -2, -3, 0
1503616377423,-6, -3, -1, -2, 1, -3, -2, -4, 0
1503616377444,-8, -2, -2, -1, -2, 3, -1, 2, 0
1503616377460,-2, -5, -2, -2, -1, 0, -3, -3, 0
1503616377482,-26, 1, 0, -3, 2, -2, -2, -9, 0
1503616377504,5, -11, -5, -2, -2, -1, -4, 0, 0
1503616377513,5, -2, -3, -2, -1, -2, 0, -6, 0
1503616377534,-47, -7, -3, -2, -2, 1, 0, 0, 0
1503616377560,-35, -2, -1, 0, -1, 2, -3, -2, 0
1503616377572,36, 4, 1, 0, 2, 0, 3, 4, 0
1503616377594,6, 0, -3, -1, 0, -3, -1, 3, 0
1503616377617,42, 1, 1, -4, -1, -1, 1, 2, 0
1503616377633,5, -1, 0, 1, -2, 1, -2, 2, 0
1503616377654,23, 4, -1, -1, -3, -2, -2, -5, 0
1503616377676,-34, -3, 0, -1, -1, 0, -1, 0, 0
1503616377692,6, -1, 1, -1, -2, 1, -3, -7, 0
1503616377714,-9, -2, -2, 0, 0, -2, -1, -6, 0
1503616377736,11, 1, -2, -1, -3, -2, -1, 0, 0
1503616377752,21, 8, 1, -3, -2, -1, -6, -10, 0
1503616377774,-10, -3, 1, 1, -3, -1, 2, 0, 0
1503616377796,-13, -7, -1, 0, 0, 1, 1, 0, 0
1503616377812,-5, -5, -4, -1, -1, 0, -1, -2, 0
1503616377835,35, 7, -1, -2, -3, 1, -1, 5, 0
1503616377856,63, 9, 2, -3, 1, 1, -1, -2, 0
1503616377865,4, -3, -2, 0, 2, 0, -1, -1, 0
1503616377887,-2, 2, 0, -1, -2, 0, 1, 6, 0
1503616377903,15, 0, -1, 0, -1, -1, 3, -1, 0
1503616377927,-18, 0, -3, -2, -3, 3, -3, -1, 0
1503616377947,17, 4, 1, 1, -1, -1, 2, 3, 0
1503616377963,5, -2, 1, -1, -1, -4, -5, -1, 0
1503616377985,-12, -1, 1, 1, 0, 0, -2, -1, 0
1503616378007,7, -2, -2, -2, -1, 4, 0, 3, 0
1503616378022,-8, -1, -3, 1, 1, -2, 0, -5, 0
1503616378044,-44, -7, 1, 1, -1, -2, -2, -10, 0
1503616378067,24, 1, -3, -1, 0, 0, 0, 0, 0
1503616378082,-27, -8, -1, -1, -2, -2, 1, -1, 0
1503616378105,47, 6, -2, -5, -2, 1, -2, -2, 0
1503616378128,-6, -1, -2, 0, 1, -1, 1, 1, 0
1503616378142,-3, -2, -3, -5, 0, -2, -2, 3, 0
1503616378165,-15, 5, 4, 3, 0, 1, -4, 4, 0
1503616378187,-14, -2, -3, -2, -2, 0, -1, -3, 0
1503616378203,-9, -3, 2, 1, 0, -1, -3, -7, 0
1503616378226,-31, -4, -1, 0, -3, -3, -1, -2, 0
1503616378247,33, 6, -3, -7, -5, -5, -4, 1, 0
1503616378264,-12, -3, -3, 0, -2, 0, 0, -3, 0
1503616378285,-5, -6, -3, -1, -1, -3, 1, -2, 0
1503616378307,-1, 0, -3, -9, 2, -1, 1, -3, 0
1503616378323,5, -1, -1, 3, 0, -2, 0, 3, 0
1503616378345,3, -1, -1, -1, -7, -2, 0, -1, 0
1503616378367,0, 0, -1, 2, 1, 2, -2, 1, 0
1503616378383,-3, -2, 0, 5, 0, 2, -1, -3, 0
1503616378405,0, -1, 6, -1, 0, -2, -2, 0, 0
1503616378427,-1, 0, -3, 8, -2, 1, 0, 2, 0
1503616378444,1, -4, -24, 1, -1, 6, 9, 1, 0
1503616378465,-2, -2, -14, -13, -7, -10, -9, -2, 0
1503616378487,0, 2, 18, 6, 2, 0, -2, -1, 0
1503616378510,-7, 7, 5, 1, 0, 1, -2, 0, 0
1503616378525,7, -2, -3, 2, 2, 0, -1, 5, 0
1503616378547,-1, 2, -7, -11, 2, -3, -2, -3, 0
1503616378570,3, 5, 2, 0, -1, 1, 2, -3, 0
1503616378584,25, 6, -8, -5, -3, -3, -4, 1, 0
1503616378607,-6, -10, 9, 4, -1, 1, -2, -7, 0
1503616378636,-19, -4, -4, 3, 0, 2, 11, 4, 0
1503616378659,-22, 9, 4, 3, -3, -9, -2, -3, 0
1503616378674,-5, -11, -5, -2, -1, 1, 7, 3, 0
1503616378698,-35, 7, 3, -1, -1, 1, 1, -2, 0
1503616378719,9, 0, 3, 0, 0, 4, 1, 2, 0
1503616378741,24, 0, -3, -1, 0, -5, 2, -7, 0
1503616378756,34, 6, -1, 1, 0, 5, 2, 1, 0
1503616378779,-1, -5, -4, -2, 0, -6, 2, -1, 0
1503616378794,-15, -61, -11, -2, -4, -1, -1, 0, 0
1503616378816,-16, -2, 3, 0, -3, -1, -8, -8, 0
1503616378839,-17, 3, -2, 0, 1, 0, -2, 4, 0
1503616378854,24, 17, 6, 2, 2, 1, 13, 4, 0
1503616378876,8, -20, 2, -2, -2, 0, 4, -4, 0
1503616378900,-21, 11, 0, -4, -1, 2, -1, 0, 0
1503616378914,-2, -5, -7, -4, -2, -3, -12, -17, 0
1503616378937,-6, 10, -8, -2, -5, -2, 10, -1, 0
1503616378959,18, -2, -3, 3, 3, -5, -12, 8, 0
1503616378975,29, 4, 6, 1, 1, 6, 24, 11, 0
1503616378996,-13, -2, 10, -2, -9, -5, -8, -8, 0
1503616379019,-4, -12, 3, -3, 5, 6, -4, -4, 0
1503616379035,-34, -55, -21, -6, -2, -6, -1, -2, 0
1503616379057,6, -21, -12, -5, -6, -5, -14, 3, 0
1503616379079,9, 25, 4, 2, 2, 5, -3, 3, 0
1503616379094,3, 23, 5, 1, -1, 1, 6, 1, 0
1503616379116,5, 22, 2, 0, -1, -2, -5, -12, 0
1503616379140,-34, 8, 1, 0, 1, -3, 0, 0, 0
1503616379163,64, 22, -7, -3, -4, -4, -3, 7, 0
1503616379179,13, 2, -3, 0, 0, -3, -3, -4, 0
1503616379185,11, -2, -1, -2, -4, -2, 1, -2, 0
1503616379207,-23, 5, -2, -2, -1, -4, -3, -5, 0
1503616379229,8, 1, -3, 0, 2, 3, 0, 1, 0
1503616379244,-34, -1, 0, -1, -3, -2, -1, 0, 0
1503616379269,20, 5, -5, -1, -2, -2, 0, -2, 0
1503616379289,16, -48, -23, -5, -3, 0, -3, -4, 0
1503616379305,3, 2, 9, 5, 5, 13, 11, 0, 0
1503616379327,23, 34, 17, 15, 4, -4, -11, 1, 0
1503616379349,29, 1, 0, -4, -1, 0, 6, -2, 0
1503616379364,-17, 42, 2, -1, -3, -1, -7, -2, 0
1503616379387,-2, -12, -9, -4, -1, -3, -14, 1, 0
1503616379410,-12, -21, -2, -3, -2, -3, -10, 4, 0
1503616379432,-5, -2, -4, -3, -1, 1, 16, -1, 0
1503616379447,-2, -24, 4, -2, -1, -2, -4, 0, 0
1503616379471,12, 2, 1, 1, 2, 7, 7, 3, 0
1503616379477,1, -1, 0, -2, -1, 19, 3, -5, 0
1503616379500,12, 7, 0, 2, 6, 39, -8, -4, 0
1503616379522,1, 4, 3, 2, 2, -17, -2, 3, 0
1503616379538,-16, -18, -4, -1, -1, -2, -16, -5, 0
1503616379560,-4, -2, -2, -3, -5, -5, 2, -2, 0
1503616379583,-2, -4, -6, -2, -4, -50, -2, 1, 0
1503616379598,-23, -5, -1, -3, 1, -1, -2, 1, 0
1503616379620,36, -5, 13, -2, -6, -19, -44, -2, 0
1503616379645,15, 4, -16, -4, -3, 30, 42, 2, 0
1503616379658,-62, 1, 0, 0, -6, -5, 15, 0, 0
1503616379680,33, 5, 6, -3, -1, 33, -15, -1, 0
1503616379706,4, 18, -1, 0, 4, 20, -28, -6, 0
1503616379717,-19, 6, -7, -4, 2, 21, 10, -4, 0
1503616379740,15, -14, -2, 2, 9, -69, 69, 6, 0
1503616379763,4, -1, 9, -3, -2, 3, -1, 0, 0
1503616379778,-7, -32, 7, 11, 0, 6, -19, -1, 0
1503616379800,-19, -21, 11, -4, 0, 12, -41, -8, 0
1503616379823,11, 13, -7, 3, 13, -87, 51, 7, 0
1503616379840,16, 9, -1, -5, -14, 17, -10, 13, 0
1503616379860,-7, 4, -5, 0, 0, 10, 19, -27, 0
1503616379883,1, 8, -1, 0, -2, 13, -1, 1, 0
1503616379898,-6, -2, -12, -3, -2, 1, -5, -2, 0
1503616379928,0, -1, -3, -3, 0, -8, 4, 12, 0
1503616379950,7, -5, -4, -6, 2, 6, 30, 5, 0
1503616379974,3, -4, 2, -3, -5, 9, 1, -2, 0
1503616379987,-30, 2, -5, -2, -3, -6, -3, -4, 0
1503616380010,3, -2, -5, -1, -2, 6, -10, -4, 0
1503616380032,3, 1, -1, 1, 1, 1, -17, -2, 0
1503616380047,18, -4, -4, -2, -3, 2, 15, 9, 0
1503616380070,6, -15, -5, 3, 6, 3, 2, -7, 0
1503616380092,-1, -10, -13, -6, -3, -2, 3, 1, 0
1503616380108,-14, 47, 20, 4, -2, -1, -5, -7, 0
1503616380123,-6, -12, -4, -1, 2, 4, 1, -1, 0
1503616380137,31, 0, -2, -2, 1, 0, 0, 1, 0
1503616380160,-13, 1, 7, -1, -2, -1, 1, -5, 0
1503616380183,13, 25, 23, 6, 0, -1, 3, 3, 0
1503616380190,-17, -4, -7, -3, -1, 0, -2, 4, 0
1503616380212,-4, 32, 13, 6, 1, 1, 0, -3, 0
1503616380227,-11, -14, 0, -2, 0, -5, 3, -8, 0
1503616380250,-7, 9, 9, -2, 0, -1, -1, -7, 0
1503616380272,-1, 37, 5, 3, 2, -3, 4, 9, 0
1503616380287,5, -24, -13, -4, -4, 0, 4, 6, 0
1503616380310,-32, -12, 4, -3, -4, -3, -5, 1, 0
1503616380325,-2, 6, 4, 1, 1, 1, 9, 3, 0
1503616380340,-7, -11, -12, -1, 0, -1, -3, 2, 0
1503616380363,-5, 4, 1, -3, 0, -1, -3, -5, 0
1503616380385,-4, 9, 0, 3, -1, -2, 0, 4, 0
1503616380400,-2, 3, 4, 0, -2, 0, -3, -1, 0
1503616380423,1, -1, 2, 0, -1, -4, 0, -4, 0
1503616380445,5, 16, 0, -5, -1, 3, 1, -2, 0
1503616380460,0, -4, -4, 0, -2, -3, 2, 0, 0
1503616380477,12, 3, -3, 3, 3, 2, 1, 0, 0
1503616380489,-8, -5, -6, -2, -2, 0, 1, 1, 0
1503616380520,1, 4, 4, 1, -1, -1, 1, -1, 0
1503616380535,-16, -4, -4, -3, -3, -2, -6, -2, 0
1503616380550,8, 2, -2, 2, -3, -4, -1, -3, 0
1503616380572,-3, -1, -2, 0, -4, -1, -3, -1, 0
1503616380594,-2, 1, 10, 7, 0, -1, -6, 3, 0
1503616380611,-14, -2, -6, -3, -3, -1, -4, -1, 0
1503616380624,0, 6, 11, 4, -1, 1, -2, -3, 0
1503616380640,-6, -6, -5, -2, -2, 0, 4, 3, 0
1503616380662,-2, -3, -3, 2, 0, -2, -5, -10, 0
1503616380684,2, 2, -1, 1, 0, 1, 3, 4, 0
1503616380700,2, 1, 7, 4, 4, -3, 0, 3, 0
1503616380724,2, -7, -3, -2, -5, 0, -1, 0, 0
1503616380747,-7, -4, -2, 0, -1, -2, -1, 4, 0
1503616380760,-12, 3, 1, 0, 2, -1, -10, -3, 0
1503616380782,-16, 5, -1, -2, -3, -2, -11, -6, 0
1503616380804,4, -3, -3, -3, -3, -1, -2, 1, 0
1503616380813,24, -1, 3, -2, -3, -5, -2, -3, 0
1503616380835,-8, 0, 1, 0, -1, 2, -1, 5, 0
1503616380850,5, -2, 1, 1, -1, -3, -4, 1, 0
1503616380872,-8, -9, -7, -3, -2, -1, 0, -4, 0
1503616380894,8, 2, -2, 4, 3, 5, 10, 3, 0
1503616380909,-9, 1, -2, -2, -4, -7, -7, -4, 0
1503616380932,-6, 4, 2, -1, 1, 2, 3, 3, 0
1503616380955,0, 1, 3, 2, -2, 1, -3, 5, 0
1503616380969,6, 0, 2, -1, -3, -1, -1, -8, 0
1503616380992,8, 4, -1, 2, 2, -3, -5, -1, 0
1503616381015,-15, -1, 13, 3, 1, 0, -2, -2, 0
1503616381045,13, -3, 7, 1, 3, -1, 1, -10, 0
1503616381060,-7, -4, -3, -3, -4, -4, -5, -8, 0
1503616381082,-27, 2, -5, -5, 1, 3, -3, 0, 0
1503616381089,22, 5, -3, -1, -1, -2, -11, -7, 0
1503616381105,-24, 29, 16, 4, 2, 1, 1, -16, 0
1503616381120,31, 19, 10, 1, 0, 2, -2, 3, 0
1503616381150,2, -2, -2, 3, 4, 4, 2, -1, 0
1503616381165,17, -2, 0, -2, -2, -4, -3, -7, 0
1503616381186,0, -3, -7, -2, -5, -1, -2, 3, 0
1503616381209,-12, -10, -6, -3, 0, -3, -1, -2, 0
1503616381225,40, -5, -4, -2, 1, -2, -6, 3, 0
1503616381240,-19, -9, -5, 0, -1, -1, -5, -12, 0
1503616381262,-1, 1, -2, -3, 0, -4, 2, 2, 0
1503616381277,-5, 4, 3, 0, -3, -2, -1, -4, 0
1503616381292,0, 0, -3, -3, -3, -2, -3, -5, 0
1503616381317,11, -2, -2, 0, 0, 1, -1, 22, 0
1503616381337,23, 9, 2, -2, -4, -1, -1, -8, 0
1503616381353,-8, -13, -10, -3, 0, -2, -3, -7, 0
1503616381374,-6, -1, -1, -1, -1, -2, 3, 2, 0
1503616381397,-8, -6, -2, 1, 2, -3, 0, 5, 0
1503616381412,-8, -3, 0, 0, -2, -1, 3, -12, 0
1503616381434,8, -16, -2, 0, 1, 0, -2, 5, 0
1503616381457,-29, 1, -2, 0, 1, -2, -7, -26, 0
1503616381472,-8, 8, -1, -2, -4, 0, 0, 6, 0
1503616381494,-4, 3, 0, 0, 0, 2, 4, 10, 0
1503616381518,16, 4, -1, -2, -5, -2, 1, 4, 0
1503616381532,-10, -3, 2, 0, 2, -2, -7, -9, 0
1503616381555,-3, -1, 0, -1, -2, -1, 1, 10, 0
1503616381577,-17, 9, 9, 2, 1, -1, -7, -7, 0
1503616381592,-7, -6, -5, 1, 9, 3, 0, -5, 0
1503616381614,25, 1, -1, -3, -1, 0, 1, 3, 0
1503616381637,8, 6, 1, -1, -3, -2, 3, 5, 0
1503616381655,-2, -3, -4, -2, -2, -1, -3, -6, 0
1503616381674,24, 4, -1, -3, -2, -1, -2, -2, 0
1503616381697,-8, 1, 2, 8, 3, 1, 0, -3, 0
1503616381712,-6, 28, 11, -1, -1, -1, 4, 2, 0
1503616381734,4, -10, -6, -3, -4, -1, 10, 9, 0
1503616381757,-10, -9, -4, 0, 0, -2, 1, 4, 1
1503616381772,4, 1, 4, 4, 0, -1, -3, 0, 1
1503616381795,-2, -6, -4, -4, -2, 0, -8, -12, 1
1503616381817,3, -9, -5, -4, -5, -2, 3, 9, 1
1503616381826,1, 1, -1, -1, -5, -4, 0, -9, 1
1503616381847,-16, -3, -1, -2, 1, 0, -6, -1, 1
1503616381863,13, -6, -3, 0, -2, -1, -1, -1, 1
1503616381888,-8, 2, -4, 0, 2, 0, 1, 2, 1
1503616381907,1, -6, -1, -5, -5, -2, 1, -4, 1
1503616381923,0, 4, 5, 0, 0, 3, 0, 6, 1
1503616381945,10, 4, 2, 0, -5, -4, -1, 5, 1
1503616381967,2, -3, 0, 0, 4, 4, 7, 4, 1
1503616381982,2, -4, -3, -4, -4, -3, 1, 4, 1
1503616382005,10, -1, -2, 0, 3, 0, -4, 5, 1
1503616382027,3, 3, -3, -1, 1, 2, -6, -6, 1
1503616382042,-1, 1, -1, 0, 1, 0, 1, 2, 1
1503616382065,-1, -12, -3, 3, 1, -3, -2, -3, 1
1503616382089,-4, -2, -7, -4, -2, -1, 8, -7, 1
1503616382102,4, 7, -3, -5, -3, -3, -6, 4, 1
1503616382126,1, 7, 2, -2, -2, 0, 2, 4, 1
1503616382147,-2, 1, 8, 2, 0, 4, -6, -10, 1
1503616382162,-15, 1, -11, -4, -4, -6, -5, -9, 1
1503616382177,4, -12, -9, -3, -1, -1, -9, -2, 1
1503616382199,-14, 0, 0, -1, -1, -1, 5, -20, 1
1503616382214,1, -1, -1, 1, 1, -1, -3, 1, 1
1503616382237,-4, 6, 5, 2, -4, 1, 4, 6, 1
1503616382266,-2, -2, 0, -3, 2, 0, -4, 5, 1
1503616382274,7, -1, -5, -1, -3, -5, 1, 0, 1
1503616382297,-3, 0, 1, 0, -2, -1, 2, 3, 1
1503616382319,2, 25, 18, 1, 2, -1, -20, -16, 1
1503616382334,-8, -10, -5, 0, -1, -3, 5, 2, 1
1503616382357,-6, -8, 0, 0, 4, 1, 1, -6, 1
1503616382366,1, -6, -5, 1, 1, -2, 1, -3, 1
1503616382387,-6, 0, -3, 2, -3, 1, -3, 2, 1
1503616382409,3, -3, -7, -3, 0, -2, 1, -3, 1
1503616382425,-2, -15, -8, -4, -2, -3, -8, -13, 1
1503616382447,0, 5, 2, -1, -2, -1, 0, -4, 1
1503616382476,4, 6, 5, 3, 2, 0, 1, 0, 1
1503616382485,0, 9, 1, -3, -4, -4, -16, -6, 1
1503616382507,-3, -9, 6, 1, 1, 0, 2, -2, 1
1503616382529,-10, -19, -6, -4, 2, -1, 1, -1, 1
1503616382545,3, -4, -4, -2, -2, 1, 4, 5, 1
1503616382567,2, 5, 1, 1, -2, 3, 6, 2, 1
1503616382590,-2, 10, 6, 1, 2, 0, 4, -1, 1
1503616382612,0, 12, 5, 1, 3, -3, -4, 2, 1
1503616382627,2, -2, -5, 1, -1, -4, -2, -1, 1
1503616382649,-1, -2, -3, -1, -2, 1, -4, -2, 1
1503616382665,0, -4, 6, -1, -1, -1, -5, -4, 0
1503616382687,3, -1, -8, -4, -2, -3, 6, 0, 0
1503616382716,-6, -10, -5, -2, -3, 0, 1, 3, 0
1503616382727,2, -4, -1, -1, -4, 0, 2, 3, 0
1503616382747,1, 7, 11, 3, 3, -3, -6, -1, 0
1503616382770,9, 11, -4, 0, -4, 3, 2, 0, 0
1503616382785,-4, -7, -5, -4, -2, -3, -4, -3, 0
1503616382807,-6, -9, -7, -2, -2, -2, -3, -7, 0
1503616382830,-6, -7, 3, 1, 2, 1, 1, 1, 0
1503616382846,6, 7, -2, -1, -2, 0, -3, 1, 0
1503616382867,2, 1, -2, 0, 2, 0, -3, 3, 0
1503616382889,0, 6, 1, 3, 2, -4, -6, -2, 0
1503616382905,-2, 27, 6, 1, -1, 3, 4, -2, 0
1503616382928,7, -6, -1, 1, -1, -4, 0, -6, 0
1503616382949,-1, -2, -4, -6, -2, 1, 1, 0, 0
1503616382966,-12, -2, 12, 1, -1, -1, 0, 0, 0
1503616382987,19, -3, -8, -4, -4, 3, 7, 1, 0
1503616383009,-17, -17, -7, 1, 0, -3, -1, -6, 0
1503616383025,2, -4, -7, -2, 3, -1, -2, -1, 0
1503616383047,-14, 2, -1, -3, -4, 1, -6, -7, 0
1503616383069,12, 10, 5, 2, 0, 2, -3, -3, 0
1503616383085,-11, 2, -6, -1, -2, -4, -5, 5, 0
1503616383107,-6, 4, 12, 5, 3, 0, 3, -2, 0
1503616383130,4, -5, -5, -4, 0, 0, 0, 4, 0
1503616383152,12, 21, 3, 1, -2, -4, -3, 1, 0
1503616383167,7, 1, -9, -5, -2, -1, 2, 9, 0
1503616383190,-5, -13, 2, 6, 0, 2, -2, 0, 0
1503616383212,-9, 1, 0, -2, -4, 1, 5, 5, 0
1503616383227,0, -6, -1, -3, -1, -1, 0, -7, 0
1503616383250,-2, -5, -3, 1, 2, 0, -1, -9, 0
1503616383273,-2, -3, 2, 4, 3, 0, -3, -5, 0
1503616383287,-5, -10, -4, -2, -1, 2, -3, -1, 0
1503616383309,-2, 8, 2, 0, 0, -2, 11, 6, 0
1503616383332,-10, -22, -4, -2, -2, -6, -3, -3, 0
1503616383347,-1, 8, -9, -5, -5, -1, -3, -2, 0
1503616383369,1, -14, -8, -3, -3, -3, -11, -6, 0
1503616383392,2, 12, 5, 1, 0, -1, 3, 12, 0
1503616383407,0, 4, 4, -1, 0, 0, 0, 5, 0
1503616383432,-2, -7, -3, -1, -1, -1, -4, -4, 0
1503616383453,1, 1, 1, 1, -1, 0, 1, -4, 0
1503616383467,1, -5, -1, -1, -1, -1, 2, 0, 0
1503616383489,-5, 3, -4, 0, -2, 3, 5, -1, 0
1503616383500,-5, 4, 1, -2, 0, -1, 6, 5, 0
1503616383519,-4, -12, -6, -2, -1, 1, 3, -3, 0
1503616383542,1, 7, 3, 0, -1, 1, -4, -3, 0
1503616383557,-3, -12, 0, 0, -2, -1, 5, -4, 0
1503616383579,-4, 10, 0, -3, -2, -4, -7, -16, 0
1503616383601,2, 9, 1, 4, 0, 0, 4, 10, 0
1503616383617,3, 1, 1, 0, 0, 0, 1, -4, 0
1503616383639,3, 7, 1, -2, 1, -1, -2, 0, 0
1503616383661,-5, -9, -7, -3, -4, -1, -4, -2, 0
1503616383677,0, -14, -8, 0, 1, 0, -2, -2, 0
1503616383700,-3, -6, -3, -1, 0, -2, -1, -3, 0
1503616383721,4, 5, 2, -2, -5, -5, -1, 5, 0
1503616383737,0, 35, 14, 1, 0, 1, -7, -6, 0
1503616383774,0, -12, -8, -1, -2, -1, -1, -2, 0
1503616383789,1, -12, -8, -4, 0, -4, 2, -3, 0
1503616383813,-2, -5, -2, -1, 0, -2, -3, 0, 0
1503616383827,3, -2, -6, -1, -1, 0, 0, 2, 0
1503616383849,-6, 1, 1, 0, 0, -1, 2, 1, 0
1503616383872,-1, -10, -6, -1, -1, 1, 4, 0, 0
1503616383887,0, -25, -9, -5, -1, 2, -1, -3, 0
1503616383910,-8, 1, -4, -1, -3, -2, -2, -2, 0
1503616383932,3, 10, 1, 0, -2, -1, 1, 1, 0
1503616383947,0, 7, -4, 3, -3, 2, -4, -2, 0
1503616383970,3, 1, 1, -4, 0, -1, -1, 1, 0
1503616383992,-1, 13, 5, 0, 1, -3, 0, -1, 0
1503616384009,-1, -15, -7, -1, 1, 2, 0, -5, 0
1503616384029,-1, -4, -5, -3, -2, -3, -3, -3, 0
1503616384052,4, 2, 7, 1, 0, 1, 5, 3, 0
1503616384075,0, -5, 5, 1, 0, 0, 0, -1, 0
1503616384089,-6, -2, 0, 0, 1, -3, -5, -1, 0
1503616384112,-2, 6, 3, -5, -5, -1, 2, -3, 0
1503616384139,-2, 4, 0, 1, 1, -3, 0, 2, 0
1503616384149,5, -8, -4, -3, -1, -1, 0, 0, 0
1503616384172,5, 34, -1, 0, -2, 1, -1, 2, 0
1503616384194,-2, -6, 1, 1, -1, 0, -4, 3, 0
1503616384210,1, -3, -5, -7, 0, -3, -2, 0, 0
1503616384232,-4, -5, 2, 1, 0, 3, 3, -4, 0
1503616384254,-4, -13, -4, 0, -1, 1, -4, -1, 0
1503616384271,1, 11, -2, -1, 0, -1, 1, -2, 0
1503616384292,3, -4, 19, 4, 1, -2, 2, -1, 0
1503616384314,-4, -16, -12, -6, -1, -2, -4, -3, 0
1503616384329,-2, 1, -1, -2, -1, -1, 2, 0, 0
1503616384352,1, 23, 4, -1, 0, -4, 0, -2, 0
1503616384374,-2, -4, -3, 2, -4, -1, -1, -1, 0
1503616384389,3, 11, -2, 3, 1, 0, -1, 3, 0
1503616384412,-2, -7, -7, -3, -3, 0, -5, -1, 0
1503616384434,-2, 5, 0, -1, 0, -1, -1, 1, 0
1503616384449,1, -3, 0, -2, -2, -2, -1, -3, 0
1503616384472,2, 7, 5, 4, -1, -1, 0, 0, 0
1503616384494,0, 7, 1, -4, -1, -1, 3, 0, 0
1503616384509,-2, -3, -8, -2, 0, 0, -2, -2, 0
1503616384532,-3, -25, -5, 0, -3, -1, -3, 0, 0
1503616384554,-5, 2, 3, 2, 2, -2, -1, -4, 0
1503616384569,1, -4, 1, 0, 0, 0, -2, -2, 0
1503616384592,0, 0, 5, -1, -1, -2, 0, 1, 0
1503616384615,1, 8, -2, 0, 1, 1, -1, -1, 0
1503616384629,-2, -2, 1, -2, -3, 0, 0, -1, 0
1503616384652,-2, -15, -3, -5, -3, -2, 0, 3, 0
1503616384674,0, -6, -3, 0, 0, -1, -1, 0, 0
1503616384689,1, -15, -4, 1, -1, -1, -2, 1, 0
1503616384712,-1, 2, -5, -1, -2, -1, -2, 0, 0
1503616384734,2, 3, -2, 2, 1, 1, -1, -2, 0
1503616384750,-3, 4, -2, -3, -2, -3, -1, -7, 0
1503616384774,0, 12, -2, -2, 0, 1, -1, 1, 0
1503616384801,-1, 1, 16, 1, 0, -3, -1, 2, 0
1503616384811,-3, -5, -3, -3, 0, 0, -3, 0, 0
1503616384832,-1, -10, -8, -2, -1, 1, -1, -1, 0
1503616384854,-1, 2, 0, 3, -2, 0, -1, -2, 0
1503616384869,-2, 1, 5, 0, 0, -1, 0, 0, 0
1503616384892,-1, -4, -3, 0, -1, 1, 0, -1, 0
1503616384912,0, 1, 2, 0, -2, -1, 1, -2, 0
1503616384922,-3, 1, -4, -3, -3, -1, -4, -2, 0
1503616384946,-1, -22, -3, 4, -1, -2, 2, -1, 0
1503616384967,0, -6, -5, -4, 0, 0, -2, 2, 0
1503616384982,-2, -4, -7, -5, -1, -1, 1, 0, 0
1503616385005,-1, 0, 2, 4, 0, 1, -2, 0, 0
1503616385027,-1, -7, -2, 0, 0, -3, -1, -2, 0
1503616385050,1, 31, 1, -2, 2, 1, -1, -1, 0
1503616385071,-2, 18, 3, -1, -1, -2, -1, 1, 0
1503616385073,-3, -4, -2, -4, -2, -2, -1, -2, 0
1503616385094,-2, -3, -4, -1, -1, -2, 0, 1, 0
1503616385117,1, 18, -3, -2, 0, -4, -2, -4, 0
1503616385132,-3, -13, -8, -4, 0, -3, -5, 0, 0
1503616385154,-6, 3, -7, -4, -2, 0, -3, -2, 0
1503616385180,-3, 1, -3, -2, -1, 0, 1, -2, 0
1503616385192,2, 0, 7, 2, 0, 0, -2, 3, 0
1503616385214,3, -10, -1, 3, -2, 1, 3, -3, 0
1503616385237,0, -5, -2, -1, -1, 1, -2, -2, 0
1503616385252,-3, -3, -2, 2, -2, -4, 1, -1, 0
1503616385274,-3, -16, -3, -6, -1, 1, -1, -1, 0
1503616385297,1, -4, 3, 1, 0, 0, 2, 1, 0
1503616385312,-2, 0, 1, -1, -1, 0, -1, 0, 0
1503616385334,-2, 10, -1, -2, 1, -1, -2, 0, 0
1503616385357,-2, -14, 1, 2, -1, 0, -1, 0, 0
1503616385372,-3, -6, -1, 1, -1, 1, -3, -2, 0
1503616385394,2, 20, -10, 1, -1, -2, 0, -1, 0
1503616385417,1, -14, -4, -7, -2, -4, -1, 0, 0
1503616385432,-3, 2, 3, -2, 1, 0, -1, -2, 0
1503616385454,-6, 2, -12, -2, -3, 3, 0, -2, 0
1503616385480,-13, -1, 4, 3, 0, -4, 0, 3, 0
1503616385492,9, 7, 27, 2, 2, -2, -2, -3, 0
1503616385514,-5, 2, -3, 0, -1, 1, -1, 1, 0
1503616385537,5, -1, 8, -1, -1, 1, -1, -3, 0
1503616385552,0, 7, -1, -3, -1, -3, -4, 0, 0
1503616385567,49, 5, 4, 0, -1, -1, -1, 1, 0
1503616385583,-24, -2, -5, -3, -3, -2, 1, 3, 0
1503616385605,-5, -2, 5, -2, -1, 1, -2, -7, 0
1503616385627,6, -1, -5, 6, 0, -2, 3, 4, 0
1503616385642,-6, -1, -9, 5, 2, 1, 0, -5, 0
1503616385665,-13, 0, 8, -2, 2, -1, 0, 0, 0
1503616385687,12, 5, 0, -1, -1, 2, -3, 2, 0
1503616385703,10, 4, -8, -3, -1, 1, 0, 0, 0
1503616385725,-5, -1, 3, -3, -3, 2, 0, -3, 0
1503616385749,6, -2, 14, -8, 3, -4, 1, 0, 0
1503616385762,2, -2, 0, 3, -4, -2, -3, -5, 0
1503616385785,-2, -4, -13, -1, -1, -5, 1, 1, 0
1503616385807,6, 2, 9, 8, 2, 3, -3, -2, 0
1503616385822,-20, 4, 0, -1, -2, 0, -1, 3, 0
1503616385845,-15, -11, -12, 0, -3, 1, 4, 0, 0
1503616385867,-3, -6, -7, -4, -4, 0, -5, -3, 0
1503616385883,4, 1, 6, 0, 2, -3, 0, 1, 0
1503616385905,-4, -3, -3, -1, -4, -3, 0, -2, 0
1503616385927,7, -6, 7, 2, 0, -1, 0, 0, 0
1503616385949,-7, 3, 0, -4, 1, 1, -5, -3, 0
1503616385965,-11, 1, -13, -4, 2, 2, -1, 2, 0
1503616385987,5, 8, 4, 1, -2, -1, 2, -3, 0
1503616386009,9, -5, -9, -3, -2, -1, 0, 1, 0
1503616386025,-5, 0, 4, 0, -1, -1, -3, -1, 0
1503616386051,-3, -1, 5, 3, 0, -1, 0, -1, 0
1503616386069,17, 3, 0, -1, 1, 1, -1, -1, 0
1503616386087,10, -4, -2, -9, -2, -4, -2, -1, 0
1503616386107,-17, -8, -4, 1, -2, -4, 0, 0, 0
1503616386129,0, 1, 3, 1, 0, -3, 0, -2, 0
1503616386145,24, 8, 11, 2, 2, 3, -1, 2, 0
1503616386160,-4, -7, 1, 2, 0, 0, -1, 0, 0
1503616386174,8, -2, -6, -5, 0, -1, 1, 3, 0
1503616386197,3, -2, -6, 0, -1, -2, -4, 2, 0
1503616386220,-1, 6, 4, -3, 0, -2, 3, -2, 0
1503616386234,-3, -4, 1, -2, -1, 1, -2, -2, 0
1503616386260,4, 7, -3, -8, -2, -3, 0, 0, 0
1503616386279,0, -7, 2, 1, 0, 1, 0, 0, 0
1503616386287,-5, 4, 2, -1, -3, 0, -1, 1, 0
1503616386319,-14, -12, -1, 4, 1, 1, 2, 1, 0
1503616386325,16, 16, -4, -3, -5, -1, -2, -2, 0
1503616386351,-11, -1, 7, 4, 2, -1, 0, -1, 0
1503616386369,0, -5, -4, -3, 1, 1, -3, 2, 0
1503616386387,-5, -1, 2, -2, 0, 0, 0, -2, 0
1503616386407,3, 0, -3, -2, -3, -2, -4, 0, 0
1503616386429,-16, -15, -9, -5, -1, 1, -1, 0, 0
1503616386445,-6, -4, 3, 1, 0, -2, 0, -2, 0
1503616386467,-1, 3, -3, -2, -4, -3, -1, 0, 0
1503616386489,-37, -7, -1, 2, 0, 1, 0, -3, 0
1503616386497,-19, -6, -3, -3, 1, 1, -3, -3, 0
1503616386521,-3, -3, 2, -1, -1, 2, -3, 0, 0
1503616386534,4, 1, -1, -1, -4, -3, 1, -5, 0
1503616386557,24, -2, -6, -4, -1, -3, -1, -1, 0
1503616386579,-13, -10, -5, 0, -1, 1, 1, 0, 0
1503616386595,6, -5, -4, -1, 0, -2, -2, -3, 0
1503616386617,10, 2, 7, 3, -2, 1, -2, 3, 0
1503616386639,-2, 1, -3, -2, 2, 1, 0, -1, 0
1503616386655,21, 16, 0, -2, -1, 0, 2, -1, 0
1503616386677,-3, 0, 4, 0, 1, 0, -2, -7, 0
1503616386699,7, -4, 1, 0, -1, -3, 0, 2, 0
1503616386714,-41, -2, -5, -2, -3, -1, -3, -3, 0
1503616386737,2, -6, -2, -1, -3, 1, 0, 2, 0
1503616386760,-18, -2, -1, 0, -1, -1, 0, 2, 0
1503616386774,39, 4, 0, 0, 3, -5, -3, -5, 0
1503616386797,-13, 3, 12, 5, -1, 0, 1, -1, 0
1503616386821,0, -6, -9, -2, 1, 0, 0, 1, 0
1503616386828,3, 0, 1, 2, -3, 0, 1, -3, 0
1503616386849,43, 2, -4, -2, -1, 1, -3, 2, 0
1503616386872,-4, 0, -1, -1, 0, 0, 1, 0, 0
1503616386895,6, 5, 9, 2, -1, -2, 0, 1, 0
1503616386909,-58, -10, -6, -2, -3, 0, -1, -2, 0
1503616386932,11, 0, -4, 1, 0, -2, -1, 1, 1
1503616386947,-10, -5, -4, -4, -1, -4, -2, -1, 1
1503616386969,17, -3, 0, 0, -1, 1, 1, 3, 1
1503616386992,11, -1, -2, -2, -2, 1, -1, -1, 1
1503616387007,10, 4, 8, -1, 1, -3, -2, -4, 1
1503616387030,6, -2, -4, -1, -1, -1, 0, -2, 1
1503616387052,-3, -1, -3, -3, 0, -1, -2, 2, 1
1503616387067,7, 6, -3, 1, 0, 1, -5, -8, 1
1503616387095,-5, -2, 0, -2, -2, -1, -3, 1, 1
1503616387112,-18, -2, -3, -1, 0, 1, -1, -2, 1
1503616387128,3, -5, 2, -1, 2, 0, 2, -6, 1
1503616387149,-6, -7, -8, -3, -4, 1, 3, 4, 1
1503616387172,-27, 9, 1, 0, -1, -3, 0, 0, 1
1503616387187,17, -3, -2, 0, 2, -2, -4, -9, 1
1503616387209,-4, -1, -1, 0, 4, -2, 1, -3, 1
1503616387232,27, 5, 10, 0, -2, 2, -5, 1, 1
1503616387247,-8, -3, -1, -2, -1, 2, 1, 5, 1
1503616387269,3, -9, -5, -2, -1, -2, 0, -2, 1
1503616387292,-16, -4, 0, 0, -3, -1, 3, -4, 1
1503616387307,-12, 2, -4, -4, -3, 2, 13, -3, 1
1503616387329,-6, -1, -4, 1, 0, -1, -3, 3, 1
1503616387352,-4, 2, 12, 3, -1, -1, -4, -3, 1
1503616387360,-37, -13, 2, 1, -1, -1, -2, -11, 1
1503616387368,14, -4, -3, 0, 2, 1, -4, 3, 1
1503616387389,-5, 6, -4, 0, -6, -10, -6, -19, 1
1503616387412,-36, -4, -13, -3, 0, -1, -5, 8, 1
1503616387427,5, -7, 0, -1, -3, -3, -3, -1, 1
1503616387449,-14, 0, 7, 0, -1, 1, 10, 24, 1
1503616387472,8, -9, -4, -2, 3, 5, -1, -2, 1
1503616387487,28, 4, 2, 2, 2, -3, -11, -7, 1
1503616387509,49, 8, 0, -1, -1, 0, -2, 13, 1
1503616387532,-32, 1, -4, -2, 0, -1, 2, 0, 1
1503616387547,-23, -1, -12, -4, 0, -2, -2, -6, 1
1503616387569,-8, -14, -2, -1, 0, 0, 5, 2, 1
1503616387577,-2, -1, -4, -1, -3, -3, -17, -13, 1
1503616387607,13, 0, 0, 1, -1, 2, 3, 7, 1
1503616387630,11, 6, 14, 3, 0, -3, -1, -3, 1
1503616387652,8, 8, -4, 1, 1, 3, 1, -2, 1
1503616387669,-7, -8, -8, -4, -3, -2, -10, -12, 1
1503616387689,-21, -10, -7, -2, -4, -1, -4, -8, 1
1503616387712,13, 15, -2, -1, 2, -1, -4, 3, 1
1503616387729,-36, 8, -1, -1, 0, 4, 4, -1, 1
1503616387749,-8, 14, 7, 0, 0, -3, -4, -3, 1
1503616387772,-2, -6, -1, -4, -5, -2, -4, -1, 1
1503616387795,-21, -10, -2, 1, -3, -2, 0, -2, 1
1503616387809,26, 1, -5, -4, 0, -4, 1, 3, 1
1503616387835,10, -14, -3, -2, -1, -2, -1, 1, 1
1503616387854,-6, -9, -2, 0, 0, -1, 2, 5, 1
1503616387869,5, -13, -1, 0, -1, 1, -2, -12, 1
1503616387892,26, 26, 15, 2, 0, -1, 2, 3, 1
1503616387914,5, -8, -3, 0, 1, -1, -6, -6, 1
1503616387930,-5, 4, 9, 1, -3, -1, -1, 1, 1
1503616387951,10, -4, -8, -2, 2, -2, 2, 2, 1
1503616387974,3, -1, -4, -1, 0, -2, -1, -1, 1
1503616387989,-11, 0, -1, -2, -4, 0, -3, -4, 1
1503616388011,-4, -3, -8, -2, -2, 1, -1, -3, 1
1503616388035,-21, -29, 0, 1, -2, -1, -1, -2, 1
1503616388049,2, 5, -1, -1, -1, -1, -2, 0, 1
1503616388072,-8, -1, -5, -2, -2, 0, 0, -1, 1
1503616388094,-16, 3, -2, -1, 1, -1, -1, -3, 1
1503616388110,8, 3, -6, -3, -4, -1, 6, 1, 1
1503616388132,-15, 7, 1, 3, 1, 1, 0, -2, 1
1503616388154,7, -11, -1, 0, 2, 0, 1, 1, 1
1503616388170,-1, -10, -5, 0, -2, -2, -1, 2, 1
1503616388184,0, 6, 4, 1, 1, -1, 0, -2, 0
1503616388199,4, -1, 0, -2, -1, -2, 2, 1, 0
1503616388222,6, 0, -4, -1, -1, -2, 1, 0, 0
1503616388244,-11, 0, 3, 2, 0, 4, -2, 3, 0
1503616388259,21, 37, 6, 1, 0, -1, 3, -1, 0
1503616388282,1, -17, -7, -3, -1, -1, -5, -4, 0
1503616388306,-5, -4, -3, -2, -1, 0, 12, 8, 0
1503616388319,2, 8, 3, 2, -4, -1, -3, -8, 0
1503616388342,-10, -3, 0, -2, -3, -2, 0, -1, 0
1503616388371,-15, -13, -2, -2, 1, 0, 1, 0, 0
1503616388379,-29, -14, -1, -3, -1, -4, -19, -19, 0
1503616388403,-21, -2, -2, -1, -3, 1, 1, 7, 0
1503616388423,10, 3, -2, -2, -2, -3, -1, 2, 0
1503616388446,6, -3, -1, 3, 3, 3, 2, 3, 0
1503616388462,8, -8, -5, 0, -2, -3, -11, -12, 0
1503616388484,9, 6, 0, 1, 0, 0, 2, -6, 0
1503616388500,-5, -3, 1, 0, -2, 1, 2, 0, 0
1503616388522,-14, 4, -1, -1, -2, -2, 0, 2, 0
1503616388544,15, 7, -2, -1, -1, -4, 2, 8, 0
1503616388559,-38, 6, 3, -5, 1, -2, 3, 0, 0
1503616388582,11, -6, -4, -2, -1, 0, 3, -3, 0
1503616388607,9, -13, -6, -3, -2, -2, -3, 0, 0
1503616388619,10, 24, 8, 1, 3, 1, 7, 2, 0
1503616388642,-20, 10, -4, -4, -3, -3, 1, 2, 0
1503616388664,-17, -8, -2, -2, -4, 4, -1, 1, 0
1503616388679,14, -6, 1, 0, 0, -1, 3, 3, 0
1503616388702,11, 1, 0, 3, 0, -1, -6, -1, 0
1503616388723,1, -4, -3, -3, -2, -2, -8, -8, 0
1503616388746,16, -32, -7, 0, -1, 2, -4, -3, 0
1503616388762,-16, -16, -6, -1, 0, -2, -5, -1, 0
1503616388783,19, 9, 0, -1, -2, 0, 0, 4, 0
1503616388806,3, 2, -1, -2, 0, -4, -10, 0, 0
1503616388821,0, 5, -1, -2, 1, -3, 1, 2, 0
1503616388844,-2, 5, -1, -1, -2, -2, -2, -1, 0
1503616388866,3, -13, 2, 0, 1, 1, 13, 7, 0
1503616388888,6, 14, 11, 3, -1, 1, 4, 4, 0
1503616388911,-4, 10, -2, -2, -3, 2, 1, 3, 0
1503616388926,3, 0, -3, -1, -1, 2, -10, 4, 0
1503616388942,-4, -13, -3, -1, -1, -2, 6, -10, 0
1503616388957,0, -3, 2, 2, 1, 0, 5, -4, 0
1503616388973,8, 15, -4, -1, -2, 1, 3, 13, 0
1503616388994,-3, -6, 0, 0, 1, -3, -7, -4, 0
1503616389017,0, 5, 5, -1, 0, 1, 4, 3, 0
1503616389032,3, -8, -10, -2, -1, 0, -3, -2, 0
1503616389054,-6, -17, -2, 0, 1, -3, -15, -15, 0
1503616389062,-3, -1, -2, 1, -2, 1, -2, 0, 0
1503616389083,-4, 4, 3, 1, 3, -2, -6, -6, 0
1503616389106,2, -5, 0, 0, -3, 1, 0, 3, 0
1503616389122,1, 3, -1, -3, -2, -2, -4, -5, 0
1503616389143,-2, -2, -1, 1, 1, 1, 1, -1, 0
1503616389152,-3, 12, -2, -3, -2, -5, -10, -5, 0
1503616389174,-5, -29, -8, -1, 1, 0, 6, -2, 0
1503616389197,1, 15, 9, 0, 0, -1, 1, 4, 0
1503616389212,0, -3, -2, -1, -1, 2, 1, 0, 0
1503616389234,2, 17, -2, 0, -2, -2, 0, -2, 0
1503616389257,-2, -18, -4, -3, -2, 0, 3, -1, 0
1503616389272,4, 0, -2, 2, 0, 0, -1, 4, 0
1503616389294,-3, -5, -1, -2, -1, -1, -3, -4, 0
1503616389317,-1, 1, -1, -1, -4, 0, -1, -2, 0
1503616389331,-2, -13, -7, -3, 1, -1, -2, 2, 0
1503616389354,-9, -17, 4, 1, 0, 2, 0, -2, 0
1503616389377,1, 12, 1, 0, -2, 0, -1, -6, 0
1503616389384,-1, 4, -1, 0, 1, 1, -2, -2, 0
1503616389407,-1, 6, 5, 0, -2, -1, -1, 1, 0
1503616389421,-3, 4, -3, 0, -2, 1, 3, -1, 0
1503616389444,4, -3, -3, -3, -3, -4, -1, 0, 0
1503616389452,-1, -3, -7, -1, -2, -4, -1, -2, 0
1503616389475,4, -16, -1, -1, 0, 1, -2, 0, 0
1503616389497,-7, 3, 1, 2, 0, 1, -2, 0, 0
1503616389512,7, 0, -1, -2, -3, -4, -1, 2, 0
1503616389534,-1, 3, 0, 0, -4, -3, 1, -3, 0
1503616389557,3, 16, -5, -3, 1, -1, -2, -4, 0
1503616389575,-1, -1, -4, -3, -1, -1, -2, 5, 0
1503616389594,-2, -2, 1, -1, -2, 0, -1, -3, 0
1503616389602,7, 0, 0, 0, -1, 1, 0, 1, 0
1503616389623,-7, -6, -2, -2, 0, -3, -1, -1, 0
1503616389646,11, -2, 9, 4, -1, -2, -2, -1, 0
1503616389668,-4, 7, 0, 1, 2, 1, -1, 1, 0
1503616389683,1, 4, -2, 0, -1, 0, -2, -2, 0
1503616389708,0, 15, 1, -3, 0, -4, 1, -1, 0
1503616389729,0, 14, 5, 2, 0, 2, 0, 1, 0
1503616389752,4, -17, 1, 0, -2, 2, 0, -1, 0
1503616389767,7, 3, 1, -2, 0, -1, -2, -2, 0
1503616389789,-10, -6, -8, -1, 0, 0, 2, -3, 0
1503616389812,-1, 3, -1, -4, -2, 0, -2, 0, 0
1503616389827,8, -7, 3, 2, 0, -4, -2, -4, 0
1503616389850,-8, -5, -2, -1, -1, 1, -3, 3, 0
1503616389872,6, -2, -1, 0, -1, -1, 0, -1, 0
1503616389887,1, -11, -4, 1, -3, 0, 0, -3, 0
1503616389910,0, 19, -1, -2, 0, -2, -2, 1, 0
1503616389932,-8, -13, 4, -1, -3, -2, 1, -3, 0
1503616389947,-4, 9, -6, -1, -1, -1, 0, 0, 0
1503616389969,-12, -4, -8, -2, -2, -1, -2, -3, 0
1503616389992,4, -10, -6, -2, 0, 1, -1, 1, 0
1503616390012,1, -9, 0, 1, 1, -4, 0, 0, 0
1503616390030,0, -18, -8, -3, -2, -1, 0, -4, 0
1503616390052,7, 11, -5, -2, -2, -1, -1, 4, 0
1503616390067,-3, -1, -2, 1, -1, 0, -2, -1, 0
1503616390090,0, 11, 2, -1, -1, 0, 0, -2, 0
1503616390113,-3, 1, 2, 2, -2, -2, -3, 1, 0
1503616390127,0, -3, 5, 1, 1, 2, -1, -1, 0
1503616390149,0, -11, -7, -4, -1, -3, -1, -3, 0
1503616390172,-2, -4, -2, -2, -3, -3, 1, -1, 0
1503616390194,-2, 2, 6, 0, 2, 2, -1, 2, 0
1503616390211,-2, 3, 0, -2, -1, 0, -1, 1, 0
1503616390232,1, -15, -4, -2, -1, 0, -3, -2, 0
1503616390247,1, 10, 2, 1, 0, 0, 0, -3, 0
1503616390270,9, 2, -3, -1, 0, 0, -2, -2, 0
1503616390285,-6, 4, 1, -2, 1, -2, 2, -1, 0
1503616390307,2, 12, 2, -1, 1, 1, 0, 1, 0
1503616390330,-5, -10, 2, 2, -2, -1, 0, -5, 0
1503616390347,-2, -4, -7, -2, 0, -2, -3, 2, 0
1503616390367,0, 5, 3, 1, 1, 0, 0, 0, 0
1503616390390,-4, -7, -4, -3, -3, -1, -1, -1, 0
1503616390414,-3, 9, 5, -1, -2, -4, -2, 2, 0
1503616390427,-1, 6, -1, 1, 1, 3, -2, -6, 0
1503616390453,-2, 0, -2, -3, -2, 0, -1, 1, 0
1503616390472,-1, -6, -4, -1, 0, -1, 2, -1, 0
1503616390487,-2, 19, -1, -2, 0, -5, -2, -2, 0
1503616390510,3, -10, -2, 1, 1, 0, 0, 2, 0
1503616390531,-3, -5, -2, -2, -2, -1, -2, 0, 0
1503616390548,1, -14, -4, -1, -2, -1, -1, -1, 0
1503616390570,-2, -5, -6, -2, 0, -1, -5, -1, 0
1503616390577,-1, -2, -3, -1, -2, -3, -3, -1, 0
1503616390599,0, -1, 1, -1, 1, -3, 1, -2, 0
1503616390622,-1, 12, -4, -1, -1, 2, -1, -2, 0
1503616390630,-1, 2, 3, 0, 1, 0, 1, 1, 0
1503616390652,2, 5, 2, 0, -2, 0, -1, -1, 0
1503616390667,-1, 2, 0, 1, -1, -2, -1, -1, 0
1503616390690,-2, -7, -3, -2, -2, -1, 0, -5, 0
1503616390711,1, 8, 4, 0, 0, -1, 0, 1, 0
1503616390727,-1, 6, 0, 2, 1, -2, -2, -3, 0
1503616390750,-3, -10, 4, -1, 0, 1, 1, -1, 0
1503616390771,-3, -12, -2, -2, -1, -1, 0, 0, 0
1503616390788,2, 12, 6, 0, 0, 0, 1, -1, 0
1503616390810,1, -2, -4, 0, -3, 0, -1, 1, 0
1503616390832,2, -1, -3, 0, -3, -2, -2, 1, 0
1503616390847,-2, 41, 2, -3, 1, -1, 1, 0, 0
1503616390869,-4, -18, -1, 0, 1, 1, -2, -1, 0
1503616390892,-2, 0, 1, 0, -3, 1, 0, -2, 0
1503616390907,0, -9, -9, -2, -3, 0, 3, -1, 0
1503616390929,2, -14, -3, -2, 2, 0, 0, 0, 0
1503616390952,-2, -4, -2, 0, -2, -3, -4, 0, 0
1503616390967,0, 0, 3, 2, 0, -2, -2, 0, 0
1503616390990,-1, -2, 3, 1, -1, 0, -2, -1, 0
1503616391011,2, 2, -4, -1, 3, -3, -2, -1, 0
1503616391027,-1, -1, 0, -1, -5, -3, 1, -4, 0
1503616391051,0, -15, 6, -2, -1, 4, 0, -1, 0
1503616391071,-1, -9, -5, -1, -1, 1, 2, 0, 0
1503616391087,-4, 10, -5, -2, -3, -2, -2, -5, 0
1503616391109,-1, -5, -3, -2, 0, 0, -1, 0, 0
1503616391131,1, 2, -1, 1, 2, 0, 1, 1, 0
1503616391147,-1, 5, -4, -2, -1, -3, 0, -2, 0
1503616391162,-1, 7, -1, -1, 0, 2, -1, 0, 0
1503616391176,-2, -4, -4, -1, -2, -3, 0, -3, 0
1503616391199,-5, 5, -4, 0, -2, -1, -2, -1, 0
1503616391222,-1, 2, -4, -1, 2, -1, -1, -3, 0
1503616391236,0, 3, -1, -2, -2, 3, -2, -2, 0
1503616391260,-1, 7, -1, -1, -2, -2, 0, 3, 0
1503616391281,0, -15, -6, -4, 1, -3, 0, -2, 0
1503616391290,-5, -11, -2, -1, -1, -3, -5, 0, 0
1503616391312,-1, -11, -1, 0, 0, 0, 3, -2, 0
1503616391328,8, 1, -1, 0, -1, -2, -1, 0, 0
1503616391349,-3, 14, 1, 0, 0, 0, -1, -3, 0
1503616391372,-5, -13, -5, -3, -1, 0, -3, -2, 0
1503616391388,4, -3, 3, 1, 2, 1, 0, 0, 0
1503616391410,-2, 6, 4, -1, -3, -4, 0, 0, 0
1503616391432,0, -4, -1, -1, -1, 1, -1, 0, 0
1503616391447,-3, -1, -3, -1, -2, 2, 1, -1, 0
1503616391469,6, -1, -5, -3, -1, -4, -4, -1, 0
1503616391493,-4, 2, 1, -3, 1, 1, -1, -1, 0
1503616391514,-2, 1, -1, 1, -2, 0, -2, 0, 0
1503616391530,-3, -9, -1, 0, -1, -3, 1, -5, 0
1503616391555,0, 3, 0, 0, -1, -1, -1, 1, 0
1503616391574,0, -2, 0, 1, 3, -3, -2, 2, 0
1503616391593,0, -2, -4, -1, 2, 1, -2, -2, 0
1503616391613,0, 5, -4, -1, -2, -1, 1, -4, 0
1503616391620,0, -8, 1, 1, -2, -2, -2, -1, 0
1503616391641,-4, -19, -7, -3, -4, -1, -1, -1, 0
1503616391665,-3, 7, -1, -2, -2, 0, -2, -3, 0
1503616391679,-3, -16, -1, -2, -2, -1, 0, -2, 0
1503616391701,1, 4, 2, 0, 0, 2, 1, -2, 0
1503616391725,-2, 15, 2, 0, -1, 2, -1, -3, 0
1503616391739,-2, -19, 4, 0, -1, -4, -3, 3, 0
1503616391762,3, 3, 0, -2, -1, 1, 0, 1, 0
1503616391784,-2, -4, -3, -2, 1, 0, 0, -1, 0
1503616391799,-1, 0, -6, -3, -2, -4, -1, -3, 0
1503616391823,-1, 0, -4, 1, 0, -3, 1, 0, 0
1503616391830,1, -1, -1, -2, 1, 0, -2, -2, 0
1503616391852,3, 3, 2, -2, -2, -1, -4, 2, 0
1503616391874,-4, 3, 0, -4, -3, -5, 1, -5, 0
1503616391890,9, -2, 0, -5, 2, 0, -2, -2, 0
1503616391912,15, 3, -1, 5, 10, 2, -3, -1, 0
1503616391934,1, -8, 1, -5, -6, -1, 1, -3, 0
1503616391949,-9, -4, -4, 0, -5, -2, 2, -1, 0
1503616391972,-15, -3, -3, -16, -14, -2, -1, 1, 0
1503616391994,-2, 2, -3, 8, 2, 2, 1, 0, 0
1503616392009,-6, 8, 9, -1, -2, -3, 2, 0, 0
1503616392033,-1, -6, -10, -1, 0, -1, -1, -3, 0
1503616392054,5, 5, 20, 3, 8, -2, 1, 1, 0
1503616392069,-13, -3, -8, -1, -1, 2, -1, 0, 0
1503616392095,-2, 2, 4, 6, 3, -1, -1, 0, 0
1503616392114,-18, -4, -3, 2, 1, 0, -1, 0, 0
1503616392130,14, 5, 8, 2, -1, -2, -3, -2, 0
1503616392152,7, -3, -1, 4, 0, -1, -3, -3, 0
1503616392174,0, -8, -2, -4, -4, 0, -2, -4, 0
1503616392189,1, -1, -9, -4, -4, -2, -1, -3, 0
1503616392212,3, -1, -12, -2, -1, 2, -2, 1, 0
1503616392235,-1, 3, 13, 1, -1, -2, 0, -1, 0
1503616392250,-13, 1, -9, -10, -4, -2, -2, 0, 0
1503616392280,3, -1, 3, -1, 4, -2, -3, -3, 0
1503616392296,-14, -5, -6, -1, 1, 0, 5, 0, 0
1503616392310,13, 2, -5, 2, -2, 0, 0, 1, 0
1503616392333,-14, -7, -5, -3, -1, -3, -2, 0, 0
1503616392355,1, -1, -1, 3, -5, 0, 0, 1, 0
1503616392369,1, 0, 2, 0, 5, 1, 0, 1, 0
1503616392394,-3, 2, 0, -1, -2, -1, 3, 0, 0
1503616392414,14, -6, -4, 1, -2, 1, -2, -1, 0
1503616392436,2, -3, -3, -3, -2, -1, 0, 1, 0
1503616392452,3, 1, -2, -2, -1, -1, 0, -4, 0
1503616392474,-5, 1, 1, -2, -2, -2, -2, -1, 0
1503616392497,-5, -5, -5, 0, 2, 2, 0, 1, 0
1503616392512,-32, -2, 3, 3, 2, -1, -2, -2, 0
1503616392534,6, 4, 0, 1, -1, -1, -5, -1, 0
1503616392557,8, 0, 2, -2, 0, 0, 1, -1, 0
1503616392572,1, -1, 5, -1, -4, -2, -1, -4, 1
1503616392598,2, -1, -2, -2, 0, -3, 2, 0, 1
1503616392616,8, -1, -1, -1, 0, -4, -2, -4, 1
1503616392633,-13, -4, -1, 1, 0, -1, -2, -2, 1
1503616392654,9, 2, -2, -2, -3, 0, 1, 1, 1
1503616392663,2, 1, 0, -1, 1, -1, 0, 5, 1
1503616392684,16, 5, 4, -2, 0, 0, -2, 2, 1
1503616392707,10, -2, -3, -1, -3, -2, 2, -4, 1
1503616392731,1, -2, 0, -1, -2, -1, 1, -1, 1
1503616392752,14, 1, -2, -1, -1, -2, -2, -1, 1
1503616392766,-10, 0, 0, -1, -2, 0, -1, -1, 1
1503616392781,0, 0, 0, -3, 1, 1, 1, -1, 1
1503616392805,-5, 1, -5, -1, -2, -1, -2, 1, 1
1503616392826,-11, -6, -7, -1, 0, -1, -3, -4, 1
1503616392841,-5, 6, 1, 1, -1, 0, 2, 8, 1
1503616392857,36, 12, -1, 0, -3, -3, -3, 2, 1
1503616392872,-21, -14, -10, -4, -1, -4, -2, -2, 1
1503616392894,9, -4, 0, 0, -2, 1, 0, -1, 1
1503616392916,9, 4, -3, -4, -1, -5, -2, 9, 1
1503616392932,12, -2, -1, 0, -2, -2, 2, 7, 1
1503616392954,-13, 9, 0, -3, -3, 0, -1, -2, 1
1503616392976,-36, -8, -1, 1, 0, -1, -7, -5, 1
1503616392992,34, -1, -4, 0, -1, 3, 2, 1, 1
1503616393014,-11, 2, 15, -1, -1, -2, -3, -3, 1
1503616393036,48, 24, 21, 4, 3, 5, 6, 5, 1
1503616393052,21, -14, -10, -3, -3, -1, -2, 2, 1
1503616393074,-18, -12, -9, -4, -3, -2, 2, 0, 1
1503616393097,5, -2, -2, 0, 1, 1, 0, 2, 1
1503616393112,-23, -3, -6, -1, 0, -1, -5, -8, 1
1503616393134,-8, -2, -2, 0, 3, -6, 0, -1, 1
1503616393157,-11, 0, -1, -1, 1, -3, 0, -12, 1
1503616393172,18, -5, -3, 1, 12, 39, -2, -4, 1
1503616393194,-6, 18, 6, 3, -7, -15, -3, 9, 1
1503616393216,-18, -6, -7, -6, -7, -21, -2, -8, 1
1503616393235,21, 15, 6, 1, 9, 24, 1, 7, 1
1503616393254,6, -12, -3, 3, -4, -4, -1, 17, 1
1503616393276,-7, -28, -10, -1, -6, -7, 4, 10, 1
1503616393292,5, 14, 6, 1, -1, -2, 4, -5, 1
1503616393314,-15, -2, -7, -3, -4, -7, 0, -2, 1
1503616393337,22, -1, -8, -4, 1, -1, 3, 9, 1
1503616393352,-15, -3, -2, -1, 0, -3, -2, -4, 1
1503616393368,-30, -33, -15, -7, -20, -26, 0, 0, 1
1503616393388,-25, -4, -2, 1, 0, 2, -4, -4, 1
1503616393405,8, -5, -2, -1, -1, -2, 3, 6, 1
1503616393426,-3, 1, -5, -1, 2, -4, -2, -4, 1
1503616393448,-16, -18, 0, -1, 1, 3, 11, -5, 1
1503616393464,-21, -11, -9, -5, 1, 6, -8, -17, 1
1503616393486,14, -8, -6, 1, 1, -1, -2, 8, 1
1503616393510,7, -3, 1, -3, -3, 0, -12, 3, 1
1503616393524,8, -7, 0, 0, 2, -3, 0, 6, 1
1503616393546,-8, -3, -6, -2, -4, -1, -1, -7, 1
1503616393570,8, -2, 3, 2, 1, 1, 7, 5, 0
1503616393584,-7, 8, 0, 1, -2, -1, 0, -9, 0
1503616393607,-11, 9, 1, 1, 2, 5, 3, 5, 0
1503616393628,13, 11, 0, -1, 1, -3, 0, 0, 0
1503616393645,2, -12, -6, -2, -2, 0, 3, 6, 0
1503616393666,-4, -10, -2, -3, -3, -4, -5, 0, 0
1503616393688,-1, -3, -1, -2, -1, -2, -3, -1, 0
1503616393704,3, 5, -4, -1, -1, 1, 1, 3, 0
1503616393726,-11, 6, 5, 2, 2, -1, -5, -5, 0
1503616393748,-23, -4, -3, -3, 0, -1, 3, -4, 0
1503616393764,5, 10, 3, 0, -2, 1, -3, -3, 0
1503616393785,1, -14, -1, -1, -1, -2, -1, -1, 0
1503616393808,-2, -9, -2, 1, 0, -4, 1, 2, 0
1503616393816,-3, -5, -1, 0, -2, -1, 0, 4, 0
1503616393841,5, 16, -1, -2, -1, 0, 0, 3, 0
1503616393854,-4, 17, 2, 0, -1, -1, -1, -1, 0
1503616393877,-4, -5, 0, 0, -3, -1, -2, 0, 0
1503616393899,0, -20, -1, -1, 0, -1, 2, -1, 0
1503616393914,4, 1, -9, -3, -3, -4, -4, 2, 0
1503616393938,-1, -16, -8, -1, 0, 2, -1, -3, 0
1503616393959,-1, 11, 3, -1, -3, -3, -3, -3, 0
1503616393975,3, 7, 5, 1, -1, 0, 0, -3, 0
1503616393996,-2, -10, -5, 0, -2, -1, 1, 2, 0
1503616394019,-2, 1, 0, 1, 1, 3, 2, -3, 0
1503616394035,-10, -6, -3, 1, 0, -2, -4, 0, 0
1503616394056,1, -2, 0, -1, 1, 0, -9, -5, 0
1503616394079,-1, 0, -1, -2, 0, -2, 5, -2, 0
1503616394094,-1, 18, 4, 1, 0, 0, -3, 2, 0
1503616394116,-17, -18, -9, -4, -3, -1, 0, 5, 0
1503616394140,3, -5, 5, 0, 1, -1, 4, 1, 0
1503616394154,15, 22, -3, -2, -2, -2, 1, -1, 0
1503616394177,-8, -10, 0, 1, 2, -3, 4, 4, 0
1503616394199,2, -2, 2, 0, 0, -2, 2, 0, 0
1503616394216,4, -10, -3, -4, -4, 0, 6, 8, 0
1503616394236,21, 0, 3, 0, 3, 1, -3, -2, 0
1503616394259,-8, -1, -4, -3, -2, -1, -2, -4, 0
1503616394275,10, 4, -3, -2, -2, 0, -8, -5, 0
1503616394296,-3, -3, -6, -1, -1, 1, 7, -5, 0
1503616394319,-12, -7, -1, -2, 0, 1, -3, -1, 0
1503616394341,-2, 14, 7, 2, 0, -2, -2, -1, 0
1503616394356,-1, -1, 0, -1, 1, -2, 5, -5, 0
1503616394375,-1, 2, 1, 0, 4, 1, 0, 0, 0
1503616394386,-1, -8, -5, -2, -3, 3, 13, 5, 0
1503616394409,3, -12, 1, 1, -3, -1, -3, -9, 0
1503616394417,-5, 18, 13, 1, -3, 0, -4, -3, 0
1503616394439,-3, 3, 6, 1, 0, 0, -4, -7, 0
1503616394461,-7, -19, -9, -4, -3, -3, -3, 3, 0
1503616394477,17, 3, -2, 1, 2, 1, 2, 5, 0
1503616394491,10, 5, 1, 1, -1, 2, 2, 9, 0
1503616394508,0, 18, -4, -4, 0, -1, -1, -11, 0
1503616394528,1, 2, -1, 1, -3, -3, 1, 9, 0
1503616394551,-1, 7, -1, -2, 0, 3, -2, -2, 0
1503616394566,-5, -1, -3, -2, 2, 0, 2, -4, 0
1503616394588,-4, -8, -2, -1, -1, -1, -4, -7, 0
1503616394611,-7, -7, -3, 0, -2, -14, -1, -2, 0
1503616394626,4, 6, 4, 0, 0, 4, -1, -6, 0
1503616394649,-5, -7, -3, -2, -1, -2, 0, 5, 0
1503616394671,-1, -4, 1, -2, -5, 0, 1, 0, 0
1503616394687,-1, -9, 0, 0, 0, -1, -2, 2, 0
1503616394716,0, -19, 8, 0, 2, 0, 0, 1, 0
1503616394738,-1, 8, 1, 0, -1, 0, -9, -7, 0
1503616394752,2, -2, -6, -3, -3, 3, 3, 0, 0
1503616394768,-1, 5, -1, 0, 0, -3, 0, -2, 0
1503616394791,-3, 3, 4, 2, 2, 0, -4, 2, 0
1503616394807,-3, -11, -8, -5, -1, 1, -2, -5, 0
1503616394828,-1, 3, -3, -1, -1, 0, 4, -3, 0
1503616394851,-4, -24, -5, -2, -2, 0, -2, 3, 0
1503616394866,-3, 2, 1, -2, 2, 0, -1, 1, 0
1503616394888,4, 13, -2, 0, -1, 0, 0, 0, 0
1503616394911,3, 34, 9, 3, -1, -1, 3, 7, 0
1503616394926,-1, -10, -5, -1, -3, 0, -4, -8, 0
1503616394948,1, 16, 3, 0, -2, -2, 0, 0, 0
1503616394971,-1, 6, -3, -3, 1, -1, -1, 5, 0
1503616394987,-1, -8, -4, -2, -3, -1, 4, -4, 0
1503616395009,0, -4, -2, -1, -2, 1, -2, -2, 0
1503616395032,-3, -1, -1, -4, 1, 0, -1, -3, 0
1503616395054,1, -7, 3, 1, -1, 0, -3, 1, 0
1503616395069,1, 3, -1, 0, -1, -3, 3, 0, 0
1503616395092,0, -19, -8, 0, -1, -2, -2, 2, 0
1503616395114,-1, -2, -2, -3, 0, -4, -1, 1, 0
1503616395129,0, -11, 1, 0, -1, 0, 2, -2, 0
1503616395152,-3, 3, -4, 0, -5, 1, -1, -1, 0
1503616395174,2, -1, 7, 4, -1, -1, 0, -1, 0
1503616395189,0, 0, -9, -3, 1, -3, -3, -9, 0
1503616395196,0, 0, 0, 1, -1, 3, 0, 2, 0
1503616395219,-1, 1, 2, 0, 0, -1, -1, 2, 0
1503616395241,1, 3, -1, -2, -5, -5, 1, -1, 0
1503616395264,1, 3, 1, 0, -1, 1, -3, -5, 0
1503616395294,-1, -16, -9, -4, 0, -4, 1, -2, 0
1503616395309,-2, -6, -3, -3, -1, -1, 0, 2, 0
1503616395332,1, 23, 4, 4, 3, 2, 1, -1, 0
1503616395355,3, 12, 0, -2, -2, 1, -2, -1, 0
1503616395370,-2, -9, 3, 1, 1, -2, 2, 1, 0
1503616395392,-1, 3, 1, -3, -1, -2, -2, 2, 0
1503616395415,-1, 5, 7, 2, 0, -1, -1, -3, 0
1503616395429,-3, -13, -7, -1, -2, 1, -3, 0, 0
1503616395452,-2, -9, 0, -3, 0, -2, 1, -1, 0
1503616395474,-3, 2, 1, -4, -3, -2, -1, -4, 0
1503616395482,0, -7, 0, 0, -1, -2, -1, 0, 0
1503616395504,-3, 0, 1, 1, 0, -1, -1, -2, 0
1503616395519,-1, -5, -7, -1, -5, -2, -4, -3, 0
1503616395541,1, 0, 3, 1, 0, -1, 1, 4, 0
1503616395564,0, -8, -3, -4, -2, 1, 1, 0, 0
1503616395579,-3, -1, 7, -1, 0, 2, 0, -1, 0
1503616395601,1, -11, -10, 1, -3, 1, 0, -1, 0
1503616395625,0, 0, -5, -2, 3, -1, -4, -3, 0
1503616395639,0, -7, -1, 0, -1, -2, -2, -1, 0
1503616395661,-1, 8, 0, -1, -2, 3, 1, 0, 0
1503616395685,-2, 0, -2, 0, -1, -6, -2, -4, 0
1503616395699,-1, -18, 1, 0, 0, -1, -1, 2, 0
1503616395722,0, 5, -4, -2, -2, -2, -1, 2, 0
1503616395744,1, -4, 1, -1, 2, 0, 0, -1, 0
1503616395759,0, 5, -3, -1, 1, 0, 1, 0, 0
1503616395781,-1, 8, 2, 0, -1, -1, -4, -2, 0
1503616395804,1, 12, 1, 0, -1, 3, 1, 1, 0
1503616395819,-3, -4, 1, 0, -2, -3, -2, -2, 0
1503616395841,-2, 0, -2, 0, 1, -1, -2, 0, 0
1503616395864,-1, -11, -6, -3, -2, -2, 0, -2, 0
1503616395879,-3, 3, -5, -1, -1, -2, -1, -4, 0
1503616395901,1, -2, 0, -2, 0, -4, 0, 0, 0
1503616395924,0, 12, 4, 1, -1, 0, -1, -2, 0
1503616395939,2, 7, -5, 0, -1, 2, 3, 3, 0
1503616395962,-2, -20, -1, 0, -3, -2, -2, 0, 0
1503616395986,0, 1, 0, -2, 1, 0, -1, 1, 0
1503616395999,-3, 4, 5, 2, -3, 0, -1, -2, 0
1503616396023,1, 24, 0, 0, -2, -1, -1, 0, 0
1503616396044,-1, -7, 1, 0, -1, -3, -5, -3, 0
1503616396059,0, 6, 12, 0, -1, 1, -1, 1, 0
1503616396081,2, 16, -4, -3, -1, -2, 1, -4, 0
1503616396104,0, -11, -7, -1, -1, 0, -3, 5, 0
1503616396120,1, 11, 5, 0, 0, 3, -1, 1, 0
1503616396134,-1, -6, -5, -1, 0, -4, -1, -1, 0
1503616396150,-2, -4, -3, -1, -2, 0, 0, 0, 0
1503616396172,0, -5, -5, 0, -1, 2, 0, -3, 0
1503616396195,2, 31, 8, 1, 1, -2, 2, 2, 0
1503616396216,-4, -6, -4, -2, -4, -2, 0, -1, 0
1503616396232,1, -8, -3, -2, 1, 0, -1, -1, 0
1503616396254,-1, -15, -1, -1, -2, 0, -1, 0, 0
1503616396276,0, 7, 10, 1, 1, -1, 1, 0, 0
1503616396293,-2, -4, 4, 1, -1, 1, 0, -1, 0
1503616396314,-2, 3, -6, -2, 2, -3, -1, 0, 0
1503616396336,0, 5, -2, -2, -3, -1, -4, -1, 0
1503616396354,0, 7, -1, 3, 1, 0, 0, -2, 0
1503616396374,1, -10, -5, -4, -1, 0, -4, -3, 0
1503616396397,1, -13, -5, -3, -1, -2, 2, 4, 0
1503616396412,-3, -14, -2, 0, 2, -2, 0, -3, 0
1503616396434,1, 0, -2, -1, -3, -1, -1, -4, 0
1503616396457,-3, 12, -6, -1, 1, -2, -1, -1, 0
1503616396472,1, -2, -3, -2, -1, -1, -1, 2, 0
1503616396495,0, 2, -1, -1, -3, -2, -2, -3, 0
1503616396516,2, 6, 3, 0, -1, -3, -3, 1, 0
1503616396532,-6, -7, -3, -3, -1, -1, 0, 0, 0
1503616396561,0, -2, 0, 0, -1, 2, -3, -3, 0
1503616396577,0, -18, -3, 2, -1, 0, 0, -2, 0
1503616396593,0, -1, -5, -1, 0, 1, -2, -3, 0
1503616396614,1, -11, -1, 0, -3, 0, 2, 7, 0
1503616396637,0, 5, 0, -1, 1, -2, 3, -3, 0
1503616396653,-2, -8, -3, -2, -3, 0, -2, -3, 0
1503616396666,-1, -12, 3, -1, -1, 1, -1, -4, 0
1503616396681,1, -19, -7, -1, -2, 1, 1, -5, 0
1503616396697,2, 6, 1, -1, -1, 4, -3, -3, 0
1503616396712,-6, 3, -5, -3, -2, -4, -1, -1, 0
1503616396734,-6, -6, -1, -2, -2, -1, 0, -3, 0
1503616396757,0, -9, 1, 2, -2, -1, -1, 0, 0
1503616396772,0, -12, -10, -3, 1, 0, 0, 1, 0
1503616396794,-2, -21, -7, -1, -2, -1, -2, -3, 0
1503616396816,1, 1, 0, 0, 0, -2, 0, 3, 0
1503616396833,-1, 7, -1, -2, -2, 0, 0, 2, 0
1503616396854,-2, 9, 8, 3, -2, -1, -1, -4, 0
1503616396876,-1, 8, -2, 0, 0, -2, -1, -4, 0
1503616396892,1, -11, -2, -1, 0, -2, 0, 3, 0
1503616396914,-3, 4, 1, -2, -2, 0, -1, -2, 0
1503616396936,1, -2, -2, 0, -1, -1, 2, 3, 0
1503616396952,1, 1, 0, -1, 1, -1, -3, 1, 0
1503616396974,-2, -4, 2, -1, 0, 1, -1, -1, 0
1503616396996,1, -10, -2, -2, -1, -1, -1, 1, 0
1503616397012,-2, 4, 1, 1, -2, -2, 0, -3, 0
1503616397035,0, -4, -7, -4, 2, 2, -1, -3, 0
1503616397056,-3, 15, 7, -1, 0, -2, 1, -1, 0
1503616397072,0, -9, -3, -1, -1, 0, 1, 4, 0
1503616397094,1, 3, 0, 2, 1, -1, -2, -2, 0
1503616397116,1, -3, 2, 0, -1, -1, -1, -2, 0
1503616397139,-3, -3, -2, -1, 2, 1, 1, 1, 0
1503616397154,0, -5, 1, 1, -1, -1, -1, 1, 0
1503616397176,-5, -1, -2, -1, -2, -1, -4, -4, 0
1503616397199,-3, 1, -3, -2, -3, -4, -4, -2, 0
1503616397215,-1, 2, -2, 0, 0, 0, -2, -3, 0
1503616397237,0, 11, -1, 0, -3, -1, -2, -6, 0
1503616397263,2, -2, -5, -1, 0, 3, -2, 2, 0
1503616397275,0, 5, 6, 2, -4, -1, 0, 0, 0
1503616397297,-3, -7, -1, -2, 0, -2, 0, -1, 0
1503616397319,0, 7, -1, -1, -2, 1, -2, 1, 0
1503616397334,4, 21, -1, -1, 1, 2, 1, 2, 0
1503616397357,0, -5, 5, 3, -1, -1, 2, 2, 0
1503616397379,1, 2, -2, -2, -2, -2, 0, -1, 0
1503616397397,-3, -11, -1, -2, -2, -2, 0, -4, 0
1503616397416,-2, -9, -5, -2, -1, -1, 0, -2, 0
1503616397439,2, 29, 4, -2, -3, -3, -2, 2, 0
1503616397455,0, -11, -5, -3, -3, 1, 1, 3, 0
1503616397476,-1, -7, 9, 3, 0, -2, -1, -1, 0
1503616397499,-1, -15, -2, -1, -2, 0, -1, 1, 0
1503616397514,-3, -5, 1, -1, 0, 2, 0, -5, 0
1503616397536,0, -5, -8, -2, 2, -3, -3, 0, 0
1503616397559,-1, 2, -2, -3, -4, -2, 0, 2, 0
1503616397574,0, -3, -4, -2, -1, -1, -4, -2, 0
1503616397598,-3, -2, -4, -2, -4, -4, -5, -6, 0
1503616397619,-1, -2, -3, 5, 1, 2, 21, 2, 0
1503616397635,-2, -1, 22, 4, -1, 0, -6, -1, 0
1503616397657,0, -5, -8, -5, -3, -1, -5, -1, 0
1503616397679,-1, -4, -3, 1, 2, 0, 1, 4, 0
1503616397694,-3, 3, -1, -2, 2, -3, -4, -1, 0
1503616397717,2, 0, -3, -2, -2, 1, -3, 1, 0
1503616397739,2, 0, 0, -2, 2, -1, -5, -4, 0
1503616397754,-1, 20, 2, -1, 0, -1, -6, -6, 0
1503616397780,-2, -15, -6, -1, -1, 1, -1, 4, 0
1503616397800,1, 11, 3, -1, -3, -1, 1, -3, 0
1503616397818,-1, -7, -5, -5, -2, -7, -6, -2, 0
1503616397846,-2, -9, -9, -1, 2, 2, 9, 3, 0
1503616397875,-2, -3, -3, 1, -3, -2, -3, -4, 0
1503616397899,2, -10, -6, 0, -2, 1, 3, 2, 0
1503616397919,-7, -1, 3, 3, 3, 2, 1, -2, 0
1503616397934,2, 3, 5, -2, -4, -4, -7, -2, 0
1503616397957,1, -1, 0, -1, -2, -5, -8, -2, 0
1503616397979,0, -7, -6, -1, 0, -1, 2, -2, 0
1503616397994,-4, 1, -2, 2, 0, -1, 5, 4, 0
1503616398048,1, 0, -8, -2, -1, 1, -4, 0, 0
1503616398073,-4, 2, -5, -3, -2, 3, 4, 3, 0
1503616398090,-1, 2, -2, -2, -3, -4, -4, 2, 0
1503616398107,0, 1, -4, -3, -1, -8, -5, 0, 0
1503616398129,-1, -2, 1, 1, 2, 2, -2, 3, 0
1503616398150,2, 17, 2, -3, -4, 1, -1, -7, 0
1503616398170,4, -4, 1, 5, 6, 2, 1, 1, 0
1503616398189,-1, -1, 1, -4, -6, 0, 1, -2, 0
1503616398210,-6, -10, -8, -3, -2, -5, -7, -4, 0
1503616398226,1, -2, 14, 2, 3, -2, 1, 4, 0
1503616398249,-2, 2, 9, 0, -4, 0, 0, 0, 0
1503616398271,2, 2, -9, -1, 0, 0, 1, 0, 0
1503616398286,8, 3, -2, 0, 8, 2, -1, 0, 1
1503616398309,-5, -1, -6, -2, -3, 0, -3, 0, 1
1503616398330,1, -2, -7, -3, -3, -3, 1, 1, 1
1503616398346,-5, 0, -3, 0, -1, -3, -1, -4, 1
1503616398373,-1, -13, -6, -1, -1, 0, 0, -1, 1
1503616398390,-2, 1, 0, 0, -3, 3, 0, -5, 1
1503616398407,-5, -3, -3, -3, -6, -6, -2, -4, 1
1503616398429,-6, -3, -1, -10, -14, -4, -5, -11, 1
1503616398450,4, 4, 1, 2, 7, 4, -2, 5, 1
1503616398466,3, 4, 0, -1, 4, 1, 3, 7, 1
1503616398489,0, -2, -2, -1, 0, -2, -1, -2, 1
1503616398511,3, 3, 2, 2, -9, 3, -2, 1, 1
1503616398526,0, 1, 3, 1, 7, 0, 4, 2, 1
1503616398549,-4, -3, -1, 2, 3, 1, -4, -3, 1
1503616398571,-1, 0, -4, -1, -3, 0, 2, 3, 1
1503616398579,1, 2, -3, -1, -4, -3, -1, 0, 1
1503616398601,3, -1, -2, -3, -2, -4, -3, 3, 1
1503616398617,-7, 1, 2, -3, -3, 0, -1, -5, 1
1503616398639,-2, -1, 0, -2, -1, 0, -3, 0, 1
1503616398661,2, 0, -3, -5, -3, -3, -3, -3, 1
1503616398677,3, 0, 3, 0, -3, 2, 4, -2, 1
1503616398699,-4, 0, 1, -1, -1, -2, -3, -7, 1
1503616398721,0, -2, -3, -4, 0, 0, -2, 3, 1
1503616398739,-4, -2, -3, -1, 0, -1, 0, 0, 1
1503616398759,5, 1, -2, 0, -1, -3, -7, 9, 1
1503616398781,-1, 1, 1, 1, -2, 2, 3, -2, 1
1503616398797,1, -4, -5, 0, -1, -1, -1, 1, 1
1503616398820,-2, 0, 0, -1, 0, 3, 2, -7, 1
1503616398841,3, 3, 1, 5, 6, 0, 3, -3, 1
1503616398857,-5, 0, 3, -2, -2, -3, 0, 3, 1
1503616398879,6, -1, -3, -2, -2, -2, -2, -6, 1
1503616398944,-6, -2, 2, -1, -1, 3, -15, -5, 1
1503616398948,-6, 9, 2, -2, 1, 1, -9, -17, 1
1503616398969,1, -2, 1, 1, -1, -1, 4, -1, 1
1503616398990,-2, 1, 2, 1, 0, -3, 5, 6, 1
1503616399013,-13, -6, -7, -3, -2, -1, 6, 26, 1
1503616399029,-1, -5, 1, -1, 1, 3, 3, -3, 1
1503616399050,-5, -3, 0, 0, -1, -1, 2, -16, 1
1503616399074,9, 6, -4, -3, -4, -2, -14, -8, 1
1503616399089,5, -10, -7, -5, -3, -3, 5, -2, 1
1503616399118,-3, 8, 0, 0, 1, 3, 1, 1, 1
1503616399133,-5, -6, 1, -1, 1, 0, -3, -8, 1
1503616399149,-4, -4, -4, 0, -3, -3, -2, 1, 0
1503616399170,2, 1, 2, 1, 3, -1, -1, 1, 0
1503616399193,-8, 17, 2, -1, 0, 0, -2, -8, 0
1503616399209,-1, -11, -1, -1, -2, -1, -4, -4, 0
1503616399231,-7, 3, 5, 1, 0, 0, 6, 1, 0
1503616399253,2, 1, -1, 0, 0, -1, -1, -1, 0
1503616399269,1, -6, -4, -1, -2, 1, 1, 6, 0
1503616399290,-8, -9, -5, 1, 0, -3, -6, -11, 0
1503616399313,1, -4, -3, -3, 0, 0, -3, -5, 0
1503616399328,0, 8, -3, -3, -5, -2, 10, -6, 0
1503616399351,5, 22, 4, -1, -1, -2, -8, 1, 0
1503616399373,-4, -11, -5, -2, 0, 0, 0, 1, 0
1503616399389,3, -5, 0, -4, -4, -2, -3, 2, 0
1503616399411,1, 0, 1, -1, 0, 0, 0, 5, 0
1503616399433,1, -13, -3, 0, 0, -1, -3, 1, 0
1503616399449,-7, -10, 7, -1, 0, -2, -7, -12, 0
1503616399470,-1, 0, -3, 1, -1, -1, 4, 1, 0
1503616399493,0, 14, 0, 1, 1, -1, 4, 3, 0
1503616399511,10, -1, 1, -2, -1, 0, -1, -1, 0
1503616399530,3, -16, 4, 3, 0, 2, -5, -4, 0
1503616399539,-4, 8, -2, -1, 1, -1, -7, -5, 0
1503616399561,0, 7, 9, -1, -2, -5, -5, -11, 0
1503616399584,-3, -1, -2, 0, 3, 0, 2, -1, 0
1503616399598,-3, -2, -1, -2, -4, 1, -1, 3, 0
1503616399621,0, -10, -3, 0, -1, 0, 5, 0, 0
1503616399645,-5, 10, 9, 1, -2, -1, 1, 10, 0
1503616399658,-3, -13, -5, -2, -3, -4, 2, 7, 0
1503616399681,13, 4, -3, 0, 1, 3, 0, 7, 0
1503616399704,0, 2, -3, 0, 0, 2, -9, 2, 0
1503616399719,-4, -3, -4, -3, -3, -4, 1, -5, 0
1503616399741,6, -7, -6, -5, -2, -3, 4, 3, 0
1503616399764,0, 1, -1, 1, -1, -1, -5, -6, 0
1503616399779,-13, -2, 3, 2, 1, -2, -10, -22, 0
1503616399801,5, 2, 1, 1, 0, 1, 2, 8, 0
1503616399823,-10, 1, -1, -1, -1, -2, -8, -4, 0
1503616399830,7, -6, 5, -2, -4, -4, 1, 2, 0
1503616399853,10, -38, -7, -2, 4, 2, -12, 0, 0
1503616399869,-48, -9, -6, 0, 0, -4, 3, -6, 0
1503616399890,15, -1, 2, -4, 0, -1, -1, 3, 0
1503616399913,9, 8, -7, -1, -4, -1, -1, 7, 0
1503616399935,-15, 6, -1, 1, 4, 1, -10, -13, 0
1503616399951,2, 3, 2, 1, -1, -1, 4, -1, 0
1503616399973,-13, -13, -8, -3, 1, -3, -1, -2, 0
1503616399995,2, -1, 1, -1, 2, 1, -1, -7, 0
1503616400004,12, -1, 3, 2, 1, -1, -7, -6, 0
1503616400026,19, 16, 9, 2, -3, -2, -10, -1, 0
1503616400041,2, 5, 1, 1, 1, -2, 0, 7, 0
1503616400064,6, 17, 2, -3, 1, 1, 5, 3, 0
1503616400086,-20, -9, -6, -4, -3, 1, 0, 1, 0
1503616400101,-1, -5, -4, -3, 0, -4, -7, -5, 0
1503616400124,-7, 2, -4, 0, -2, 1, 3, -3, 0
1503616400149,0, -6, 3, 1, 2, 1, 1, -7, 0
1503616400161,1, -1, 1, 1, -1, 1, 1, 5, 0
1503616400184,-10, -2, 0, -1, 0, -2, 0, -9, 0
1503616400206,1, -19, -7, 0, -2, -2, 4, 8, 0
1503616400221,-1, -3, -4, -5, -2, -1, -4, -7, 0
1503616400244,7, -1, 1, -2, -1, 2, 13, 6, 0
1503616400266,-13, 2, -2, -1, 1, -3, -3, -8, 0
1503616400282,8, 7, 5, 1, -2, -1, 4, 8, 0
1503616400303,2, 11, 5, 3, -1, -1, -1, 3, 0
1503616400326,-1, 13, -5, -4, -2, -3, -11, -10, 0
1503616400341,-4, -12, -2, -2, 2, 1, 4, 0, 0
1503616400363,0, 2, 2, 2, -1, -3, -16, -17, 0
1503616400386,0, 2, 2, 2, 2, -3, 2, 6, 0
1503616400402,6, -1, -2, -1, -2, 3, 5, 4, 0
1503616400425,-6, -9, -2, -4, 0, -1, 3, 8, 0
1503616400446,-1, -4, -1, -2, -3, -2, 2, 0, 0
1503616400461,-2, -7, -4, -2, -5, 2, 3, 6, 0
1503616400484,3, 14, 13, 1, -1, -2, 2, -3, 0
1503616400506,1, -20, -6, -1, 3, -3, -13, -10, 0
1503616400521,-8, -2, -4, -2, -2, 2, 1, -4, 0
1503616400544,-3, 4, 0, 0, 0, -4, 0, 0, 0
1503616400566,3, -8, 1, 0, 3, 3, -2, 0, 0
1503616400581,-1, 4, -2, -4, -1, -2, -1, 1, 0
1503616400603,-3, 3, 4, -1, -4, 1, 8, 9, 0
1503616400627,0, -5, -6, 2, -1, 1, -4, -2, 0
1503616400641,4, -1, -7, 3, 3, -2, -2, 2, 0
1503616400657,0, -3, -1, -2, 1, -1, 1, 1, 0
1503616400679,0, -10, -3, -1, -2, 1, 2, 5, 0
1503616400695,3, -1, 0, 2, -1, -3, -2, 0, 0
1503616400718,2, -4, -4, -1, -1, 3, -2, -2, 0
1503616400739,4, 8, 7, 0, 1, -3, -1, 0, 0
1503616400755,-5, 0, -5, -2, -2, -2, 1, 2, 0
1503616400777,-2, 4, 5, 0, 1, -5, -8, -12, 0
1503616400799,0, -3, 3, 1, 0, -1, -1, 1, 0
1503616400814,-3, 0, -3, -3, -2, -3, -6, 2, 0
1503616400837,2, 4, 2, 0, -3, -1, -2, -3, 0
1503616400859,-1, -7, 2, 0, 0, -1, -12, 1, 0
1503616400867,-2, -3, 14, 3, -1, 0, -2, -7, 0
1503616400889,1, -9, -5, 0, -3, 2, -1, -7, 0
1503616400904,6, 9, 1, -4, -2, -3, 0, 1, 0
1503616400926,-2, -2, -2, -3, 0, -2, -1, -11, 0
1503616400949,-2, 3, 2, 0, 2, -1, 7, 10, 0
1503616400957,1, -3, -7, -2, 0, 0, 3, 2, 0
1503616400964,2, 16, -2, -1, 2, -1, -3, -3, 0
1503616400987,2, 0, 0, 0, -2, -1, 1, -4, 0
1503616401009,-10, -9, -1, 0, -2, -1, -4, 1, 0
1503616401025,-3, -6, -3, 0, 0, 1, -1, 0, 0
1503616401046,0, 0, -1, 2, -4, -4, -11, -8, 0
1503616401069,-2, 1, -2, -2, -1, -1, -1, 1, 0
1503616401083,1, -1, -1, -3, -1, -3, 2, 4, 0
1503616401106,3, -5, -6, -1, -2, 1, -3, -1, 0
1503616401130,-3, 1, 6, 1, -2, 1, -3, -3, 0
1503616401144,4, 4, 0, 0, 1, -4, 2, 5, 0
1503616401166,1, -5, 0, -2, -1, -2, -4, -2, 0
1503616401190,-1, 6, -4, 1, 1, -2, -1, -1, 0
1503616401203,5, 5, -1, -3, -2, 0, -1, -1, 0
1503616401226,2, -13, 0, 0, -2, -2, 0, 2, 0
1503616401248,-6, 5, 3, -1, 3, 0, -6, -2, 0
1503616401264,-1, 9, 4, 0, 0, -1, 6, 0, 0
1503616401286,-1, -1, -1, -1, -3, -2, -3, -4, 0
1503616401308,-7, -14, -7, -4, 1, -2, -1, 1, 0
1503616401324,0, 1, 0, -1, -2, -3, -4, -2, 0
1503616401346,-2, 2, -1, -1, 2, 3, -12, -2, 0
1503616401369,2, -7, -6, -1, 0, 1, 5, -1, 0
1503616401383,0, 20, -1, 0, 0, 0, 1, -2, 0
1503616401406,-5, -10, -5, -2, -2, -4, -1, -2, 0
1503616401429,-1, -7, 5, 1, -1, -1, 2, 2, 0
1503616401444,0, -6, -2, -2, -1, 1, 2, 2, 0
1503616401466,-3, 7, 2, 0, 0, -4, -3, -6, 0
1503616401491,2, -7, 2, 0, 2, 1, 2, -1, 0
1503616401504,0, -6, -7, -2, -5, 0, -1, 3, 0
1503616401527,-1, 0, -2, 0, -2, 0, -1, 0, 0
1503616401564,3, 17, 3, 0, -1, -1, 0, -4, 0
1503616401578,-1, -6, 0, -1, -1, 1, -1, 2, 0
1503616401586,-1, 3, -2, 0, -3, 1, 0, -1, 0
1503616401609,-2, -10, 3, 1, 0, -2, 0, 0, 0
1503616401625,-1, 10, 4, -1, -2, -2, 0, -1, 0
1503616401646,-1, -2, 10, 2, 2, 1, 0, 0, 0
1503616401668,-1, 1, -5, -1, 1, -1, 3, -1, 0
1503616401685,1, -15, -2, -3, -1, 2, 0, 0, 0
1503616401706,2, 2, -6, -2, -2, -5, -3, -1, 0
1503616401729,-4, -10, 1, 2, 0, 0, 4, -2, 0
1503616401743,-3, -6, -5, -3, 0, -4, -4, 1, 0
1503616401766,-2, -8, -6, -3, -4, 1, 0, -4, 0
1503616401789,-1, 10, -2, -1, -2, 0, -1, 0, 0
1503616401811,0, 17, 5, 1, 2, -3, -2, 0, 0
1503616401826,0, -5, -2, -2, -1, -3, 1, 0, 0
1503616401849,-1, 7, -1, -1, 2, 2, -1, 1, 0
1503616401871,-3, -7, 2, 0, -2, 2, -1, -4, 0
1503616401886,0, -1, -3, -2, -3, 0, 0, 0, 0
1503616401908,-2, -5, 1, 0, -2, -2, 1, 3, 0
1503616401931,-2, -9, 1, 0, -3, 0, -2, -3, 0
1503616401939,-1, 10, 1, 1, 0, 0, -1, 1, 0
1503616401962,-1, 6, 0, 0, -1, 2, 1, -2, 0
1503616401977,-2, 4, -3, -3, -1, -3, -1, -1, 0
1503616402001,1, 6, -5, -5, -4, -2, 0, -2, 0
1503616402021,-2, -4, 2, 0, -2, -1, 0, 2, 0
1503616402037,-1, -1, 3, 2, 1, 0, 0, -2, 0
1503616402062,0, -11, -1, 0, 0, 0, -2, 2, 0
1503616402081,-1, 2, -1, -1, 0, -3, -2, -2, 0
1503616402100,0, 3, -2, -1, -2, -2, 0, -1, 0
1503616402121,0, 3, -2, -2, 1, 1, 0, -4, 0
1503616402141,-2, 1, -2, -3, -1, 0, 1, 0, 0
1503616402157,-1, 1, 1, 1, 1, -2, -1, -3, 0
1503616402179,0, -9, -6, -2, -3, 0, -4, 0, 0
1503616402201,-1, 11, 12, -1, 1, -1, 0, -2, 0
1503616402223,1, -1, -4, -2, -3, -1, 0, 5, 0
1503616402239,0, -4, -4, 0, -1, 0, 1, 2, 0
1503616402263,-1, 0, 4, 1, 0, 5, 1, 0, 0
1503616402277,0, 9, 2, -1, -1, -3, -2, -6, 0
1503616402299,-1, 8, -1, -3, 0, -1, 3, -1, 0
1503616402331,0, -9, -7, 0, -1, -3, -10, 1, 0
1503616402345,0, -6, -5, -2, -3, 3, -2, -2, 0
1503616402359,1, 27, 6, 0, 0, 0, 1, 0, 0
1503616402381,-2, -4, -4, 0, 2, -1, 1, 2, 0
1503616402398,0, -2, 1, -1, 0, -2, -4, -3, 0
1503616402419,2, 6, 5, 1, -2, 2, 3, 2, 0
1503616402441,-6, -16, -6, -3, -3, -4, -3, -6, 0
1503616402456,-1, -2, -1, 0, 0, -2, -2, 1, 0
1503616402479,3, 22, 4, -2, -1, -1, 0, -3, 0
1503616402501,-3, -12, -4, 0, -1, -2, -1, -2, 0
1503616402516,-1, -7, -1, -2, -1, 2, 1, 1, 0
1503616402540,0, -8, -1, -1, 1, 5, 0, 6, 0
1503616402561,-2, -12, -5, -2, -3, -4, -2, -7, 0
1503616402576,-2, 0, 3, 4, 0, -2, -6, -1, 0
1503616402599,-1, -6, -2, -3, -1, -2, -1, -1, 0
1503616402621,0, 4, -2, -2, 2, -4, 3, -1, 0
1503616402636,-1, 5, 2, 0, 0, 3, 1, -2, 0
1503616402659,0, -5, -2, -1, 0, 0, -3, 0, 0
1503616402681,2, 24, 2, -1, -3, -1, -3, -2, 0
1503616402703,-2, -8, -4, -2, -1, 0, 2, 7, 0
1503616402719,0, 2, -6, -1, -3, -2, 2, -2, 0
1503616402741,-1, -3, 2, -1, -3, -1, -2, -3, 0
1503616402763,-1, -8, -2, -1, 1, -3, -7, 0, 0
1503616402779,0, -4, 1, -2, 1, 0, -1, 0, 0
1503616402801,-2, -2, -4, -1, 0, 2, 3, -1, 0
1503616402809,0, -4, -5, -1, -1, 4, -1, -3, 0
1503616402833,-1, -5, -1, -2, 0, 0, -4, 2, 0
1503616402853,1, 1, 1, -1, 0, -2, -4, 0, 0
1503616402868,1, 3, 0, -1, -1, -3, -2, 1, 0
1503616402891,-2, -3, -2, -1, -2, 1, 4, -1, 0
1503616402913,-3, -1, -2, -1, -1, 0, 0, -3, 0
1503616402928,0, 5, 4, 2, 0, -2, 3, 0, 0
1503616402951,-2, -18, -3, -1, -1, 1, 2, -1, 0
1503616402973,-2, 3, 0, -1, -2, -2, -5, 2, 0
1503616402988,2, 2, 4, 0, 0, 0, 0, 0, 0
1503616403011,0, -7, -6, 0, 0, 1, -3, -3, 0
1503616403035,0, -4, 1, -1, 1, -2, -1, -2, 0
1503616403048,1, -17, -4, 0, 0, -1, -1, 2, 0
1503616403071,1, 5, -1, -2, 0, 1, 3, -1, 0
1503616403079,-1, -3, -7, -5, -2, -3, 1, 2, 0
1503616403103,-1, -3, 0, 1, -2, -1, -2, -3, 0
1503616403124,-1, 6, 6, 1, 0, 2, -1, -1, 0
1503616403140,-2, -4, -6, 0, 3, -2, 0, -2, 0
1503616403161,-2, -1, -7, -4, -3, -1, -2, 2, 0
1503616403184,0, -2, -5, -5, -3, 1, -1, -2, 0
1503616403200,0, 4, 0, 1, 0, 0, 0, 1, 0
1503616403221,0, -1, 7, 0, -4, -5, -3, -1, 0
1503616403244,-2, -7, -2, -1, -1, -1, -3, -3, 0
1503616403261,1, -6, -7, -1, -2, 3, 0, 0, 0
1503616403281,-2, 2, -5, 0, -3, 0, 3, -2, 0
1503616403304,0, 2, 1, 2, 3, -4, 0, -1, 0
1503616403319,0, 12, 1, 3, 0, 0, -2, 0, 0
1503616403342,-3, -29, -7, -4, -2, 3, 0, 5, 0
1503616403364,-1, -6, 0, -2, -1, -4, 1, -6, 0
1503616403381,-1, -3, -4, 0, 2, -3, -1, -4, 0
1503616403401,0, 9, -1, -3, 0, 4, -4, 0, 0
1503616403424,0, 6, 5, 0, -1, 0, 0, -2, 0
1503616403439,0, 7, 4, 2, -1, 0, 2, 3, 0
1503616403461,-1, 0, 1, 0, -3, -3, -2, -1, 0
1503616403484,1, -1, -7, -3, 0, 2, 2, 0, 0
1503616403500,0, -2, -1, -1, 0, 1, -2, -2, 0
1503616403521,-1, 2, 4, 0, 1, -3, -2, 0, 0
1503616403544,0, 8, 7, -1, -2, 1, 1, -3, 0
1503616403559,-1, -1, 5, 1, 1, 2, -2, 2, 0
1503616403581,-1, -2, -2, -1, -2, -3, -1, 0, 0
1503616403605,-1, 1, 1, 1, -3, -3, -2, -3, 0
1503616403626,-1, -7, -11, -3, -1, 1, 0, -2, 0
1503616403642,0, 0, -3, 0, 0, -2, -4, -5, 0
1503616403663,0, 0, -2, 0, 0, -1, -3, 0, 0
1503616403672,-1, -2, 0, -4, 1, 2, -5, 0, 0
1503616403693,-1, -1, 0, 0, 1, -4, -1, -1, 0
1503616403715,-1, -1, 2, -4, -1, 3, -2, -1, 0
1503616403731,-1, 1, -1, 1, -2, -1, 2, -2, 0
1503616403753,0, -1, -1, 0, -1, -4, 1, 0, 0
1503616403775,0, -1, -1, -4, 0, -1, -3, 2, 0
1503616403791,-1, -2, 0, -5, 0, 2, 1, -1, 0
1503616403813,-1, -1, -2, -1, 4, 0, 2, 0, 0
1503616403821,-2, -4, -2, -5, -4, -2, -5, -2, 0
1503616403844,-1, 0, -3, -8, -3, 0, 1, -1, 0
1503616403866,1, 0, 7, 10, -1, 3, 3, 0, 0
1503616403882,-2, 0, -3, -4, -2, -3, -4, -1, 0
1503616403903,0, -1, -2, 7, 14, 1, 5, -2, 0
1503616403926,0, 0, -3, 0, -5, 1, -4, 1, 0
1503616403934,-1, 0, -2, -3, -6, -5, -2, 0, 0
1503616403955,-1, -2, -3, -2, 1, 2, 0, -3, 0
1503616403971,0, 0, 0, 1, -1, -1, 3, 0, 0
1503616403993,-1, -1, 1, 2, 0, -3, -5, -3, 0
1503616404002,-1, -1, -6, -3, 2, -3, -4, -5, 0
1503616404023,2, 0, 1, 1, 1, 1, -3, 4, 0
1503616404031,-1, -1, -2, -3, 0, 1, 0, 0, 0
1503616404053,0, 1, 1, 5, 0, -1, -1, -1, 0
1503616404075,-1, 0, 0, 2, -9, 0, 1, -2, 0
1503616404091,-2, -3, -4, -7, -4, -4, -1, -1, 0
1503616404113,-2, 0, -3, 1, 0, -2, -1, 1, 0
1503616404121,1, -1, 0, -1, 3, -5, -1, 7, 0
1503616404144,-2, -2, -1, -1, 4, 1, 3, -4, 0
1503616404152,2, -2, 0, -1, -4, 1, 4, 3, 0
1503616404177,-1, 1, -1, 0, 5, 0, -2, -3, 0
1503616404195,-1, 0, 1, 4, 2, -2, -3, -1, 0
1503616404211,-2, -3, -2, 7, 6, -1, -2, -2, 0
1503616404234,-1, 0, 0, -3, -2, 0, 1, -3, 0
1503616404255,0, 3, 0, 1, -6, -6, -2, 1, 0
1503616404271,-2, -3, -6, -9, 7, -1, 2, -1, 0
1503616404294,1, 0, -1, 4, 5, 2, -2, 1, 0
1503616404315,0, 1, 1, 5, 1, 3, 0, 1, 0
1503616404331,-2, -4, -3, -3, 9, -2, -2, 0, 0
1503616404353,-2, -2, -3, -18, -21, -2, -3, -4, 1
1503616404378,0, -1, 1, 0, -2, -3, -2, -2, 1
1503616404391,-1, 0, -1, -1, 4, -1, 2, 0, 1
1503616404415,-1, -1, -2, 3, 21, 1, -1, -3, 1
1503616404435,1, -3, -3, 1, 1, -2, 0, 1, 1
1503616404451,-1, 1, 1, -3, -10, -1, 1, 1, 1
1503616404473,0, 0, 7, 7, 7, 0, -1, -4, 1
1503616404495,-3, 1, -1, 0, 15, 2, 0, -3, 1
1503616404512,0, 0, -1, -1, -15, -5, -1, -3, 1
1503616404534,0, -2, -1, 2, -4, 2, -1, 2, 1
1503616404556,-1, -1, 1, 1, -6, -2, -5, 0, 1
1503616404579,-1, 0, -3, -3, -2, -3, 0, -1, 1
1503616404594,-1, 0, -1, 3, -5, 1, -1, -1, 1
1503616404616,0, -1, -1, 4, 6, 2, -1, -1, 1
1503616404638,-3, -3, -2, -7, -15, -3, -3, 3, 1
1503616404648,1, -1, 1, -2, -1, -2, 0, -1, 1
1503616404668,-2, -2, 0, 5, 3, -2, -1, 4, 1
1503616404684,-3, -3, -1, 4, 5, 0, 0, -6, 1
1503616404706,1, 1, 1, -6, -1, 2, 3, 1, 1
1503616404714,0, -2, -4, -2, -1, 0, 0, 5, 1
1503616404736,3, 2, 3, 21, 30, 2, 2, -3, 1
1503616404758,0, 0, 4, -2, -6, 0, 2, 4, 1
1503616404773,-9, -2, -2, -1, -6, -2, -1, -4, 1
1503616404795,0, -2, 1, -8, 1, -1, -5, -3, 1
1503616404818,10, 1, 2, 2, -5, -2, -2, 0, 1
1503616404833,10, -1, -3, -2, -7, 2, 1, 1, 1
1503616404856,-15, -5, -2, 0, -2, -3, -2, -14, 1
1503616404878,-2, 0, -2, -3, -2, -1, 1, -1, 1
1503616404893,5, -1, -2, 1, -3, 1, -1, 3, 1
1503616404915,-4, -2, 1, 8, 3, -3, 1, 2, 1
1503616404938,-3, 1, 1, 5, -2, 0, -1, 3, 1
1503616404953,-2, -1, -2, -5, -2, -1, -2, 2, 1
1503616404975,0, 1, -2, -4, 1, -1, -1, 4, 1
1503616404998,2, 0, 0, -4, -1, -1, -1, -4, 1
1503616405016,2, -2, -1, -2, 0, 1, 5, -3, 1
1503616405035,-2, 0, -1, 3, 9, 2, -4, -1, 1
1503616405058,-1, 0, -1, -3, -2, 0, -3, -2, 1
1503616405073,-2, -2, -2, -3, -4, -2, -2, -5, 1
1503616405095,-2, -2, -4, -3, -4, -2, 1, 5, 1
1503616405119,-2, -1, -1, 0, -2, 2, -5, 4, 1
1503616405133,-3, -2, 0, -6, 4, 0, -1, -3, 1
1503616405158,-2, 0, -1, -1, -8, -2, -8, -9, 1
1503616405178,2, -1, -1, 3, 5, 0, 2, 3, 1
1503616405194,1, -1, 3, 1, -3, 4, 3, 1, 0
1503616405209,10, -3, -1, -1, -1, -3, 0, 5, 0
1503616405227,-3, -1, 1, 2, 3, -1, -4, -9, 0
1503616405246,-2, 0, -1, 1, -2, -1, -5, 3, 0
1503616405271,-2, 0, -2, -1, 2, 1, -7, 0, 0
1503616405284,3, 0, -2, -1, -3, -2, -9, 2, 0
1503616405306,-3, 2, 0, 1, -4, 1, 4, -7, 0
1503616405328,-9, -3, 1, 5, 1, 1, -1, -4, 0
1503616405343,3, 0, -2, -3, -2, -3, -3, -4, 0
1503616405366,-2, 0, 0, 2, -1, -1, -2, 0, 0
1503616405388,-2, -2, -3, -2, 2, -2, -7, -9, 0
1503616405403,1, -1, -1, -1, -1, 0, 2, 4, 0
1503616405427,-4, -2, 1, 1, 0, 0, 9, 5, 0
1503616405448,-4, -5, -2, -4, -4, 1, -3, -3, 0
1503616405463,-2, -2, 0, 2, 1, -1, 3, 4, 0
1503616405486,3, 3, -1, -1, 0, 3, 14, 6, 0
1503616405508,11, 0, 2, -2, -3, -3, -2, -1, 0
1503616405531,-4, -1, -3, -2, 0, 0, 1, 8, 0
1503616405547,-3, -1, 2, 2, 0, -2, 4, -6, 0
1503616405568,-2, 0, -4, -2, -1, 0, 6, -5, 0
1503616405591,-13, -2, 0, -3, -1, -2, -7, -4, 0
1503616405606,0, -1, -3, -2, -4, -2, 6, 1, 0
1503616405628,-24, -3, 0, -1, 2, -2, -8, -3, 0
1503616405654,10, 2, 2, 0, -2, -3, -12, 0, 0
1503616405666,8, -1, -3, -2, -3, 3, -4, 1, 0
1503616405689,2, -4, -5, -3, 1, -2, -5, -1, 0
1503616405711,3, 1, -1, 1, -2, -3, -8, -2, 0
1503616405726,-3, -2, -3, -3, -5, -2, -2, -3, 0
1503616405748,-1, 1, -2, 1, 0, -2, -10, -3, 0
1503616405771,-3, 0, 1, -1, 0, 0, 11, 2, 0
1503616405791,-2, 3, 1, 3, 3, 0, 1, 2, 0
1503616405808,13, 1, 4, -2, -3, -2, -2, -6, 0
1503616405831,-2, 1, -1, -2, -1, -4, -11, -13, 0
1503616405846,-13, -5, -2, -3, -1, 0, 2, 2, 0
1503616405868,-3, -3, -5, -4, -2, 0, -2, -3, 0
1503616405893,-5, 0, 1, 3, -2, 5, 1, 2, 0
1503616405906,0, -2, 3, 2, 4, -3, 3, 7, 0
1503616405928,-16, -15, -3, -3, -1, -2, -1, 0, 0
1503616405951,22, 4, -4, -1, -1, -1, 6, 2, 0
1503616405966,-2, 1, 0, -2, -3, 0, -1, 5, 0
1503616405990,9, 2, 1, 0, 2, 4, -6, -11, 0
1503616406011,-2, -3, -2, -5, -3, -2, 5, 6, 0
1503616406026,4, -2, -5, -2, -3, -3, -1, 3, 0
1503616406048,29, -4, 4, 2, 2, -1, -3, -2, 0
1503616406071,4, 0, -5, 0, 1, 0, -3, -8, 0
1503616406086,-27, -3, 1, 5, 5, 2, 2, 5, 0
1503616406108,0, 2, 1, 0, 0, -2, -7, 6, 0
1503616406131,-17, -2, -3, -1, -2, -2, -2, -7, 0
1503616406146,-11, 13, 5, -2, -4, -1, -4, -4, 0
1503616406168,2, 20, 10, 0, -1, -2, 1, 5, 0
1503616406191,8, -4, -4, -4, -2, 1, 6, 1, 0
1503616406206,-6, -10, -7, 1, -2, -2, -2, 9, 0
1503616406228,4, 21, 5, -1, -1, -2, 0, 1, 0
1503616406251,-7, 1, -6, -4, -3, 0, -6, 0, 0
1503616406266,-4, -8, -1, 1, 0, -4, 1, -4, 0
1503616406291,2, -10, -1, -1, 0, -2, -3, -5, 0
1503616406311,7, 1, 2, 3, 2, 2, 2, -2, 0
1503616406327,-13, -12, -4, -2, -4, -1, -11, -6, 0
1503616406348,-5, -3, -2, 1, 1, -1, 5, -4, 0
1503616406371,-3, -12, -6, -3, -1, 0, 7, 6, 0
1503616406386,8, -24, 0, 0, -5, -1, -3, 5, 0
1503616406408,12, 7, 2, 0, 1, -1, 0, -1, 0
1503616406431,-14, -4, -4, -1, -1, 1, -1, 2, 0
1503616406453,27, 8, 2, 6, 3, 4, -3, -20, 0
1503616406468,-26, 6, 1, -4, -2, -6, -8, -8, 0
1503616406492,2, -2, 2, -1, -2, -2, -11, -7, 0
1503616406513,7, -18, -2, -4, 2, 0, 9, 2, 0
1503616406529,12, 6, -2, -4, -3, -4, -2, 1, 0
1503616406551,-5, 3, -2, -2, -2, 0, 0, 5, 0
1503616406573,-2, 2, -2, 1, -1, -2, 1, 0, 0
1503616406582,-13, -1, -6, -4, -4, 2, 2, -1, 0
1503616406604,-2, -4, -6, 3, 2, -1, -1, 0, 0
1503616406619,-5, -2, -3, -3, 0, -1, -3, -5, 0
1503616406641,6, -4, -2, -1, 4, 1, 9, 7, 0
1503616406664,-1, 7, 4, 2, 0, 0, -2, 1, 0
1503616406679,-26, -2, 1, -1, -2, -4, -14, -6, 0
1503616406701,2, -4, -3, 0, -2, 4, 1, -12, 0
1503616406724,3, -3, 0, 1, 0, -1, 1, -2, 0
1503616406739,7, 6, 3, 2, 2, -1, 3, -1, 0
1503616406765,-1, -1, -1, -3, -3, -1, -4, 1, 0
1503616406784,13, -11, -2, -1, -4, 0, 6, 3, 0
1503616406807,-2, 17, 0, -1, -2, -2, -13, -1, 0
1503616406829,3, 4, 0, -2, 0, -3, 7, 3, 0
1503616406845,-5, -10, 1, 1, 0, 0, 1, -1, 0
1503616406861,0, -1, 4, 2, 1, -3, -1, -1, 0
1503616406881,1, -4, -4, -5, -2, -1, 2, 1, 0
1503616406904,-1, -1, -2, 0, -2, 0, -1, 2, 0
1503616406911,-5, -11, -3, -6, -3, -3, -3, -4, 0
1503616406933,-4, -26, -3, -1, 0, -1, -3, 1, 0
1503616406948,4, -3, 5, 1, -1, 1, 2, 0, 0
1503616406972,-2, 1, -7, 0, 2, 0, -1, 1, 0
1503616406996,-1, -4, -8, -5, -5, 2, 0, -2, 0
1503616407008,-1, 7, -2, 2, -1, 0, -2, 3, 0
1503616407032,-3, 1, -1, -2, 2, -5, -3, -4, 0
1503616407053,6, -4, 2, 1, 0, 1, -1, 0, 0
1503616407068,-1, 7, 1, 1, -1, 2, 3, 1, 0
1503616407091,-2, 2, 0, 2, 0, 1, 0, 2, 0
1503616407113,0, -8, -6, -2, -1, -2, -1, -3, 0
1503616407131,1, 2, 2, 0, 0, 0, -4, 3, 0
1503616407151,-2, -6, -4, 0, -2, 0, 2, -5, 0
1503616407173,3, 3, 2, 0, -1, -3, -2, -5, 0
1503616407188,2, -5, -9, -5, 1, -1, 0, -1, 0
1503616407211,-7, 8, 9, 1, -1, -6, 0, 1, 0
1503616407233,3, 6, -3, 0, 2, -3, -2, -1, 0
1503616407241,4, -12, 1, 0, 1, -2, 0, -3, 0
1503616407269,3, -6, -9, -3, -4, -3, -2, -9, 0
1503616407279,-3, 0, -4, -1, -4, -1, -1, 2, 0
1503616407301,-5, 8, -3, -5, -4, -2, -2, -1, 0
1503616407324,2, 4, 0, 0, 0, 2, 0, 0, 0
1503616407340,-6, -12, -5, -3, -1, -1, -1, 2, 0
1503616407361,-3, -3, -3, -5, 0, -4, 0, -3, 0
1503616407384,-2, 6, -2, -1, 1, 2, 0, 1, 0
1503616407407,-1, -11, 2, 1, -2, -1, -1, 4, 0
1503616407421,0, -3, 0, -1, -2, 1, -1, -4, 0
1503616407444,-1, -3, 10, 1, 2, -3, -1, 1, 0
1503616407466,-3, -3, -11, -4, -2, -1, -1, 0, 0
1503616407481,-2, -1, 11, 3, 1, 2, 1, -3, 0
1503616407496,4, 7, 4, 0, 1, 2, -2, 1, 0
1503616407511,-6, -46, -11, -4, -2, -3, -2, -3, 0
1503616407533,-1, -21, -17, -5, -4, -2, 3, 2, 0
1503616407541,-4, -6, -9, -3, -2, -2, -3, -1, 0
1503616407565,3, 7, -2, 1, 0, -4, -1, 0, 0
1503616407586,-1, 10, -9, -3, -4, -1, -6, 1, 0
1503616407602,0, 1, -3, -2, 0, -5, -4, 0, 0
1503616407624,12, 7, -1, 0, 1, -1, -1, 0, 0
1503616407646,-2, -18, -1, -1, -2, 1, -1, -1, 0
1503616407662,-4, 2, -12, -4, -3, 2, 1, -1, 0
1503616407684,0, 22, 8, 1, 2, -1, 4, 1, 0
1503616407706,2, -25, 2, 2, 0, 1, 1, 0, 0
1503616407713,0, 0, -7, 0, -1, -4, -2, 0, 0
1503616407736,0, 5, -4, -3, -2, 1, 2, 1, 0
1503616407753,-5, -4, -2, -1, -2, -1, -3, -2, 0
1503616407768,-1, 4, -3, 0, 0, -5, -1, -2, 0
1503616407783,-4, -36, -3, 0, 2, -2, 0, -1, 0
1503616407804,0, 2, -1, 0, -3, 2, -2, 0, 0
1503616407826,6, 17, 27, 5, 0, -2, -1, 3, 0
1503616407841,-4, -15, -7, -2, -1, -1, -1, -1, 0
1503616407864,-3, -21, -3, -3, 0, 1, 0, -2, 0
1503616407886,-1, 49, 5, 0, -3, 2, 0, -4, 0
1503616407902,1, 9, 3, -1, 2, -3, -1, 0, 0
1503616407924,-2, -33, -10, -4, -2, -3, -1, -2, 0
1503616407946,0, -28, -3, -1, -2, -1, -2, -3, 0
1503616407961,0, -3, 9, 0, -1, -2, 0, 2, 0
1503616407984,-1, 22, 1, 0, -2, 3, -3, 0, 0
1503616408006,1, 3, 1, 2, 0, 0, -2, 1, 0
1503616408021,-1, -13, -1, -1, 0, -1, 2, 2, 0
1503616408045,0, 6, -2, 2, 3, -1, -1, -1, 0
1503616408074,1, 29, 2, 0, 0, -1, -2, 0, 0
1503616408096,1, -1, -9, -3, -3, -3, 2, 1, 0
1503616408126,3, 0, 7, -1, -1, -2, 1, 0, 0
1503616408141,0, 29, 6, 1, -2, 1, -1, -3, 0
1503616408156,2, -1, 2, -2, -1, 2, -2, -1, 0
1503616408171,-2, 13, -2, -1, -2, -3, 0, 2, 0
1503616408193,5, 50, 20, 6, 1, -4, -5, -5, 0
1503616408216,0, -49, -13, -7, 0, 0, 2, 3, 0
1503616408231,2, 4, -3, 0, -1, 1, -3, 3, 0
1503616408253,-2, -12, -9, -2, -1, -3, -1, -4, 0
1503616408276,-1, -10, -2, 0, -1, -2, -3, 0, 0
1503616408297,-2, -8, 4, 1, 0, 1, 2, 2, 0
1503616408313,-7, 7, -3, 0, 0, -3, -2, -6, 0
1503616408328,2, 0, -2, -1, 0, 1, -2, -1, 0
1503616408344,1, -14, 0, 1, 1, 0, 3, 2, 0
1503616408366,-3, 11, 2, -1, 0, 2, 1, -5, 0
1503616408388,-1, -27, -4, -2, -2, -1, -5, 2, 0
1503616408405,-2, -17, 1, 0, 0, -1, 1, 1, 0
1503616408426,2, 54, 4, 0, -1, 0, -2, 3, 0
1503616408449,-2, 9, -3, -2, -2, -2, -3, -5, 0
1503616408464,-3, -36, 3, 1, 1, -1, -4, 1, 0
1503616408479,-2, -6, 1, -1, -2, -1, -4, -3, 0
1503616408493,2, 19, 23, 3, 0, 1, 2, 0, 0
1503616408516,-2, -7, -6, -1, 0, -1, -1, 2, 0
1503616408539,0, -28, 10, 3, 0, 1, -1, -2, 0
1503616408583,1, 34, 6, 2, -2, -2, -3, 2, 0
1503616408591,0, 10, -5, -4, -1, 2, -1, -2, 0
1503616408598,-1, -11, 0, 1, 0, -2, -3, -4, 0
1503616408613,-1, -12, -7, 0, -2, -1, -2, 0, 0
1503616408636,-5, -4, 1, 0, 0, -3, 1, -2, 0
1503616408657,0, 15, -1, -1, -1, -1, 0, -1, 0
1503616408666,4, -3, 0, 1, -1, 4, 1, 1, 0
1503616408688,-2, -27, 0, -1, -1, -4, 1, -1, 0
1503616408704,-5, 14, 1, -2, 0, 3, -2, 1, 0
1503616408726,0, 13, 6, 1, 3, -2, 0, -3, 0
1503616408749,1, 16, -19, -5, -2, 0, -2, 0, 0
1503616408764,-4, -23, 0, 0, -2, 0, -3, -3, 0
1503616408786,-3, -24, -3, -3, 0, -2, 0, 3, 0
1503616408809,1, 3, -2, -4, -2, -4, -1, 0, 0
1503616408817,3, 15, -9, -3, -1, 4, 0, -1, 0
1503616408838,1, -12, -6, -3, -4, -5, -3, 3, 0
1503616408853,-3, -7, -8, -3, -1, -3, 1, 1, 0
1503616408876,0, 15, -1, 0, 0, -3, -3, -4, 0
1503616408898,0, -6, -3, -1, -2, 1, -1, -3, 0
1503616408914,-4, -25, -1, -2, -1, 3, -2, 2, 0
1503616408936,1, 2, 11, 2, 0, 0, 1, -2, 0
1503616408957,-1, -6, -1, -2, -2, 0, -1, 2, 0
1503616408973,-4, -23, -10, -3, 1, -4, -3, -4, 0
1503616408995,1, 2, 12, 0, 1, -3, 1, 0, 0
1503616409018,-2, 4, 6, 0, -2, 1, -2, -2, 0
1503616409026,-2, 16, 21, 4, 3, 0, 2, -4, 0
1503616409048,-4, -36, -11, -2, -1, 1, 1, 3, 0
1503616409064,-3, -14, -8, -4, -2, 2, -5, -3, 0
1503616409086,0, -20, 1, 0, 0, -5, 0, 0, 0
1503616409110,-3, -14, 5, 0, -2, -1, -5, -2, 0
1503616409124,1, 6, 3, -1, 0, 0, 1, 0, 0
1503616409138,1, 0, -8, -1, -2, 1, 1, -3, 0
1503616409153,-4, -9, -4, -1, -4, -1, -2, -3, 0
1503616409178,-1, 8, -14, -2, 0, -4, -1, 4, 0
1503616409198,0, -20, -6, -3, 2, 0, -1, -3, 0
1503616409220,2, 16, 12, 1, -1, -1, -3, 3, 0
1503616409236,0, 32, 1, 0, 2, -1, -4, -2, 0
1503616409257,-3, 40, 1, -2, -4, -2, -5, -4, 0
1503616409266,0, -4, 1, -1, -1, -4, 2, -3, 0
1503616409288,-3, -9, -1, -1, 0, -1, 3, -2, 0
1503616409296,1, -26, -4, 2, 1, 0, 0, 2, 0
1503616409318,1, 33, 11, 0, -3, 0, -1, -3, 0
1503616409340,-1, -4, -7, -2, -1, -1, -3, 3, 0
1503616409362,-1, -4, -5, -1, 0, -1, 0, -1, 0
1503616409387,-3, -6, -4, -3, 0, 2, 2, -1, 0
1503616409400,-1, 8, 8, -1, -3, -1, -1, -2, 0
1503616409416,0, -2, -5, -3, -4, -1, -3, -3, 0
1503616409437,0, -4, -1, 0, 0, -2, -1, 1, 0
1503616409460,-1, -2, -2, -1, -1, -1, -2, -2, 0
1503616409476,-2, 4, -2, 0, 1, -1, 1, -1, 0
1503616409497,-1, 7, -5, -5, 0, 0, -3, -1, 0
1503616409524,-4, -2, 0, 2, 1, -1, -1, 0, 0
1503616409549,-3, -2, -1, 3, 2, -1, -1, -2, 0
1503616409558,-1, 2, 3, 27, 13, 3, 0, -1, 0
1503616409582,0, -7, -7, -20, -4, -2, -2, -1, 0
1503616409595,-8, -3, -2, -10, -3, -2, -2, -7, 0
1503616409618,-18, -4, -1, -6, 9, 0, 5, 0, 0
1503616409640,8, -1, -1, 1, -12, -1, 1, 1, 0
1503616409656,3, 0, 0, -8, 5, 0, -3, 2, 0
1503616409677,5, 1, 3, 4, -4, 4, 0, 3, 0
1503616409700,-1, -1, -2, 3, -6, -2, 0, -1, 0
1503616409719,4, 1, -4, -6, -16, -5, -1, 0, 0
1503616409738,3, 0, -4, -7, -5, -4, -1, 0, 0
1503616409760,-5, -3, 0, -15, -6, 0, -3, -3, 0
1503616409775,-8, -4, -5, -20, -26, -5, -3, -6, 0
1503616409791,0, 0, -4, 4, 3, -2, 0, 2, 0
1503616409806,0, 2, 0, -17, -9, -2, 0, 2, 0
1503616409828,-11, -1, 2, 1, -11, -6, -1, -2, 0
1503616409851,-10, -4, -1, -4, -6, 0, 1, -2, 0
1503616409866,14, 4, 2, 13, -4, 0, 2, 4, 0
1503616409889,2, 0, -2, -8, 1, 2, -2, -3, 0
1503616409911,3, -1, -1, 3, 4, -3, -1, 1, 0
1503616409926,-1, -2, 0, 0, 2, 2, 1, -1, 1
1503616409949,22, 0, -4, -6, 0, 3, -3, -2, 1
1503616409971,4, 4, 3, 9, 2, -2, -1, -1, 1
1503616409986,-20, -9, 0, -2, 4, -5, 0, -1, 1
1503616410008,15, 2, 3, -1, -5, -1, 2, 3, 1
1503616410031,-6, -3, -2, 0, -1, 0, -3, -1, 1
1503616410046,5, 0, -1, -11, -6, -3, -1, -1, 1
1503616410068,-21, 0, -1, -2, -11, -2, -2, -4, 1
1503616410091,-4, 2, 2, 3, 4, -1, -1, -2, 1
1503616410107,-4, -5, -6, -5, -2, -3, -2, -4, 1
1503616410128,-3, -1, -1, 5, 3, 1, -2, 1, 1
1503616410151,1, -1, 1, 4, 17, 2, 0, -1, 1
1503616410173,2, 2, 1, 2, -2, -1, 1, 5, 1
1503616410188,-3, 2, 0, -2, -5, -1, -4, -3, 1
1503616410211,-31, -5, -2, -4, -5, -1, 0, 0, 1
1503616410233,6, 1, 0, -5, -4, 2, 3, -3, 1
1503616410248,9, -1, -1, 8, -9, -1, -2, 0, 1
1503616410271,8, 0, -2, -6, -3, 0, -1, -2, 1
1503616410293,6, 3, -2, -2, 6, -2, 1, 1, 1
1503616410316,-10, -6, -4, -8, 1, -2, -1, 3, 1
1503616410331,-3, -2, -3, -5, 1, -2, -2, -6, 1
1503616410354,13, 0, 2, 1, 3, 1, -1, -2, 1
1503616410368,-39, 3, 0, 7, 7, 0, -1, -4, 1
1503616410391,17, 0, -1, -1, -2, -1, 0, 5, 1
1503616410413,-4, -6, -1, -1, 0, -1, 3, 3, 1
1503616410428,-9, -3, 1, 4, -4, -1, 0, -1, 1
1503616410453,8, 0, -2, -8, -7, -2, -1, 1, 1
1503616410473,12, -3, 0, 0, -4, 0, -1, -4, 1
1503616410488,-18, -2, -1, -2, 1, -1, 0, 3, 1
1503616410511,7, 4, -1, 4, 3, 0, -2, -1, 1
1503616410538,-42, -9, -4, -2, -3, 0, -3, -4, 1
1503616410548,20, 3, 1, -1, 0, -2, -1, 1, 1
1503616410571,-1, -2, -1, -2, 2, 1, -4, -2, 1
1503616410593,4, -4, -3, -3, -4, -6, 0, 2, 1
1503616410608,8, 2, -1, -1, -5, 1, -2, -6, 1
1503616410631,5, -2, 1, -2, -5, -1, 0, -1, 1
1503616410654,6, 1, 0, 7, 5, 1, -3, -5, 1
1503616410669,2, -1, 2, -1, -2, -2, -6, -3, 1
1503616410692,-15, -2, -3, -3, 1, 0, 3, -3, 1
1503616410713,9, -3, -3, 2, 2, 1, 3, 0, 1
1503616410728,-3, 1, 2, -6, -12, -4, -3, 0, 1
1503616410751,0, -1, -1, 0, -1, 1, 2, -3, 1
1503616410773,7, 6, 2, 0, -1, 1, -1, 4, 1
1503616410788,17, 3, -2, -4, 4, -2, 0, -3, 0
1503616410810,-10, -1, -1, 1, 3, 3, 0, 1, 0
1503616410833,1, -3, -1, -1, -1, -3, -1, -3, 0
1503616410848,-5, -2, 0, -5, 2, -3, -2, 0, 0
1503616410870,-3, 0, 1, 14, 10, 4, -1, 1, 0
1503616410893,0, 0, -2, -8, -10, -2, 1, 2, 0
1503616410908,-4, -3, -3, -4, -4, -1, -1, -3, 0
1503616410931,-35, -3, -3, -7, -2, -2, -2, -5, 0
1503616410953,4, 1, 3, 17, 1, 3, 2, 5, 0
1503616410968,2, -1, 1, 0, -1, -1, 1, -6, 0
1503616410991,13, 1, 2, -4, -2, 0, -3, 1, 0
1503616411013,9, 1, -3, -5, 1, -3, -1, -1, 0
1503616411028,-26, -2, -4, -3, -1, -5, 0, -1, 0
1503616411051,16, 2, 2, 0, 2, 0, -4, -4, 0
1503616411073,1, -3, 1, -2, 0, 4, 1, 2, 0
1503616411096,11, -1, -4, -2, -1, 1, 1, -2, 0
1503616411111,-4, -2, -2, 0, -4, -3, -2, -1, 0
1503616411134,0, -2, -1, -2, 2, -3, 0, 2, 0
1503616411158,13, -1, -3, -3, -2, -3, -4, 2, 0
1503616411171,-3, -2, -2, -2, 1, 1, -3, 4, 0
1503616411193,-7, -3, 1, 3, -5, 1, -1, -5, 0
1503616411218,-3, -1, 1, -2, -2, 0, 0, 0, 0
1503616411231,4, 2, 2, 9, 6, -1, 0, -1, 0
1503616411253,10, -4, -1, -2, -4, 0, 1, -1, 0
1503616411278,-16, -4, -2, -5, -2, -4, -5, -6, 0
1503616411293,-3, 0, -3, -4, 1, -1, 2, 3, 0
1503616411313,-2, 2, 7, 5, -2, 1, 6, 4, 0
1503616411336,1, 2, 0, -5, 1, -1, 0, -4, 0
1503616411351,1, -2, -4, -2, -1, 1, -2, -4, 0
1503616411373,5, 0, -3, -1, -1, -4, -5, 1, 0
1503616411396,-2, 0, 2, 0, 0, -2, -1, 6, 0
1503616411411,-2, 1, -2, -2, -4, -2, 1, -1, 0
1503616411433,-1, -2, -2, -2, -2, -3, 1, -5, 0
1503616411456,-4, 1, -3, -2, -2, -1, -2, 1, 0
1503616411471,1, -1, 0, 0, 0, 1, -2, -2, 0
1503616411493,-2, -2, -1, 0, 2, 0, -1, -3, 0
1503616411516,-2, -4, -1, -1, -3, -3, -5, -3, 0
1503616411531,-6, 0, 1, 1, -1, 3, -1, -1, 0
1503616411553,5, 1, -2, 1, 0, -1, 3, -3, 0
1503616411576,2, -1, -2, -1, -1, -1, -1, 2, 0
1503616411590,-3, -2, -1, 1, 4, -1, -1, 3, 0
1503616411613,5, -1, -1, -3, -1, 1, 4, -1, 0
1503616411636,-2, -1, -2, 0, -3, 0, -4, -8, 0
1503616411651,-4, 3, 6, 1, 0, 2, 0, 5, 0
1503616411673,-4, 1, -2, -4, -2, -2, -3, 0, 0
1503616411696,-5, -2, -4, -3, 0, -1, 0, 3, 0
1503616411711,5, -2, -2, -5, -3, 0, -1, 0, 0
1503616411733,-12, -2, 4, 3, 0, -1, -1, -4, 0
1503616411756,-1, -2, -3, -1, -1, -3, -1, -4, 0
1503616411771,0, 1, -2, 1, -3, -2, -1, 5, 0
1503616411793,3, -1, 0, 0, -1, -2, 0, -3, 0
1503616411816,6, -2, -3, -7, -5, -1, -2, 1, 0
1503616411831,-4, 2, 0, -1, -3, 2, 1, 0, 0
1503616411853,11, 4, 4, -2, 0, -1, -2, -8, 0
1503616411876,5, -1, -4, -1, -2, -1, -2, -4, 0
1503616411891,-19, -9, -5, 1, 4, 0, 2, 3, 0
1503616411913,5, 1, -1, -2, -1, -3, 1, 3, 0
1503616411936,-8, -3, -4, 1, -1, -3, -3, -5, 0
1503616411952,8, 4, 3, 13, 3, 2, 1, 5, 0
1503616411973,-9, 2, 0, -2, -3, -1, -2, -2, 0
1503616411997,21, 1, -3, -3, 1, -4, -9, -12, 0
1503616412010,-14, -3, -6, -2, -1, 1, 3, 3, 0
1503616412036,-3, -2, 0, -1, -1, -2, -2, 3, 0
1503616412056,6, 2, 3, 5, 5, 3, 0, -1, 0
1503616412078,-4, -2, -3, -4, -4, -2, 2, 1, 0
1503616412093,1, -1, -3, -3, -4, -4, -2, -1, 0
1503616412115,12, -2, 1, -1, 0, 1, -5, -1, 0
1503616412138,-13, 0, 2, 1, 0, 2, 2, -2, 0
1503616412153,1, -4, 0, -4, -1, -3, 0, 2, 0
1503616412175,-4, 4, 2, 0, -1, -1, 3, -1, 0
1503616412202,-2, -4, -1, 1, -1, -1, 1, -3, 0
1503616412243,-16, -4, -4, -1, -1, -2, -4, -2, 0
1503616412250,-3, -8, -4, -4, 0, -2, 0, -1, 0
1503616412267,5, 9, 10, -2, -3, -4, -3, -3, 0
1503616412288,-9, -5, -5, -1, 1, 2, 2, 4, 0
1503616412304,-2, -4, -4, 2, -1, -1, -6, 2, 0
1503616412326,-16, -5, -3, -4, -1, 1, 1, -3, 0
1503616412348,2, -12, -4, -2, 1, -4, 2, 6, 0
1503616412367,-4, -7, -7, -3, -4, 1, -2, -8, 0
1503616412387,3, 2, 6, 3, -1, -4, 0, 0, 0
1503616412409,-3, -5, -4, -1, 2, 2, 5, -5, 0
1503616412424,-2, -8, -6, 0, 1, -1, 1, -1, 0
1503616412446,2, 1, 4, -1, -2, -2, -7, -4, 0
1503616412469,-3, 4, 0, 4, 1, 2, -1, 3, 0
1503616412484,-2, -3, -1, -4, 0, -3, 0, -5, 0
1503616412506,2, 5, 1, -2, 0, 1, -2, 2, 0
1503616412528,3, 14, 1, -2, -2, 2, -2, -1, 0
1503616412544,-3, 0, 0, -1, -2, -4, 0, 1, 0
1503616412569,-1, 0, -2, 1, 1, 2, -5, -2, 0
1503616412573,-5, -1, 0, 2, 1, 2, -1, -2, 0
1503616412595,-1, -1, 0, -3, -1, -1, 0, 2, 0
1503616412618,0, -4, -4, 1, 0, -3, -1, 2, 0
1503616412635,-1, -20, 2, 0, -2, -1, -3, 0, 0
1503616412655,0, -6, -2, 0, 0, -1, 1, -2, 0
1503616412678,0, -7, -4, -1, -2, -2, -4, -3, 0
1503616412693,2, -11, 1, 1, -1, 1, -1, -2, 0
1503616412715,-7, 8, -1, -2, 2, -1, 0, 1, 0
1503616412724,-1, -1, 2, 0, 1, -2, -1, -1, 0
1503616412746,-2, -4, -8, -3, -1, 0, -1, -1, 0
1503616412770,1, -8, 3, 1, -3, 0, -1, -4, 0
1503616412784,-7, -5, -6, -1, -4, 1, -1, 2, 0
1503616412816,-11, -2, -3, -1, -3, 0, -1, 0, 0
1503616412837,2, 4, 4, -3, -2, 0, 1, -2, 0
1503616412858,-1, -4, -4, -1, 0, -2, -2, -2, 0
1503616412873,-6, -10, -2, -2, -2, -1, 0, -3, 0
1503616412895,0, -1, 1, 1, 2, 0, 2, 0, 0
1503616412918,-1, 4, -5, 0, 0, -2, 1, 0, 0
1503616412933,4, 1, -2, 0, -2, 2, -1, 0, 0
1503616412955,4, 2, 6, 4, 3, -1, -3, -3, 0
1503616412979,-5, 16, 5, -1, 1, 0, 2, 3, 0
1503616413000,-8, -7, -2, -8, -1, -2, 0, -3, 0
1503616413009,25, 3, -3, -2, -2, 1, 0, 2, 0
1503616413031,-3, -3, -5, -3, -3, 0, -3, 2, 0
1503616413046,1, 1, 1, 0, -2, 2, 1, 1, 0
1503616413061,-1, -2, -9, -3, -3, 1, -2, 0, 0
1503616413073,0, -1, -3, -2, 1, -2, -2, -4, 0
1503616413090,-4, 0, -1, 0, 0, -6, -2, -1, 0
1503616413107,3, -2, -2, -2, -2, 2, 1, 0, 0
1503616413131,-9, 2, 4, -4, -2, -3, 2, 0, 0
1503616413151,5, -2, 0, 2, 0, -4, -2, 1, 0
1503616413166,-2, 1, -3, -2, -3, 2, -1, -3, 0
1503616413196,-2, -2, -1, -1, -2, 2, -1, 0, 0
1503616413212,-3, 4, 5, 1, -2, -3, -2, -1, 0
1503616413226,-1, -7, -1, 1, -1, 1, 1, 0, 0
1503616413248,4, -1, 0, 3, -1, -1, 0, 0, 0
1503616413273,-3, 0, 1, -3, 0, -2, -4, -2, 0
1503616413287,11, -3, -3, -2, 2, -3, 0, 0, 0
1503616413309,11, -10, -1, 0, 1, 0, 0, -3, 0
1503616413330,6, -2, -1, 3, 2, 0, -1, -5, 0
1503616413340,3, 4, -4, -1, -1, -1, 1, 1, 0
1503616413361,-4, 6, 4, 1, -1, 1, -1, -1, 0
1503616413376,-19, 15, 4, -1, -1, -1, -3, 0, 0
1503616413398,4, -2, -4, 0, -2, -1, 0, 1, 0
1503616413421,10, -30, -5, -2, -1, -1, -4, 0, 0
1503616413435,2, -2, -5, -1, -1, -3, 0, 0, 0
1503616413451,2, 4, -4, -2, -3, -3, -2, -2, 0
1503616413466,-2, 1, -2, 0, -1, -2, 0, 0, 0
1503616413488,3, 25, 5, -1, 1, -2, 1, -2, 0
1503616413495,4, -10, -5, -2, 0, 0, -3, 1, 0
1503616413518,4, 4, 2, 1, -4, 1, 2, 0, 0
1503616413542,-5, 6, -5, -5, -4, -1, 0, -1, 0
1503616413556,-1, 1, -2, -3, 0, -1, 1, 0, 0
1503616413579,2, 7, -6, 0, 1, 0, 0, -3, 0
1503616413601,-1, 1, 3, 0, -1, 2, -1, 0, 0
1503616413616,1, 1, 8, 2, 0, -1, -3, -4, 0
1503616413638,2, -9, 2, 0, -2, -3, 1, 0, 0
1503616413661,1, 13, 0, 2, 0, 0, 0, 0, 0
1503616413676,3, 4, -1, -1, 0, 3, 1, 1, 0
1503616413698,-3, 3, 0, -2, 0, -4, 1, 0, 0
1503616413721,3, 1, 2, 0, 2, -2, -3, 4, 0
1503616413735,-1, -25, -8, -2, -3, 1, 0, -2, 0
1503616413759,-1, 44, 2, -3, 1, -4, 0, 0, 0
1503616413781,11, -7, 0, 0, -3, 1, 0, -1, 0
1503616413795,-1, 17, 2, -1, -1, 1, 0, -2, 0
1503616413818,-4, -5, -2, -1, -3, -2, -3, 0, 0
1503616413841,-2, -13, 3, 0, 1, -2, 1, -4, 0
1503616413855,11, 0, -2, -1, 0, -2, -2, 1, 0
1503616413871,-2, -31, -8, -3, -3, 0, -1, 0, 0
1503616413893,3, -7, 5, -1, -3, 0, -2, -2, 0
1503616413910,1, 31, 6, 1, 3, -2, 1, -3, 0
1503616413930,-1, 7, 4, 0, -4, 3, 0, 4, 0
1503616413954,-9, -13, 4, -1, 1, 1, -3, -1, 0
1503616413961,1, 2, -2, 0, 1, 2, 2, 0, 0
1503616413969,-3, 11, -3, 1, -2, 1, 2, 0, 0
1503616413986,-1, 8, -3, -1, -3, -2, 0, -1, 0
1503616413998,2, 3, 8, 2, 0, 0, -1, 1, 0
1503616414021,-3, -9, -3, -2, -1, 0, -3, 0, 0
1503616414045,-1, -11, -7, -3, -1, 1, 1, 1, 0
1503616414058,-1, 4, -9, -2, -3, -2, -2, -1, 0
1503616414081,2, 31, 13, 1, 1, -3, -1, -2, 0
1503616414119,-8, -8, -1, 0, -1, -2, -2, -2, 0
1503616414133,1, -15, -2, 1, -2, 1, -1, 2, 0
1503616414149,1, 13, -5, -1, 2, -4, -1, 0, 0
1503616414170,2, -8, -5, -1, 0, 2, 1, -3, 0
1503616414193,-2, -9, 2, 0, -1, 0, -1, -1, 0
1503616414208,-2, 6, 2, 1, 0, 0, 0, 0, 0
1503616414230,3, 26, 5, 0, 0, -2, 2, -2, 0
1503616414254,-2, -5, 1, -1, -3, 0, -2, 0, 0
1503616414269,5, -10, -4, -1, 1, -2, 0, 3, 0
1503616414291,-10, 0, -2, -2, 0, 0, 0, -4, 0
1503616414314,5, 6, -7, -1, -5, -1, -3, -3, 0
1503616414328,0, -12, -3, -1, -2, -1, -1, 1, 0
1503616414351,-7, -6, -4, -3, -1, -2, 0, -5, 0
1503616414373,1, 9, 7, 0, -1, -1, -4, -4, 0
1503616414389,-2, -12, -3, -2, 0, -3, 1, 3, 0
1503616414410,3, 18, 3, 0, 2, -1, -2, -1, 0
1503616414433,-2, -18, -5, 0, -2, -2, -1, -2, 0
1503616414450,-5, -20, -5, -3, 1, 0, -2, 0, 0
1503616414470,-2, -18, 6, 3, -2, 1, 0, -1, 0
1503616414493,0, 4, -2, -1, 1, -2, -3, 1, 0
1503616414509,2, 6, -7, -2, -1, 1, -2, 1, 0
1503616414531,0, 22, 12, 3, 0, 1, -2, 0, 0
1503616414553,0, -11, -7, -4, -2, -2, -1, -3, 0
1503616414571,-3, -6, 1, 0, -2, 1, -1, 1, 0
1503616414591,-2, 5, -9, 0, -1, -1, 4, -4, 0
1503616414615,2, -8, -1, -1, 1, 0, 0, 1, 0
1503616414628,-1, 4, -2, -2, -2, -5, 1, -2, 0
1503616414651,-3, 1, 3, -1, -1, 1, -1, -3, 0
1503616414674,-2, -7, 1, -1, -2, -4, -2, 0, 0
1503616414689,0, 9, 2, 0, 2, 2, 1, 5, 0
1503616414710,2, -4, 3, 1, 0, 1, -3, -2, 0
1503616414733,1, -12, -4, -1, -1, 1, 1, -2, 0
1503616414750,-2, 15, 1, -1, -2, -4, -2, 0, 0
1503616414770,-1, -30, -10, -4, -1, -2, -4, -1, 0
1503616414793,-1, 5, -6, -3, -2, 1, 1, 2, 0
1503616414818,-2, 11, 3, 0, -3, -4, 0, 0, 0
1503616414830,-5, 9, -9, -3, -2, 0, -2, -6, 0
1503616414854,0, 41, 1, -1, 2, 0, 2, -1, 0
1503616414875,-1, -10, 3, -2, -2, -1, -2, -1, 0
1503616414892,0, -10, 3, 0, -1, -1, -2, 1, 0
1503616414913,0, 2, 1, 0, 0, 0, 0, -1, 0
1503616414935,-3, -16, -1, 0, 0, -1, -3, -4, 0
1503616414951,0, -9, -3, -2, -2, 3, 1, 3, 0
1503616414973,0, -13, 12, 2, 2, 1, -1, -1, 0
1503616414996,3, 0, -6, 1, -1, -2, -2, -3, 0
1503616415011,0, 29, -2, -1, -3, -3, -2, 1, 0
1503616415033,1, -6, -2, -2, 1, -4, 1, 1, 0
1503616415062,2, -3, 2, 0, -1, 2, 2, 3, 0
1503616415085,-1, 0, 9, -1, 3, 0, -2, -1, 0
1503616415094,5, 28, 0, -2, 1, -1, 0, 1, 0
1503616415116,-7, -7, -5, 0, -3, -1, -1, 1, 0
1503616415130,-1, -4, -2, 0, 1, -2, -2, -5, 0
1503616415145,-4, 2, 6, 0, -4, -1, -1, 0, 0
1503616415162,1, -20, -5, 1, 2, 1, -1, 0, 0
1503616415182,-3, 2, 3, 0, -1, 0, 1, -2, 0
1503616415205,-2, 4, -6, -2, -1, 0, -3, 0, 0
1503616415220,-1, -8, -5, -2, -1, -1, 1, 0, 0
1503616415242,-2, -10, -9, -3, -3, 0, -3, -2, 0
1503616415265,1, 31, 0, -1, 0, -2, -1, -1, 0
1503616415280,0, -1, 1, -1, 0, -1, -1, 1, 0
1503616415302,6, -11, -1, 0, 0, -1, 0, -4, 0
1503616415325,0, 9, 2, -1, -3, 2, 1, 1, 0
1503616415340,-5, 1, 6, 1, -1, -4, -1, 1, 0
1503616415356,-1, -11, -12, -3, -4, -4, -1, -1, 0
1503616415370,-1, 34, 4, -1, -1, 0, -3, -1, 0
1503616415393,-1, -3, 0, -2, -4, -2, 0, 0, 0
1503616415415,-2, -10, 2, 1, -2, -1, -2, -1, 0
1503616415430,-1, -11, -1, -2, 2, 1, -1, -3, 0
1503616415455,-3, -7, -6, 1, -2, -1, -1, 0, 0
1503616415461,0, 0, -2, 1, 1, -1, -1, -1, 0
1503616415482,3, 21, 2, 0, -3, 0, 0, 2, 0
1503616415505,-4, 6, -5, -2, -1, 0, -2, -3, 0
1503616415521,1, -14, -2, -1, -1, 1, -2, -1, 0
1503616415542,-2, -1, 3, -1, 0, -3, 2, 1, 0
1503616415565,-3, -5, -4, -2, -1, -2, -3, -6, 0
1503616415581,-1, -1, 2, 1, 0, 0, 0, 0, 0
1503616415602,-5, -13, 2, 1, 0, 0, -1, -1, 0
1503616415632,-6, -1, -2, 1, 0, -1, 0, 2, 0
1503616415642,1, 11, -2, -3, -2, -1, 1, -3, 0
1503616415667,1, 16, 4, 0, -1, -1, 0, 3, 0
1503616415685,-1, -12, -2, -2, -2, 0, -5, -3, 0
1503616415700,1, 20, 5, -2, -2, -2, 1, 0, 0
1503616415724,-5, -16, -2, 0, 0, 0, -2, 1, 0
1503616415745,6, 22, 3, 1, -1, 0, 0, 0, 0
1503616415767,3, -13, -4, -3, -3, -2, 1, -1, 0
1503616415790,-23, -3, -3, 3, 1, -1, 0, 2, 0
1503616415805,15, -6, -3, 0, 0, 0, -1, -4, 0
1503616415827,-12, -3, 0, -5, -8, -3, 0, -6, 0
1503616415842,19, -4, 0, -6, 1, 2, -3, 5, 0
1503616415865,-14, -1, 1, 9, 3, 0, 1, 1, 0
1503616415887,3, -1, -1, -3, 3, -2, -1, -4, 0
1503616415896,5, -2, 1, 4, 9, 1, 0, 0, 0
1503616415918,7, 0, -3, -5, -4, -1, -3, -4, 0
1503616415933,-30, -1, 1, -2, 0, -2, -1, 3, 0
1503616415956,-21, -2, 0, 1, -4, 0, -2, 3, 0
1503616415978,-39, -5, -1, -1, 1, 2, 1, 1, 0
1503616415996,38, 6, 1, 8, 4, -2, -2, -1, 0
1503616416015,-34, 0, 6, -8, -7, 0, -1, -12, 0
1503616416038,14, 1, 1, 0, 8, 0, 3, -1, 0
1503616416053,7, -6, -7, -12, -8, -3, -2, 2, 0
1503616416075,-1, 1, -2, -3, -4, 0, -1, 0, 0
1503616416098,-1, -1, 3, 10, 9, 2, -1, -1, 0
1503616416113,14, 2, -4, 3, 5, -1, -3, 0, 0
1503616416136,-4, -2, -3, -1, -5, -5, -1, -1, 1
1503616416160,4, 0, -3, 1, -3, 0, -1, -2, 1
1503616416173,-10, -3, -3, -7, -9, -2, -1, -2, 1
1503616416196,-25, -3, -1, -4, -2, -3, -3, -4, 1
1503616416218,9, -1, 1, -2, -1, 1, 1, 2, 1
1503616416233,-4, -2, -1, -2, -1, -2, 0, -5, 1
1503616416255,7, 2, 3, 9, 9, 0, 1, 2, 1
1503616416278,3, -2, -1, -4, 2, -3, -3, -2, 1
1503616416294,-6, -1, -2, -4, -3, 0, -2, 4, 1
1503616416316,-6, 1, -1, 1, -2, 2, 0, 1, 1
1503616416338,2, -1, 0, -1, -6, -1, 0, -1, 1
1503616416353,8, 0, 0, -2, -1, 0, -1, -2, 1
1503616416375,27, 5, 0, -4, -4, -2, -2, -1, 1
1503616416398,-3, -4, -3, -2, 0, 0, 0, 2, 1
1503616416413,-6, -1, -2, -2, -1, -1, -1, 0, 1
1503616416436,-1, -2, -3, -1, 1, 1, 0, -6, 1
1503616416458,-24, -5, -4, 0, -1, 0, 0, -1, 1
1503616416473,3, -1, 2, 1, -4, -2, 2, -1, 1
1503616416495,2, 0, 0, -2, -12, -1, -2, 3, 1
1503616416518,2, -1, 1, -4, 2, 1, 0, 1, 1
1503616416533,-41, -5, -4, -2, 4, -4, -1, -7, 1
1503616416555,7, 1, 0, 5, 3, -3, -3, -3, 1
1503616416578,20, 4, -1, -1, 0, 0, -2, 2, 1
1503616416600,-4, -1, 0, -1, 1, -1, -1, -7, 1
1503616416615,-1, -1, 0, -1, 1, -1, 1, 3, 1
1503616416638,-15, -4, 1, 0, -1, -3, -1, -5, 1
1503616416653,-9, -4, -4, -2, -1, -2, -1, -2, 1
1503616416675,-18, -1, 0, 0, 2, -1, -6, -11, 1
1503616416698,32, 1, -3, -2, -1, 2, 7, 5, 1
1503616416720,16, -4, -6, -1, -3, -3, -6, 3, 1
1503616416735,2, -7, -5, -2, 0, -2, -4, -7, 1
1503616416758,8, 4, 3, 1, -1, -2, -18, -19, 1
1503616416781,6, 10, 4, -1, -2, -2, 6, 13, 1
1503616416797,-31, -13, 1, -2, -3, -2, -1, 5, 1
1503616416818,9, 9, 9, 3, -2, 4, 2, 2, 1
1503616416840,27, 0, 0, -2, 0, 0, 2, 4, 1
1503616416855,-8, -18, 0, -3, -3, -3, 3, 5, 1
1503616416878,3, 12, -4, 3, 3, 4, -2, 2, 1
1503616416900,5, 7, 3, 2, -2, 2, 1, 1, 1
1503616416908,11, -3, -3, -1, 1, 0, -2, 4, 1
1503616416932,-6, -1, 5, -4, -4, -1, 1, 1, 1
1503616416946,9, 1, 1, -2, -2, -2, -1, 0, 1
1503616416968,3, 1, -1, 0, -2, -1, 1, 0, 1
1503616416991,20, 0, 1, 1, 2, -3, -7, -24, 1
1503616417007,1, -12, -3, 3, 0, 0, -3, 3, 0
1503616417036,2, 5, 0, 0, -1, 1, -1, 5, 0
1503616417051,-9, 6, -2, 0, 1, -3, 0, 1, 0
1503616417067,-23, -4, -1, -1, 1, 2, -3, -1, 0
1503616417088,24, 7, 11, 1, 0, -3, 3, 6, 0
1503616417111,-4, -8, 2, 2, 1, -1, 0, 3, 0
1503616417126,9, 6, -2, 1, 3, 1, -1, -2, 0
1503616417148,-8, -3, -3, -5, -6, 1, -1, 5, 0
1503616417172,4, 5, 3, 18, 11, 1, 2, 1, 0
1503616417186,-4, -3, -6, -1, 11, -2, 0, 3, 0
1503616417208,5, 2, 3, -10, -7, -2, -1, -2, 0
1503616417232,4, 4, -7, -2, 0, 2, -1, 4, 0
1503616417246,-2, -6, -6, -4, -4, 1, 1, 1, 0
1503616417268,-5, 13, 11, 1, -5, 0, -2, -2, 0
1503616417291,11, -10, -6, -1, -5, -1, -1, -4, 0
1503616417306,-1, 2, -3, -3, -2, -3, -1, -2, 0
1503616417328,-5, -4, -2, -3, -3, 0, -1, -2, 0
1503616417351,-2, -1, -1, 0, -3, -3, -1, 2, 0
1503616417368,-10, -11, -8, -3, -1, 0, 0, -4, 0
1503616417389,4, 2, -2, -5, -2, -4, 0, 6, 0
1503616417411,-8, -3, 1, -1, -2, 1, -2, 16, 0
1503616417426,-3, -5, -3, -2, -3, 1, -2, -7, 0
1503616417448,-22, -2, 14, 5, 2, 1, 0, -9, 0
1503616417471,-3, -1, -6, -3, -1, -5, -4, -5, 0
1503616417486,12, -6, -4, -2, -3, -5, -5, 1, 0
1503616417508,-9, -6, -2, -3, -4, -6, 1, 7, 0
1503616417515,2, 6, 3, 1, 1, 0, 0, 2, 0
1503616417538,-28, 5, -1, 2, 1, -2, 1, -3, 0
1503616417560,-23, -11, -6, -4, -2, 0, -3, -8, 0
1503616417575,-41, -4, -9, -2, -3, -3, -3, -20, 0
1503616417598,22, -1, 0, -1, 1, 2, -3, 16, 0
1503616417620,0, 0, -6, -3, -2, -2, 1, 8, 0
1503616417643,15, -1, -7, -2, -1, 0, 1, -4, 0
1503616417658,-8, -4, 0, 1, 3, -1, 3, -3, 0
1503616417680,-5, -6, 1, 0, -3, -4, -4, 1, 0
1503616417703,4, 3, -6, -2, -1, 2, 4, 0, 0
1503616417718,8, -12, -1, -3, -2, -3, -2, 1, 0
1503616417741,-8, 3, 4, 0, -1, -1, -1, 0, 0
1503616417763,-22, -1, 0, -2, -3, -6, -4, -1, 0
1503616417778,5, 23, 4, 2, 2, 4, 1, 2, 0
1503616417800,5, 11, 4, 1, 0, 0, 1, -1, 0
1503616417823,0, 8, -4, -1, -3, 1, -5, -2, 0
1503616417839,-6, -15, -8, -5, -2, -5, -4, -6, 0
1503616417861,6, 0, -5, -2, 2, 2, -1, -3, 0
1503616417883,6, -1, 1, -1, -3, 1, 3, 4, 0
1503616417898,-2, -1, -4, 0, 0, -2, -1, -1, 0
1503616417920,15, -3, 1, 0, -1, 1, 1, 1, 0
1503616417943,0, -7, -6, -5, -2, -3, 0, 1, 0
1503616417958,4, 3, 4, 2, 0, -2, 0, 3, 0
1503616417981,8, 32, -1, -1, -1, 1, 1, 2, 0
1503616418003,-4, -5, -3, -4, -3, -1, -1, -3, 0
1503616418018,-4, -3, 3, 1, -1, -2, 1, -6, 0
1503616418040,-4, 3, 2, -1, -1, 0, -2, 3, 0
1503616418063,2, 2, 5, 0, -3, -3, 0, -1, 0
1503616418078,-1, -11, -7, -1, 2, -1, -3, -3, 0
1503616418100,-6, -15, 0, 0, 1, 3, -2, -5, 0
1503616418123,-3, -8, 4, 1, 3, 0, 0, 3, 0
1503616418140,-2, -8, 1, 3, 2, -2, 0, 0, 0
1503616418160,1, 2, -4, -3, -1, -2, 1, 0, 0
1503616418183,1, 7, 6, 1, 0, 0, -2, -3, 0
1503616418200,2, 5, -2, -2, -1, -1, 1, 4, 0
1503616418220,8, -1, -7, -3, -1, -2, -4, -11, 0
1503616418245,-2, -4, -1, 1, -1, -1, -2, 1, 0
1503616418258,-4, 20, -4, 0, 0, -2, 0, -2, 0
1503616418280,-3, 0, 1, -1, -1, -3, 1, 1, 0
1503616418303,3, 22, 6, 2, 0, 4, -2, 0, 0
1503616418319,-14, -26, -5, -1, -3, 0, 0, -7, 0
1503616418342,-2, -20, -3, -1, -2, -2, 0, 6, 0
1503616418363,1, 0, -1, 3, 1, 2, 0, -2, 0
1503616418378,-4, -13, -3, -3, 0, -5, 0, 8, 0
1503616418401,5, 6, -7, -5, -1, -3, -2, -9, 0
1503616418423,-13, -7, -3, -3, -2, 1, -2, -4, 0
1503616418438,-4, -2, 1, -1, -2, -2, 1, 5, 0
1503616418460,2, 1, -1, -1, -2, 0, -2, -3, 0
1503616418484,2, 4, -3, -1, -2, -1, 0, 3, 0
1503616418498,4, -8, -3, 0, 1, -2, 2, 5, 0
1503616418520,2, 15, 15, 1, 2, 0, -1, 2, 0
1503616418543,-14, 0, -7, -2, -5, 0, -3, -6, 0
1503616418565,0, -4, -3, -1, 1, -4, -2, -7, 0
1503616418581,6, -7, -2, -1, -3, 1, 2, 3, 0
1503616418603,2, -15, -5, -2, -1, -3, 2, -2, 0
1503616418624,6, 10, -4, 1, 1, 2, -2, -5, 0
1503616418633,-2, -6, -8, -5, -2, 2, -2, -7, 0
1503616418655,0, -10, -5, -1, -1, -1, -5, -4, 0
1503616418671,4, -7, -3, 0, -2, 1, -2, -1, 0
1503616418693,0, 8, 0, 0, -1, -2, -4, -2, 0
1503616418715,-3, -10, -7, 0, 0, -1, 1, -4, 0
1503616418731,2, 21, 4, -2, 2, 0, -4, 6, 0
1503616418753,-2, -15, -1, 0, 0, -3, -3, -10, 0
1503616418777,3, -3, -4, 0, 1, -3, 5, 6, 0
1503616418791,1, -5, 0, 0, 2, 4, 8, 1, 0
1503616418813,0, 3, 2, -1, -6, -4, -13, -6, 0
1503616418835,1, -12, -1, -1, -1, 2, 10, 5, 0
1503616418852,-5, -2, -3, 2, 0, -1, 3, 1, 0
1503616418865,-4, -20, -1, -3, -1, 0, 0, 2, 0
1503616418881,-1, -5, -1, -2, -3, -2, 1, -1, 0
1503616418912,1, 4, -5, -5, -11, 7, 4, 3, 0
1503616418940,-3, -2, -3, 4, 5, -6, -5, -4, 0
1503616418957,-2, 15, 4, 3, 2, -1, -4, -5, 0
1503616418971,2, -6, -6, -3, 2, -6, 1, 3, 0
1503616418993,-2, -6, -1, 0, -3, -3, 0, 0, 0
1503616419016,0, -3, -5, -2, -3, -2, 4, 4, 0
1503616419031,3, -7, 3, 2, 1, 2, -2, -3, 0
1503616419053,6, 7, 5, 1, 3, -3, -4, -2, 0
1503616419075,-4, -14, -2, -5, -2, 0, -2, 1, 0
1503616419091,-7, -2, 0, -1, -2, -1, 1, 0, 0
1503616419114,-3, 13, 0, -1, 0, 0, -1, -4, 0
1503616419135,-5, 9, -3, 0, -3, 1, 0, -1, 0
1503616419151,-1, -4, -5, -1, 0, -1, -5, 3, 0
1503616419173,-27, -11, -1, -1, -2, -2, 1, -6, 0
1503616419195,-29, -2, -2, -1, -2, -1, -4, -5, 0
1503616419211,-4, -8, 0, 1, 2, 2, 0, 1, 0
1503616419233,8, 0, 1, -1, -1, -1, -1, -4, 0
1503616419260,-17, -3, -1, -1, -3, -4, -2, -2, 0
1503616419271,-15, 13, 9, 0, -2, -1, -2, -2, 0
1503616419300,12, -11, -3, -2, -1, -3, 1, 3, 0
1503616419315,20, -8, -3, -1, -3, 0, 2, 0, 0
1503616419331,14, -24, -8, 2, 3, 0, -1, 3, 0
1503616419353,16, 0, -6, -3, -4, -3, -1, 0, 0
1503616419375,13, 19, -2, -2, -1, -3, 0, -1, 0
1503616419391,-8, 10, 5, -1, -7, 2, -1, 0, 0
1503616419415,0, 4, 10, 1, 3, -4, -2, -1, 0
1503616419435,4, -6, -2, -4, 2, -1, -1, -1, 0
1503616419453,2, 2, 0, -2, -1, 0, -1, 1, 0
1503616419473,-3, -11, -4, 1, 0, -3, 1, -4, 0
1503616419495,5, 4, -3, 5, 0, 2, 0, 3, 0
1503616419518,27, 14, -4, -4, -3, -2, -1, 0, 0
1503616419526,-2, -16, -6, -2, 4, -2, -1, 0, 0
1503616419547,8, -15, -3, -5, -5, -1, -2, -3, 0
1503616419563,1, 2, -1, 1, -3, 0, 0, -4, 0
1503616419593,-1, 4, 0, 1, 0, -1, -2, -1, 0
1503616419607,25, 2, 2, 3, 2, -2, -3, -1, 0
1503616419623,-13, -5, 0, -2, -1, -2, 1, 1, 0
1503616419646,12, -4, 9, 4, 5, 1, 2, 0, 0
1503616419667,-1, -19, -10, -2, 0, -2, -3, 0, 0
1503616419684,-12, 14, 0, 0, 0, -2, 1, 3, 0
1503616419705,-4, 6, 1, -2, -2, 0, -2, 2, 0
1503616419727,5, 5, -2, 3, -1, -1, -2, -3, 0
1503616419742,-1, -7, 1, 1, -1, 1, 1, 1, 0
1503616419764,-8, 2, 2, -4, 1, -2, -1, -3, 0
1503616419788,10, -6, -1, 0, 0, 2, 0, 1, 0
1503616419840,4, 49, 6, -3, -6, -2, -1, 0, 0
1503616419857,0, -7, -1, 0, 1, 3, 0, 3, 0
1503616419864,-8, -14, -4, 0, 0, -3, -6, -4, 0
1503616419886,4, -18, -7, 1, -1, -1, 0, 3, 0
1503616419907,-10, -16, -2, 0, -5, -3, -1, -3, 0
1503616419923,0, 2, 1, 1, 3, -3, -1, 1, 0
1503616419945,2, -12, -6, -1, 1, 2, -1, -1, 0
1503616419967,-3, 12, 0, -2, 1, -1, -2, -1, 0
1503616419983,0, -1, -5, -6, -2, -4, -2, 1, 0
1503616420005,-2, 11, 3, 1, 0, 0, 3, -2, 0
1503616420028,-9, 9, 1, -1, -1, -2, 1, -1, 0
1503616420043,0, -5, 8, 3, 1, 2, -1, -2, 0
1503616420065,2, -8, 3, 2, 1, 0, 1, 1, 0
1503616420088,-7, -24, -12, -2, -1, -2, -3, -1, 0
1503616420103,-1, -18, -10, -6, -2, -2, 1, -2, 0
1503616420125,8, 50, 5, -1, -3, 0, -2, -5, 0
1503616420148,-5, 7, -2, 0, -1, 0, -1, -1, 0
1503616420163,5, -9, -5, -1, -3, -1, -4, 4, 0
1503616420188,3, 7, 0, -1, -1, 1, 1, 0, 0
1503616420207,-5, 21, 3, 0, 0, -3, 1, 0, 0
1503616420223,-2, -24, 0, -1, 1, -1, -3, -5, 0
1503616420245,2, 9, 6, 1, 0, -1, 1, 1, 0
1503616420267,-13, 15, 1, 2, -2, 0, -1, 1, 0
1503616420282,-7, -9, 5, 1, 1, 0, 1, 2, 0
1503616420298,3, 0, -3, -3, -2, 1, -2, 1, 0
1503616420313,5, 14, -1, 1, 0, 0, 0, 4, 0
1503616420335,-2, 19, 5, 0, 0, -3, -1, -2, 0
1503616420358,-17, 2, 3, -1, -1, -1, -2, -1, 0
1503616420373,4, -10, 3, 2, 0, 3, 1, 1, 0
1503616420395,5, -9, -4, -2, -3, -1, 1, 3, 0
1503616420410,-3, 8, 1, -1, 1, 1, -1, 0, 0
1503616420425,0, -37, -9, -1, -1, -5, -1, -1, 0
1503616420447,3, 21, 3, 0, -1, -3, -2, 3, 0
1503616420469,-1, -5, 6, -1, 1, 0, 0, -5, 0
1503616420486,6, 0, -1, -1, -1, 0, -2, -3, 0
1503616420511,-5, 22, -1, 1, 1, 1, 2, -2, 0
1503616420530,-8, 7, -10, -3, -3, -4, -2, -1, 0
1503616420538,-1, 6, -8, 0, -2, -3, -2, -2, 0
1503616420546,-1, 1, 2, 0, -2, -3, 1, 0, 0
1503616420567,-1, 5, -5, -3, 1, 2, 0, -1, 0
1503616420595,2, 2, -8, -1, 2, 0, -1, -3, 0
1503616420605,-1, 9, 3, -2, -2, -2, -3, -4, 0
1503616420627,4, 2, 0, -1, -2, 2, 2, 2, 0
1503616420649,0, 22, -1, 1, -1, -2, -1, 0, 0
1503616420666,-4, -15, -4, -2, -1, 3, -2, 1, 0
1503616420687,4, -18, -7, -2, 0, -5, -2, 1, 0
1503616420709,7, 19, 13, 3, 0, 1, -1, 1, 0
1503616420725,-5, -9, -7, -3, -1, -1, -1, -2, 0
1503616420747,-3, -23, -6, -1, -3, 0, 1, -1, 0
1503616420769,-5, -8, 7, 2, 1, -4, -4, -1, 0
1503616420786,-5, 19, 2, 2, 0, -2, -3, -2, 0
1503616420807,-2, -10, -3, -3, -2, -4, 2, -2, 0
1503616420829,1, -2, 2, -1, -1, 1, 0, -3, 0
1503616420837,-2, 5, -1, 0, -1, 0, 0, 2, 0
1503616420860,2, 12, 3, 0, -1, -2, 1, 0, 0
1503616420876,1, -6, -10, -3, -2, 1, -2, 2, 0
1503616420898,1, 2, -5, -2, 0, -5, 0, 0, 0
1503616420920,-2, -5, 2, 0, 2, -1, -1, -2, 0
1503616420935,1, -5, 5, 2, 2, 2, 0, -4, 0
1503616420959,0, 1, -5, -3, -3, -4, -1, -1, 0
1503616420980,-3, -30, -2, -1, -2, -2, -2, -1, 0
1503616420995,-3, 5, 5, -2, 0, -2, 0, -1, 0
1503616421017,-3, 3, -1, -1, 1, 1, -1, -2, 0
1503616421040,3, 45, 13, 3, 1, -1, 2, 2, 0
1503616421055,-3, 10, -3, -3, 0, 1, -1, 2, 0
1503616421077,1, -31, 4, 4, 1, 3, 3, 1, 0
1503616421100,0, -13, -8, -2, -3, -1, -1, -2, 0
1503616421115,-3, -7, -5, 1, 0, -1, -3, 1, 0
1503616421138,-8, 4, 0, -2, -3, -3, -3, -7, 0
1503616421163,2, -9, 0, 0, 0, 0, -2, 0, 0
1503616421175,1, -8, -1, 0, -2, -1, -1, 0, 0
1503616421199,-2, 25, 5, 3, 2, -1, 2, -1, 0
1503616421221,0, -19, 0, -2, -2, 0, 0, 1, 0
1503616421236,4, 7, -3, -2, 0, 1, -3, -1, 0
1503616421261,-10, -8, -2, -1, -2, 1, -3, 0, 0
1503616421280,-2, -11, -6, -2, -1, -4, -2, -1, 0
1503616421296,0, 0, -4, -3, -2, -1, -3, 0, 0
1503616421317,3, 2, -7, -2, -2, -2, -2, -3, 0
1503616421340,2, 9, -5, -1, -2, 0, -1, 0, 0
1503616421364,-7, 11, 2, 0, -1, -1, 0, 0, 0
1503616421377,-2, 1, -2, -2, 2, -3, -4, -1, 0
1503616421392,-2, -16, 7, -1, -1, 0, 1, -1, 0
1503616421408,-2, 11, -3, -4, -3, 1, -3, -2, 0
1503616421431,0, -11, -4, -1, 0, -4, 0, 0, 0
1503616421454,-1, -15, -4, -3, -2, -2, -2, 0, 0
1503616421468,-2, -5, -4, -2, -1, -1, -2, -2, 0
1503616421483,-1, 19, 2, -1, -1, 1, 0, -4, 0
1503616421498,1, -9, -3, 0, 1, 0, -2, 0, 0
1503616421520,-1, 2, -4, -1, -2, -2, 1, -1, 0
1503616421543,-3, -2, -10, -2, -1, -4, 0, 0, 0
1503616421558,2, -13, 7, 0, 1, 2, -1, 0, 0
1503616421611,2, 32, 8, 1, 1, 2, 1, -1, 0
1503616421618,-1, -17, -4, -2, -3, 1, -1, 0, 0
1503616421634,-1, 14, 7, 2, 1, -1, 2, -2, 0
1503616421648,2, -15, -6, -1, -4, -2, -3, -2, 0
1503616421671,-2, -16, -5, -4, -4, -2, -5, -2, 0
1503616421693,2, -11, -5, 1, 3, -3, 2, -2, 0
1503616421701,-2, -2, -2, -1, -1, 2, -1, 1, 0
1503616421722,1, 2, 7, 4, 1, 1, 0, -2, 0
1503616421738,-2, 8, -8, -3, 3, -3, -3, -4, 0
1503616421760,2, 15, -1, -1, 0, 3, 2, 1, 0
1503616421783,-5, 5, 7, 2, 6, -1, -1, 1, 0
1503616421799,2, 6, 0, 1, -4, -4, -1, 0, 0
1503616421820,0, -1, 5, -3, -2, -1, -1, 1, 0
1503616421843,2, 42, 4, 1, -2, -2, -3, -1, 0
1503616421858,-2, -8, -2, -2, 0, 1, 1, -2, 0
1503616421880,-3, 3, -9, -5, -10, -3, -5, 2, 0
1503616421903,-10, -26, -5, -2, -5, -5, 5, -8, 0
1503616421917,3, 9, 16, 7, 8, 7, -2, 3, 0
1503616421941,-2, -16, -14, -6, -5, 0, 2, 1, 0
1503616421962,4, 11, -13, -7, -11, -5, -1, -2, 0
1503616421971,-1, -8, 4, 5, 4, 4, 0, 6, 0
1503616421993,0, -6, 5, -6, -3, 19, 1, -2, 0
1503616422015,2, 1, -6, -4, -20, -14, -3, 2, 0
1503616422030,-3, 3, -10, -3, 13, 9, 1, -1, 0
1503616422053,-6, -6, 0, -6, -52, -19, -3, -4, 0
1503616422076,0, -7, -5, -1, 17, -3, -3, -3, 0
1503616422090,3, 46, 18, 9, 5, 0, 0, -2, 0
1503616422113,3, -5, -1, 0, 27, 6, -3, -3, 0
1503616422138,4, -3, 3, 1, 18, -7, 2, 4, 1
1503616422158,-2, -7, -7, -3, -13, -16, 0, 1, 1
1503616422174,0, -13, 0, 4, 0, 5, 0, -3, 1
1503616422196,1, -5, 4, 0, -10, -2, -2, -1, 1
1503616422211,-3, 6, 1, -3, 8, 0, 0, -2, 1
1503616422218,3, 0, -8, -1, 3, 6, 4, 2, 1
1503616422241,0, 1, 1, 1, 1, -4, -2, 0, 1
1503616422256,-2, -5, -1, -1, -3, -1, 0, 0, 1
1503616422270,4, 1, -1, 1, -12, -2, -1, 0, 1
1503616422293,-11, -6, -3, -3, 1, 0, 0, -2, 1
1503616422315,-3, -2, -3, 2, 2, 0, 1, 1, 1
1503616422330,4, -10, -3, -3, 0, 4, -2, -1, 1
1503616422345,0, 1, 4, 4, 2, -3, 1, 1, 1
1503616422360,9, 3, -3, -1, -2, -7, 2, 4, 1
1503616422382,15, 0, -1, 0, 4, -3, -2, 2, 1
1503616422406,-7, -4, -6, -4, -8, -10, -4, -2, 1
1503616422421,-9, 6, 3, 3, -1, -7, -5, -2, 1
1503616422443,-5, -5, 2, 0, -3, -20, 0, 1, 1
1503616422465,-3, -2, 3, 1, 7, 19, -1, -6, 1
1503616422480,-2, 0, -3, -3, -12, -14, -2, -1, 1
1503616422504,1, 1, 0, -2, -3, 0, 2, 4, 1
1503616422525,-7, -8, -2, -3, -1, -1, -1, -10, 1
1503616422541,2, -1, -2, -2, -5, -20, -5, -1, 1
1503616422565,-8, 12, 3, 2, 1, -5, -4, -5, 1
1503616422585,0, -7, 3, -2, -4, -1, -4, 0, 1
1503616422600,-3, 5, -1, -2, 4, 1, 0, -2, 1
1503616422623,-1, -2, -5, -1, -1, 3, 1, 0, 1
1503616422647,3, -2, -2, 2, 3, 5, 0, 1, 1
1503616422660,2, -5, -2, -1, 0, -1, 0, 3, 1
1503616422682,2, 21, 6, -1, 1, 5, 0, 3, 1
1503616422690,-1, -7, 0, -2, 0, 0, -1, 3, 1
1503616422713,-5, 1, -11, -4, 0, 1, -5, -10, 1
1503616422736,-3, 2, 1, 2, 1, 0, 1, 1, 1
1503616422750,-2, 3, 1, -2, -2, 0, -1, 3, 1
1503616422774,-2, 0, 2, 2, 1, -1, -2, 0, 1
1503616422796,0, -9, -6, -1, -1, -3, -2, -4, 1
1503616422811,-1, -7, -2, 1, 1, 0, 0, 2, 1
1503616422833,-3, 4, -1, -1, 1, -2, -1, 0, 1
1503616422856,0, 3, 5, 14, 4, 2, 0, -1, 1
1503616422873,0, 3, 0, -4, -4, -3, -1, 0, 1
1503616422893,-7, 3, 7, -2, 2, 0, 0, 0, 1
1503616422915,-27, -12, -10, -6, -2, 3, -2, -1, 1
1503616422931,-8, -1, -1, -4, -2, -2, 0, -1, 1
1503616422953,7, 2, 0, -4, -4, -2, 2, 2, 1
1503616422976,-2, 2, -2, -3, -3, -1, -4, -15, 1
1503616422991,5, 0, 1, 0, 0, -1, 3, 0, 1
1503616423013,10, -5, -11, -4, -3, 0, -2, -2, 1
1503616423036,-17, -6, 3, -3, -1, -5, -3, 10, 1
1503616423051,-1, -2, -5, -3, -2, -2, -5, -4, 1
1503616423076,13, -1, 0, 0, 2, -2, 0, 7, 1
1503616423095,-4, 2, 3, 2, -2, 2, 3, 6, 1
1503616423124,5, 34, 16, 2, 0, 4, 0, 0, 0
1503616423134,6, 10, -3, -2, -3, 0, 2, 4, 0
1503616423156,-21, -9, -6, -1, -5, -1, -4, -10, 0
1503616423171,16, -3, -3, -2, 3, -2, 6, 6, 0
1503616423193,3, -6, 1, 1, 3, 2, -6, -3, 0
1503616423216,7, -6, -2, 0, -1, 0, 1, 5, 0
1503616423237,-7, -2, 3, 3, 1, -1, 3, -3, 0
1503616423253,17, -8, -3, -3, -3, -3, 1, 10, 0
1503616423278,10, -5, 1, 2, -1, 1, 4, 11, 0
1503616423297,-4, 1, 0, -2, 0, -4, -5, -4, 0
1503616423313,-11, 8, 2, -1, -2, -1, 2, -13, 0
1503616423335,1, -3, -2, -4, -6, 0, -3, -56, 0
1503616423358,-34, -3, 0, 0, 4, -3, -6, 7, 0
1503616423373,40, -1, -4, -3, -5, 0, 2, -2, 0
1503616423395,-1, -7, 2, -1, -1, 2, 2, 23, 0
1503616423417,-13, -6, -7, 0, 1, 0, -5, 28, 0
1503616423433,17, 1, -2, -1, -1, -7, -7, -8, 0
1503616423456,17, 9, 2, -1, 1, 4, -4, 8, 0
1503616423481,-19, -2, 3, 2, -1, -2, 3, -2, 0
1503616423493,13, 13, -4, -2, 0, -1, -6, 5, 0
1503616423516,25, -20, -8, -2, -4, -3, -12, 4, 0
1503616423537,-28, -8, 3, 2, 0, 3, 5, -8, 0
1503616423553,6, 13, 0, -3, 1, -2, -3, -25, 0
1503616423578,-6, -9, -2, -3, -1, -3, -3, 16, 0
1503616423598,-20, 54, 23, 6, 2, 1, 2, -9, 0
1503616423613,3, -19, -13, -4, -2, -3, 2, 16, 0
1503616423636,-4, -6, -5, -4, -5, -2, -2, -8, 0
1503616423646,-1, -8, -4, 0, -3, -1, 4, 22, 0
1503616423673,-3, -5, -1, 0, 1, 3, -1, -14, 0
1503616423696,-8, 10, 16, 5, 0, 1, -1, -20, 0
1503616423703,8, -6, -1, 0, 0, -2, -5, 7, 0
1503616423725,-8, 7, 5, 1, -1, 2, 2, 6, 0
1503616423752,-3, -1, 2, 1, 1, -1, -6, -18, 0
1503616423762,0, 35, 8, -2, -1, -1, -4, -23, 0
1503616423785,-21, -8, -4, -1, 0, 0, -5, -7, 0
1503616423808,6, -2, 1, 1, -3, -3, -4, 4, 0
1503616423822,6, -7, -5, 1, 0, -2, 5, 10, 0
1503616423838,1, 0, 2, 0, 0, 3, 0, 9, 0
1503616423853,10, 0, -5, 0, 1, -2, 0, -3, 0
1503616423868,-1, 19, 7, 1, 0, 1, 11, 1, 0
1503616423883,5, -6, -5, -6, -6, -4, -3, -6, 0
1503616423905,16, -6, 0, -2, 1, 0, 1, -7, 0
1503616423927,8, 1, -7, -1, 2, -2, 0, 13, 0
1503616423936,-5, -7, -2, 1, -4, -1, -2, -5, 0
1503616423957,-29, -11, -8, -5, -6, -5, -3, -1, 0
1503616423973,-1, -9, -1, -2, -1, 1, 1, 4, 0
