1503510957307,-1, -1, 0, -3, 0, -2, -4, -4, 0
1503510957322,1, 0, 1, 1, 0, -1, -2, 2, 0
1503510957348,-2, -1, -4, -2, 1, 1, 2, 1, 0
1503510957368,0, -2, -7, -4, -2, 1, -1, 0, 0
1503510957383,1, 1, 5, 2, 0, 0, 1, 3, 0
1503510957385,-2, -3, 0, -1, 0, 0, 0, 0, 0
1503510957404,1, -2, 0, -1, -3, -1, 1, -2, 0
1503510957427,-2, -1, 0, 0, -1, -2, -2, -5, 0
1503510957442,-2, -1, -2, -2, -2, -2, -3, -5, 0
1503510957464,-1, -2, -1, -1, 1, 1, 0, 2, 0
1503510957487,0, 1, 0, -2, -3, -1, 0, 1, 0
1503510957503,1, -2, 1, 2, 0, 2, 0, 0, 0
1503510957526,-2, 0, 0, 0, -1, 1, -1, 1, 0
1503510957539,0, 3, 0, -2, -1, -1, 1, 2, 0
1503510957554,-2, -1, -1, -3, -1, -1, -3, -8, 0
1503510957576,-1, -1, -1, 1, -1, 0, 0, -1, 0
1503510957599,-3, -2, -2, 0, 0, -2, -2, -2, 0
1503510957614,-1, -3, -3, 0, -1, -1, 0, 2, 0
1503510957638,-3, -6, -2, -2, -1, 0, 0, -3, 0
1503510957661,3, 2, -2, 1, 0, -1, 1, 4, 0
1503510957674,-1, 0, -1, -1, -1, -1, -1, 0, 0
1503510957696,-2, 0, -2, 0, 0, 0, -2, -3, 0
1503510957719,1, -2, 0, -2, 1, -1, -1, 1, 0
1503510957734,0, 0, -1, 0, -2, 0, 1, 0, 0
1503510957756,0, 0, 1, -2, -2, -2, -2, -2, 0
1503510957778,-1, 0, -3, 0, 0, -1, 0, -3, 0
1503510957794,-4, -8, -2, -1, 1, 1, 0, -1, 0
1503510957816,-1, 1, 0, 0, -1, -1, -1, 1, 0
1503510957839,0, -2, 0, -2, -1, -1, -1, -2, 0
1503510957854,-2, -1, -2, 0, -2, -1, -3, -2, 0
1503510957876,-2, -3, -2, -1, -2, 0, -3, -5, 0
1503510957899,-1, -1, -15, -7, -2, 0, -1, 1, 0
1503510957914,4, 0, -15, -4, -1, -1, 3, 3, 0
1503510957938,-2, -3, 4, 1, -3, -1, -1, 1, 0
1503510957958,0, 2, 5, 1, -2, -3, -3, -3, 0
1503510957974,-2, 0, 6, 2, 0, 0, -1, -4, 0
1503510957996,-2, 0, 5, 2, 1, -1, -1, -2, 0
1503510958018,-2, -2, -1, 1, -2, -2, -1, -1, 0
1503510958034,0, 0, 1, -2, -1, -1, -1, -3, 0
1503510958056,1, 1, 3, 2, -1, 0, 2, 2, 0
1503510958078,1, 2, 1, -1, 0, 0, 2, 2, 0
1503510958096,1, 1, 0, 0, -2, -1, -1, 0, 0
1503510958116,-4, 0, 0, -1, 0, -3, -4, -7, 0
1503510958139,1, 0, -2, -1, 0, 0, 0, 2, 0
1503510958154,-1, -2, 0, -1, -2, 1, -1, -2, 0
1503510958176,-1, -2, -2, 0, 1, 0, 1, 2, 0
1503510958199,-1, 0, -1, -1, -1, -1, -2, -1, 0
1503510958214,0, -1, 0, -3, 0, -1, 0, 0, 0
1503510958236,-1, -3, -1, -1, 0, -1, -1, -7, 0
1503510958258,-1, -1, -2, 1, -1, -1, 1, 1, 0
1503510958274,-1, 1, 1, 1, -1, 1, 0, -1, 0
1503510958298,-2, -2, -2, 1, -1, -2, -3, -4, 0
1503510958318,0, 1, 0, -1, -2, -1, 2, 1, 0
1503510958326,0, 0, -2, 1, -1, -1, -2, 0, 0
1503510958349,2, 1, -2, -1, 0, 0, 3, 0, 0
1503510958366,-1, -2, 0, -1, 1, 0, 1, -2, 0
1503510958387,-1, 2, 1, -1, 0, 0, 0, 0, 0
1503510958409,3, 0, 1, 0, -1, 0, 0, 0, 0
1503510958424,-1, 0, -1, -2, -2, 0, -1, -2, 0
1503510958447,-3, 0, -2, 0, 2, 1, 0, -1, 0
1503510958469,-2, -2, 0, 0, -2, -2, 0, 2, 0
1503510958492,1, 1, 1, 0, 1, -2, -1, -3, 0
1503510958507,-3, -2, -3, -2, -4, -3, -3, -5, 0
1503510958529,-3, -2, -1, -1, 1, 1, -1, 1, 0
1503510958552,-2, -2, -2, -1, 0, -2, -3, -5, 0
1503510958567,0, -2, -1, -2, -2, -2, -2, -2, 0
1503510958589,-4, -4, -2, -2, -1, -1, 0, -1, 0
1503510958612,-1, -1, -1, -1, -1, 0, 2, 5, 0
1503510958626,1, 1, -1, 0, -1, -3, 0, 1, 0
1503510958641,-2, -1, -2, 0, -2, 1, -1, -3, 0
1503510958656,-1, -4, -2, -1, -2, -1, -1, 1, 0
1503510958678,-1, 1, 0, 0, -1, 0, 0, 1, 0
1503510958702,-1, -1, 1, -1, 2, -1, -1, -2, 0
1503510958716,-5, -3, -3, -1, -3, 0, -1, -4, 0
1503510958738,0, -2, 0, 1, 0, -2, 0, 2, 0
1503510958747,1, 0, 2, 0, 1, 1, -1, 0, 0
1503510958769,0, 1, 2, -1, -1, -2, 0, 0, 0
1503510958792,2, -1, -1, -2, -2, 0, 0, 1, 0
1503510958807,1, 0, -2, -2, -1, 0, -1, 0, 0
1503510958829,0, -3, -3, 1, 1, -1, 0, 0, 0
1503510958852,-3, 1, 1, 2, -2, 2, 0, -2, 0
1503510958868,3, 0, -1, 0, -1, -2, 2, 4, 0
1503510958889,-7, -5, -2, -2, -3, -1, -3, -7, 0
1503510958912,-1, -1, -2, 1, -2, 0, -1, 2, 0
1503510958927,-2, -2, 0, -2, 0, -1, -2, -1, 0
1503510958949,2, 0, 0, -1, -1, -2, -1, -2, 0
1503510958972,-1, -1, -1, -1, 0, -1, 0, -4, 0
1503510958987,11, 2, -3, 1, 0, -1, -1, 3, 0
1503510959009,21, -1, -5, -3, -2, -2, -3, 1, 0
1503510959031,-11, -6, -1, -1, 0, 0, 1, 1, 0
1503510959047,-5, -1, 0, 0, -2, -1, -1, -3, 0
1503510959069,-3, -1, 0, 0, 0, 0, -1, 0, 0
1503510959091,-12, -1, 0, -1, 0, -1, -1, -5, 0
1503510959107,6, 0, -3, -1, -2, -3, -2, -2, 0
1503510959129,6, 7, 3, 1, 1, 1, 1, 4, 0
1503510959152,-12, -2, 7, 2, -2, -1, 0, -1, 0
1503510959168,-1, 0, 0, 2, 0, -1, -3, -3, 0
1503510959189,-9, -11, -9, -5, -3, -2, 1, -1, 0
1503510959212,2, 9, -1, -1, 0, 1, 0, 2, 0
1503510959227,32, -11, -4, 0, 0, -1, 2, -1, 0
1503510959249,9, 0, 2, -1, -1, 0, -1, -2, 0
1503510959272,-11, 1, 0, -2, -1, -2, -2, 1, 0
1503510959287,18, 4, -3, 0, -2, 2, 2, 5, 0
1503510959310,-20, -9, -1, -2, 1, 0, 0, -3, 0
1503510959331,-10, 5, -1, -1, -2, -2, 0, 0, 0
1503510959341,-5, -6, -2, -2, 0, 0, -4, -4, 0
1503510959362,26, 0, -3, -1, -1, -1, 1, 0, 0
1503510959385,15, 6, 1, -3, -2, -1, -2, -5, 0
1503510959400,4, -3, -1, 2, -2, 1, 1, 2, 0
1503510959422,-10, -4, -2, 1, -1, -1, 0, -4, 0
1503510959445,0, -1, -1, -1, -3, -2, 0, -1, 0
1503510959460,9, 2, 1, 1, 0, -2, -1, 2, 0
1503510959475,7, 4, 1, 0, -2, -3, -3, -5, 0
1503510959489,-18, -7, -3, -2, -2, -2, -2, -8, 0
1503510959525,-8, -18, -1, -1, -3, -1, -2, -5, 0
1503510959543,-2, -6, 2, -1, -7, -5, -2, 2, 0
1503510959565,-6, 0, 1, -4, -6, -2, -1, -7, 0
1503510959580,-3, -4, -7, -2, -16, -8, -2, 1, 0
1503510959604,-15, 14, 12, 1, -7, -1, -1, -2, 0
1503510959624,11, -7, -2, 1, 9, -3, 1, 3, 0
1503510959632,3, 1, 5, 5, 5, 1, 1, -4, 0
1503510959654,-1, -24, -4, 2, 6, -8, -2, -5, 0
1503510959670,-5, -36, -11, -8, -37, -27, -3, 3, 0
1503510959692,12, 39, 11, 7, -9, -7, -6, 2, 0
1503510959714,-7, -9, 1, 3, 41, 20, 1, -6, 0
1503510959729,-3, 2, 1, -5, -10, -18, -2, 3, 0
1503510959752,-20, -16, -10, -6, -20, -10, 2, 2, 0
1503510959775,7, 3, 0, -6, -60, -4, -1, -1, 0
1503510959789,0, -8, -8, 3, 67, 14, -2, -5, 0
1503510959812,-2, 8, 12, 6, 20, 6, 1, -1, 0
1503510959834,6, 22, 2, -3, -26, -20, -6, -5, 0
1503510959849,0, 6, 1, 1, -1, 15, -1, -6, 0
1503510959872,-2, -12, -14, -3, -26, -16, -3, -2, 0
1503510959881,3, 17, 3, -4, -25, -4, -4, 2, 0
1503510959902,2, 12, -1, 2, 22, 8, -2, -2, 0
1503510959924,-2, 0, -5, -2, -18, 7, 3, 2, 0
1503510959931,-2, 2, 20, 15, 7, 13, 0, -3, 0
1503510959954,11, 7, -9, -4, 8, 11, 4, 5, 0
1503510959969,-2, -14, -9, -6, -1, -2, 2, 8, 0
1503510959992,7, 27, -5, -7, -20, -7, -5, -2, 0
1503510960015,5, -6, -5, -2, 16, 6, 3, -5, 0
1503510960029,-16, -50, -9, 4, 62, 50, 5, 5, 0
1503510960061,-2, -26, -5, -6, -46, -12, -3, 6, 0
1503510960077,-30, 22, 7, -17, -41, 0, 8, -30, 0
1503510960089,-11, -68, 1, 6, -93, -95, -13, -5, 0
1503510960112,13, 11, 10, 4, 31, 21, -1, 3, 0
1503510960134,18, 10, -7, 9, 25, 44, 13, 11, 0
1503510960149,6, 1, 13, -34, 25, -47, -16, -15, 0
1503510960173,-65, -76, -42, -52, -62, -24, 12, 8, 0
1503510960180,36, 121, 23, 37, 51, 6, 5, 16, 0
1503510960202,6, -24, -10, -9, -15, -94, 0, -4, 0
1503510960225,13, 8, 8, -24, 69, 5, 1, -9, 0
1503510960240,10, -1, -4, 15, 69, 28, -7, -1, 0
1503510960254,12, 18, 11, 31, -31, -16, -12, -9, 0
1503510960269,14, 42, 11, 17, 58, 25, -1, -10, 0
1503510960285,23, 14, 4, -22, -111, 4, 1, 8, 0
1503510960307,-3, 4, -4, -12, -54, -26, 0, -11, 0
1503510960322,-16, 8, 1, -8, -67, -41, -7, -1, 0
1503510960346,0, -7, -6, 30, -15, -10, 1, 2, 0
1503510960367,-2, -11, 2, -12, 37, 2, -3, -4, 0
1503510960384,2, -2, 1, -3, 9, 2, -7, -5, 0
1503510960408,-14, -13, -1, -7, -3, 13, 0, -4, 0
1503510960427,2, 3, 0, -10, 29, 9, 2, -1, 0
1503510960442,-1, 5, 2, -3, 20, 4, 2, 1, 0
1503510960465,0, -1, 3, -2, 9, 4, 1, -2, 0
1503510960487,6, 0, 3, 2, -3, -2, -5, -12, 0
1503510960502,-2, -5, -4, -5, 3, -2, 1, 2, 0
1503510960525,4, -2, 1, -4, 0, -4, 1, 4, 0
1503510960547,0, 5, -2, 1, 7, 2, -1, 0, 0
1503510960562,-2, -2, -1, 0, -1, 1, 1, 0, 0
1503510960585,-3, -3, -1, -1, -2, -2, -5, -9, 0
1503510960610,-3, -3, -3, -2, -4, -3, 1, 6, 0
1503510960622,0, 2, 1, -1, 0, 1, 1, 2, 0
1503510960644,0, 0, -3, 0, 1, -1, -1, 8, 0
1503510960652,-3, -4, -1, -2, -3, 0, 1, 1, 0
1503510960675,-3, -6, -6, -3, -3, -1, -3, -7, 0
1503510960682,-4, 1, 1, 0, 0, -2, 0, -5, 0
1503510960697,4, 0, -2, -2, -3, -1, -3, 5, 0
1503510960713,0, 0, 1, 1, 0, 0, -1, 7, 0
1503510960734,3, 0, -4, -1, -1, -3, 1, 0, 0
1503510960762,3, -7, -2, 0, -3, -2, -2, 2, 0
1503510960772,3, 4, 0, -1, 0, 0, -1, 0, 0
1503510960794,-3, -7, -7, -1, -1, -1, -1, -2, 0
1503510960817,-2, 3, -30, -11, -3, 1, 0, -4, 0
1503510960832,-7, 4, -6, 0, 1, -1, 0, 15, 0
1503510960856,15, 5, 9, 1, 1, -1, -2, -2, 0
1503510960878,-6, 23, 14, 2, 0, -1, 0, -14, 0
1503510960891,1, -9, 5, 1, 0, 0, 1, -1, 0
1503510960914,5, -6, 4, 1, -1, -2, -5, -14, 0
1503510960930,-5, -1, -5, -4, -1, -1, 1, 3, 0
1503510960945,-7, -4, -1, -3, -2, 0, -2, 3, 0
1503510960967,1, 8, 6, 2, -1, -1, -2, 1, 0
1503510960982,-4, 31, 6, -2, 0, 0, -1, 5, 0
1503510960998,-23, -10, -2, -1, -3, -1, -2, 3, 0
1503510961012,11, -3, 0, -1, -3, 0, 2, 17, 0
1503510961034,-15, -14, -4, -2, 0, 0, -1, -7, 0
1503510961057,-20, -42, -2, 1, -2, -3, -1, -4, 0
1503510961071,-16, 14, 0, 0, -2, -1, -1, -2, 0
1503510961094,-17, 8, -1, -2, 1, -2, 1, -2, 0
1503510961117,43, 16, 8, 1, 0, -1, 1, 3, 0
1503510961131,11, 11, 2, 1, 1, 0, 0, 8, 0
1503510961154,33, 34, 17, 2, -1, 2, 3, 14, 0
1503510961179,-40, -15, -13, -6, -3, -1, -1, -9, 0
1503510961192,6, 13, 5, 1, -1, 2, 0, 4, 0
1503510961214,-2, -10, -10, -5, -1, -2, -3, 7, 0
1503510961236,14, -2, -4, -1, 0, 1, 5, 13, 0
1503510961259,0, 4, 6, 1, -2, -3, -2, -7, 0
1503510961274,-14, -7, -1, 2, -1, -3, -6, -22, 0
1503510961296,-24, -8, -5, -4, 0, -2, -4, -39, 0
1503510961319,34, 8, -1, -1, 0, -2, -1, 47, 0
1503510961334,-22, -8, -2, 0, -4, -2, -7, -24, 0
1503510961356,-6, 4, 4, 1, 1, -1, -2, -7, 0
1503510961380,7, 9, -4, -1, -1, -1, -2, 4, 0
1503510961395,12, -19, -6, -3, -2, -1, -3, 14, 0
1503510961417,0, -1, -3, 0, -2, 2, 7, -6, 0
1503510961425,17, 3, 0, -2, -1, 0, -2, -9, 0
1503510961448,1, -15, -1, -1, -3, -1, -3, -5, 0
1503510961469,0, 2, 1, 3, -2, -3, -7, -8, 0
1503510961486,13, 18, 2, -1, 2, 2, 7, 41, 0
1503510961507,-13, 14, 0, -2, 2, -1, -3, 8, 0
1503510961535,22, -18, -9, -3, -5, -1, 0, -9, 0
1503510961545,-2, -13, -8, -3, -6, -2, -5, -22, 0
1503510961567,-22, -33, -9, -1, 0, 3, -1, -7, 0
1503510961590,-5, -9, -2, -1, -1, -1, 3, 4, 0
1503510961605,-13, -1, 0, 0, -1, -4, 1, 5, 0
1503510961627,-10, -20, -2, -2, -1, 0, 0, -7, 0
1503510961649,-13, -22, -4, -2, 0, -1, 1, -13, 0
1503510961664,-4, 18, 4, -2, 0, -3, -4, -7, 0
1503510961687,5, 0, -3, -2, 1, 0, 3, 26, 0
1503510961709,5, 14, 2, -1, -3, -2, -3, -2, 0
1503510961720,-1, -15, -4, -3, -1, -2, 0, 3, 0
1503510961739,14, -5, -4, -3, -2, 1, 0, -8, 0
1503510961755,22, 3, 0, 0, -2, -4, -4, 0, 0
1503510961776,-40, -14, -2, 1, 1, -1, 1, -1, 0
1503510961799,-1, -10, -3, -2, -2, -1, 3, -2, 0
1503510961816,8, -5, -2, 4, -1, -1, -3, -1, 0
1503510961836,1, 5, 2, -3, 0, -1, 0, -13, 0
1503510961860,3, -1, 1, -1, 1, -1, -1, 8, 0
1503510961874,2, -1, 34, 29, 0, -3, -1, 5, 0
1503510961896,-34, -1, -10, -3, -2, -1, 0, -2, 0
1503510961904,28, 1, 2, 4, 0, -1, -4, -3, 0
1503510961928,-2, -2, 0, -3, -2, 1, -2, -4, 0
1503510961950,-6, 3, -9, -4, -5, -1, 0, 0, 0
1503510961956,3, 1, -10, -6, 0, -1, -7, 1, 0
1503510961979,0, 3, -4, -2, -2, -1, 3, 6, 0
1503510961994,-3, -7, -4, -1, -1, 0, 4, 10, 0
1503510962018,-50, -29, -11, -4, -3, -2, 1, -1, 0
1503510962039,15, 6, 0, 1, -2, -2, -2, -13, 0
1503510962054,17, 16, 5, -4, -2, -2, -3, -9, 0
1503510962076,7, -1, 1, -3, 0, 0, -2, -3, 0
1503510962099,10, 0, -7, 0, -3, 0, -1, 3, 0
1503510962114,16, 1, 6, 2, 1, -3, -3, 3, 0
1503510962136,13, -1, -11, -2, -1, -1, -2, -3, 0
1503510962159,-19, -15, 11, 2, 1, 0, 0, 9, 0
1503510962181,18, 19, 2, -1, -1, -1, -3, -14, 0
1503510962203,15, 6, 2, 2, 1, -2, 1, -2, 0
1503510962212,-10, -13, -9, 0, 0, -3, -1, -2, 0
1503510962227,-12, 3, -3, -8, -5, -4, -5, 4, 0
1503510962249,-16, -5, -1, 13, -1, 0, -2, -4, 0
1503510962271,17, -1, -4, -7, -2, 4, 0, 4, 0
1503510962287,-21, 24, 16, -4, -3, -4, -5, -20, 0
1503510962309,-8, -10, -7, 0, 1, 2, 0, 10, 0
1503510962332,22, 10, 3, -2, 0, -1, 1, 0, 0
1503510962347,-6, 6, 3, 1, -1, -1, -1, 7, 0
1503510962369,-1, -13, -9, -2, -1, -1, -3, -4, 0
1503510962392,-2, -6, -3, -2, -1, -2, 2, -20, 0
1503510962407,9, 21, -2, 1, -1, -1, -5, -3, 0
1503510962429,10, -18, -4, -2, -2, -2, -2, -9, 0
1503510962452,5, -1, -1, 0, 0, -1, -3, 7, 0
1503510962467,2, -6, -2, 3, -2, -1, 2, 20, 0
1503510962489,67, 9, -3, -7, -3, 6, 7, 12, 0
1503510962527,-66, -14, -6, 0, 2, -1, -9, -47, 1
1503510962536,-37, -8, 6, 1, -6, -2, -6, -18, 1
1503510962549,36, 8, 0, 0, -3, -5, 3, 24, 1
1503510962571,-2, -4, 2, -2, 2, 1, -1, 5, 1
1503510962590,-17, 1, 3, 1, -3, -3, -7, -13, 1
1503510962609,22, 8, 3, -2, 2, 0, 0, -9, 1
1503510962632,-7, -41, -4, 0, 28, 1, -1, -67, 1
1503510962647,-5, 8, 1, 1, 1, 1, 4, 30, 1
1503510962669,44, 8, -2, -3, -6, 3, 2, 45, 1
1503510962692,-55, -1, -7, -3, -31, 3, 0, -18, 1
1503510962707,-13, 3, -3, -7, -8, -10, -13, -51, 1
1503510962729,-13, 4, -1, 1, 1, 0, 3, 66, 1
1503510962751,9, 0, 4, 2, 1, -2, 6, 51, 1
1503510962767,-23, -2, 1, 1, 7, 1, 8, 14, 1
1503510962791,-8, 2, -3, 2, 7, 3, 2, -15, 1
1503510962811,-21, -9, 2, 0, 3, -22, -12, -27, 1
1503510962827,26, 0, -1, -10, 3, 13, 5, -8, 1
1503510962849,-50, -6, -3, 1, -8, -6, -8, -78, 1
1503510962871,60, 20, 0, -1, -2, -1, -1, 15, 1
1503510962887,0, -13, -7, -5, 2, 5, 3, 23, 1
1503510962909,3, -2, -2, -4, -5, -2, 0, 12, 1
1503510962917,-31, 1, -4, -22, -4, 4, 2, 4, 1
1503510962939,28, 4, 1, -2, -1, -5, -7, 5, 1
1503510962961,0, -1, -4, 5, 1, -3, 1, 12, 1
1503510962976,21, 4, 1, 1, -4, -2, 1, 3, 1
1503510963000,0, -1, -1, 8, 1, -2, 4, 11, 1
1503510963021,-22, 18, 20, 6, 0, -2, -4, -19, 1
1503510963037,30, 8, -14, -10, 3, -1, 0, 9, 1
1503510963059,-24, -11, -23, -7, -4, 0, -2, 6, 1
1503510963081,-12, 0, 3, 1, -2, -1, 0, -23, 1
1503510963089,-3, 45, 10, 3, -3, -1, 2, 19, 1
1503510963111,4, 17, -6, -8, 0, 2, 1, 27, 1
1503510963134,-21, -20, -6, -6, -4, 0, -4, -2, 1
1503510963149,23, -6, -7, -4, -4, -1, 6, 18, 1
1503510963171,-26, -13, -4, 0, -2, -2, 3, 25, 1
1503510963194,-11, -9, -3, 0, -6, 2, 1, -20, 1
1503510963209,-11, 6, 3, 0, 0, -2, 0, -8, 1
1503510963223,-18, -1, -1, 0, 0, -4, 2, -31, 0
1503510963239,7, 1, 2, 0, -1, 2, 2, 6, 0
1503510963261,12, 12, 0, 1, -1, -1, 3, 16, 0
1503510963283,2, -15, -7, -3, -2, -2, 3, -3, 0
1503510963299,7, -4, -1, -2, -1, 2, -2, 1, 0
1503510963321,-6, 3, 0, -2, -1, -2, 1, 26, 0
1503510963332,-11, -6, -2, -2, 0, -1, -2, 7, 0
1503510963351,-13, -5, 0, 1, 1, -2, -2, -4, 0
1503510963374,-7, -2, -1, -1, -2, -1, 2, -8, 0
1503510963389,-2, -8, -3, -2, -1, -1, -7, -3, 0
1503510963413,-6, -4, -4, -4, -1, -2, 1, -2, 0
1503510963434,-33, -3, -4, -1, 0, 1, 3, -1, 0
1503510963449,17, -8, -2, -1, -2, 2, 2, 0, 0
1503510963471,-3, -2, -1, -1, 1, 0, 3, -3, 0
1503510963495,18, -7, -2, -1, 0, -2, 0, 5, 0
1503510963510,-2, 4, 0, -1, -1, 0, 1, 4, 0
1503510963532,24, 1, 0, 1, -1, -1, -1, 5, 0
1503510963554,-1, -6, 28, 8, -2, -1, -1, -3, 0
1503510963569,-9, -1, -21, -12, -1, -1, -1, -4, 0
1503510963591,-4, 8, 5, 1, 1, 0, 2, 2, 0
1503510963614,3, 9, 4, 3, -2, -2, -6, -7, 0
1503510963629,-27, 4, -2, 0, -3, -5, -8, -9, 0
1503510963652,15, -4, -7, -3, -1, -2, 0, -1, 0
1503510963674,-11, -6, -5, -3, 0, 2, 0, -6, 0
1503510963689,3, 6, -7, -3, -2, -2, -1, -5, 0
1503510963711,-9, -1, 2, 0, -1, 0, 1, 3, 0
1503510963734,13, -1, -5, -3, -2, -2, -3, -3, 0
1503510963749,-33, -4, -2, -1, 0, 1, 3, 0, 0
1503510963772,14, 2, 1, 0, -1, -1, 1, 7, 0
1503510963794,0, -2, -2, -1, -1, -1, -4, 0, 0
1503510963809,27, -3, -7, -6, -4, -3, -2, -1, 0
1503510963832,-4, 0, 4, 3, 3, 2, 0, -2, 0
1503510963854,-15, 1, -2, -4, -2, 0, 1, -1, 0
1503510963869,15, -3, -2, -2, -1, -2, -3, 3, 0
1503510963891,-11, 0, 5, 5, 3, -1, -3, -6, 0
1503510963914,-11, -2, -1, -2, -2, -3, -1, 0, 0
1503510963931,-25, -1, 5, 4, 1, 0, -2, 2, 0
1503510963951,16, 11, 3, 1, 0, 0, 2, 3, 0
1503510963974,-3, -2, -1, 0, -2, -1, -4, -17, 0
1503510963989,10, -2, -5, -1, -2, -2, 1, 5, 0
1503510964011,-20, -3, 3, 2, 1, -1, -2, -4, 0
1503510964034,19, -2, -4, -3, -3, -2, -1, 7, 0
1503510964057,9, -9, -6, -3, -1, 1, 2, 6, 0
1503510964072,-12, -10, -3, -4, -2, -3, -2, 0, 0
1503510964094,1, 8, 1, 2, 0, 1, 1, 0, 0
1503510964117,4, 7, -1, -5, -2, 0, 2, -1, 0
1503510964133,-1, 3, 3, -1, 1, 0, -3, -9, 0
1503510964154,7, -2, -1, 1, -1, 1, 3, 0, 0
1503510964177,-9, -3, -1, 0, -2, -2, -3, -3, 0
1503510964191,-9, -5, 1, 0, 0, -1, -2, -11, 0
1503510964214,0, 4, 3, 2, 3, 1, 2, 3, 0
1503510964237,4, 2, 0, 2, 2, 0, 1, 5, 0
1503510964251,16, -12, -6, -6, -2, 0, 1, 6, 0
1503510964275,-2, 8, 1, 0, 0, -1, -1, 1, 0
1503510964297,-3, -4, 1, -1, -1, -3, -3, -3, 0
1503510964311,11, 2, 3, 2, -1, -3, -5, -3, 0
1503510964349,8, 6, -1, -2, -1, 0, 3, 7, 0
1503510964364,-1, 5, 0, -1, 1, 1, -1, 3, 0
1503510964387,19, 23, 0, -3, -1, -1, -1, 0, 0
1503510964410,3, -9, -5, 0, -3, -3, -2, 1, 0
1503510964424,17, -10, -1, -2, -1, -2, -1, 2, 0
1503510964447,-4, 0, -1, -1, -1, 0, -2, -1, 0
1503510964470,-4, 1, -1, -1, -2, -1, 0, 0, 0
1503510964484,-5, 2, 4, 1, 1, 3, 0, -2, 0
1503510964507,-8, -5, -1, 0, -1, -1, -1, -2, 0
1503510964529,-24, -3, -1, 0, -4, -2, -3, -4, 0
1503510964545,5, -2, -4, -8, -2, -3, -2, 1, 0
1503510964570,14, 4, 4, 8, 1, 0, 0, 3, 0
1503510964590,-1, -2, -2, -4, -1, -2, -2, -2, 0
1503510964604,-2, 2, 1, 1, 1, 0, 1, 4, 0
1503510964612,-8, -11, -3, -1, 0, -1, -1, -8, 0
1503510964636,3, 3, -4, -2, -2, -1, 0, 1, 0
1503510964656,4, 7, 1, 1, 1, 0, -1, -3, 0
1503510964671,-4, -4, -2, -2, -1, 0, 0, -1, 0
1503510964687,7, 1, -6, -5, -1, -2, 0, 2, 0
1503510964709,-9, -6, -4, -3, -1, -1, -3, -6, 0
1503510964724,-9, -3, -4, -10, -1, 0, -1, -3, 0
1503510964747,-2, 2, 2, 1, -2, -3, -2, -3, 0
1503510964772,2, 31, 10, 2, 0, 0, 0, -1, 0
1503510964785,-1, -13, -7, -2, -1, 2, 3, 5, 0
1503510964808,-12, -11, -5, 0, -1, -1, -1, -5, 0
1503510964829,-4, -2, 4, 2, -1, -1, -2, 0, 0
1503510964844,-4, 0, 0, 9, 0, -1, -2, 1, 0
1503510964867,7, -3, -5, -4, -2, -3, -1, 1, 0
1503510964889,-3, -6, -7, -3, -1, -1, -2, -1, 0
1503510964907,-19, -8, -3, -1, -1, 0, 0, -3, 0
1503510964927,13, -3, -2, -2, 1, 0, -1, -3, 0
1503510964950,-10, 12, 4, -1, -2, 0, 1, 0, 0
1503510964965,10, -7, -4, 9, 0, 0, 0, 1, 0
1503510964987,-11, -9, -4, -10, -3, -3, -2, -9, 0
1503510965012,-23, 9, 4, -1, 2, 0, -1, -5, 0
1503510965024,4, -11, -3, 1, -1, -4, -3, 2, 0
1503510965041,-29, 6, 1, 0, -3, 0, 1, 1, 0
1503510965054,12, -4, -4, 2, -1, -1, -5, -8, 0
1503510965070,19, -1, 1, -4, -1, -2, 4, 7, 0
1503510965085,19, 4, 3, -8, 0, 0, 2, 3, 0
1503510965107,8, 15, 2, -2, -1, -2, 0, 5, 0
1503510965115,23, -1, -2, -2, -1, -1, -1, -1, 0
1503510965136,-8, 11, -3, -1, -1, -2, 1, -1, 0
1503510965159,8, 3, 1, -1, -1, -1, -1, 3, 0
1503510965174,-23, -7, -4, -4, -2, 1, 1, 0, 0
1503510965196,9, 2, 1, -1, 0, -2, -3, -3, 0
1503510965219,15, -4, 5, 2, 0, -2, -2, 0, 0
1503510965234,13, 10, 4, 1, -2, 0, -3, -1, 0
1503510965256,-31, -17, -2, -4, 0, 0, 0, 0, 0
1503510965279,1, 14, 2, -2, -1, 0, -1, 2, 0
1503510965294,17, 7, -2, 0, -2, -2, -4, -2, 0
1503510965317,11, 8, -3, -3, 0, -1, 0, 0, 0
1503510965341,-29, -12, -2, -1, 0, -1, 0, -7, 0
1503510965354,-2, 1, 3, 1, 3, -1, -1, 3, 0
1503510965378,12, -7, -6, 0, -1, 1, 3, 6, 0
1503510965399,-5, -1, 2, 1, -2, 0, -1, 0, 0
1503510965414,-18, 0, -2, -1, 0, 0, -2, -7, 0
1503510965437,-1, 0, -1, -3, -2, 0, -1, -4, 0
1503510965459,-27, -17, -5, -2, -2, -2, 0, -3, 0
1503510965475,17, -1, -2, -6, -3, -1, 1, 2, 0
1503510965496,-1, -1, 2, 3, -3, -3, -5, -3, 0
1503510965519,17, -3, 1, -2, 2, 0, -1, 2, 0
1503510965534,-3, -5, -3, -1, -2, -1, -1, -3, 0
1503510965556,-1, 1, -2, -1, 0, 0, 1, 0, 0
1503510965579,13, -1, -6, 0, -2, -1, -3, 3, 0
1503510965594,-3, 0, -6, -2, 2, -1, 3, 5, 0
1503510965617,-8, 5, 2, 0, 1, -1, 3, 0, 0
1503510965639,3, 2, 0, -3, -2, -1, -3, -5, 0
1503510965654,-15, -2, 0, -2, -1, 0, -2, -2, 0
1503510965677,-12, -7, 1, -3, 0, 1, -1, -7, 0
1503510965699,13, 0, -1, -1, -1, 0, 0, 0, 0
1503510965714,-1, 9, 0, 3, 1, -2, -3, -2, 0
1503510965736,1, 6, 3, -1, 0, -1, -1, -1, 0
1503510965745,-1, 1, -3, 2, -2, -2, -2, 1, 0
1503510965767,-6, -1, 1, 1, 0, 0, 0, -7, 0
1503510965789,-9, 5, 3, 1, 0, -2, -2, -2, 0
1503510965804,-25, -5, -1, -1, 1, 0, -1, -3, 0
1503510965819,-3, -8, -1, -4, 0, -1, -1, -1, 0
1503510965834,-8, -4, 0, -1, -1, -1, -2, -1, 0
1503510965856,1, -11, -6, -1, 0, -2, -1, -1, 0
1503510965879,-33, -3, -3, -1, -3, -2, -1, -9, 0
1503510965894,-5, -2, 2, -1, 0, -2, -1, 2, 0
1503510965917,9, 5, 0, 1, -1, 0, 0, 2, 0
1503510965939,11, 1, 0, -4, -1, 0, 1, 3, 0
1503510965961,-11, 5, -6, -3, -2, -1, -3, -7, 0
1503510965982,20, 12, 2, 0, -1, -1, 1, 3, 0
1503510965998,-6, 1, -5, -2, -1, -1, 0, -2, 0
1503510966018,-7, -10, 1, 1, -2, 0, -1, 0, 0
1503510966022,-5, 2, 2, 0, -1, -1, -3, -1, 0
1503510966037,-1, -3, 0, 0, -3, 2, 0, 4, 0
1503510966059,4, -9, -2, 4, 3, 1, 1, 3, 0
1503510966083,1, -3, -2, -2, 0, 2, 1, 5, 0
1503510966096,8, -2, -1, -2, -2, -1, -2, -4, 0
1503510966119,-9, 6, -1, -4, -2, -1, -1, -1, 0
1503510966141,1, -10, -1, -2, 0, -1, 1, -1, 0
1503510966157,-1, 1, -6, -1, 1, 0, 0, 0, 0
1503510966180,6, -2, 3, 20, 2, -2, -3, -1, 0
1503510966201,-4, -4, -4, -11, 0, 0, 0, -6, 0
1503510966216,1, 1, -1, -5, -2, -1, 0, 4, 0
1503510966239,5, 3, 6, 2, 0, -1, 0, 1, 0
1503510966261,-8, -2, 1, -2, -2, -1, -3, -7, 0
1503510966276,16, 8, 0, -1, -1, 0, 0, 3, 0
1503510966299,-10, 1, -2, -5, -1, -1, -1, 0, 0
1503510966321,4, 0, 2, -1, -2, -1, -3, -1, 0
1503510966336,3, -3, -2, -1, -1, -2, 1, 4, 0
1503510966359,-10, -4, -3, 1, 0, 1, 0, -5, 0
1503510966383,12, -5, -5, 0, -1, 0, 1, -4, 0
1503510966396,0, -2, 10, 0, -2, 0, -1, -2, 0
1503510966419,1, -2, -2, 0, 0, 0, 1, 0, 0
1503510966441,-11, 1, -2, -3, -2, -2, 0, -3, 0
1503510966457,0, 1, -2, 0, 0, 0, 2, 6, 0
1503510966479,-30, 0, -1, 0, 0, -1, -1, -5, 0
1503510966501,0, 0, -3, -2, 0, -1, -1, -4, 0
1503510966517,-41, -3, 1, -2, -1, -1, -3, -6, 0
1503510966540,13, -16, -9, -1, -2, -2, -1, 3, 0
1503510966561,6, -3, -1, 1, 0, 1, 1, 0, 0
1503510966576,15, 10, 2, -3, 1, -1, 1, 1, 0
1503510966599,-14, 3, 1, 1, -2, -1, -2, -4, 0
1503510966621,-8, -9, -2, -5, -1, -2, -3, -6, 0
1503510966636,15, 8, 9, 2, 0, -1, -1, 2, 0
1503510966659,-4, 8, 2, 1, 0, -1, -1, -1, 0
1503510966683,3, -3, -3, -2, -2, -1, -1, 4, 0
1503510966696,-9, 2, 0, 0, 0, -1, 0, 1, 0
1503510966720,-8, 5, -4, -2, -1, 0, 1, 4, 0
1503510966741,4, -4, -3, -1, 0, -2, -1, -3, 0
1503510966756,-3, 0, -3, -3, -2, 0, -3, -2, 0
1503510966779,8, -4, -2, 0, 1, -2, 0, -3, 0
1503510966801,9, -9, 0, -1, -2, 0, -2, -5, 0
1503510966818,-19, -3, -4, 0, -1, -2, 2, -1, 0
1503510966839,-9, 1, 0, -1, -1, -1, -1, 0, 0
1503510966861,13, -5, -4, -2, -1, -1, -2, 1, 0
1503510966885,8, 4, 1, 0, -1, -2, 0, -2, 0
1503510966899,4, 0, -1, 1, -1, -1, 0, 3, 0
1503510966922,-15, -1, -4, -2, -1, -1, -4, -2, 0
1503510966943,2, 3, 2, 0, 0, 1, 0, -3, 0
1503510966961,10, 11, -4, 0, -2, -2, 1, -4, 0
1503510966981,2, 0, -2, -1, -2, 1, 0, 1, 0
1503510967003,25, -3, -1, -2, -1, -2, 0, 4, 0
1503510967019,-6, 4, 5, 1, -2, -1, 1, -1, 0
1503510967041,-8, -8, -3, 0, -3, -1, 0, 1, 0
1503510967063,-38, -10, -4, -1, 0, -2, -4, -14, 0
1503510967079,1, 1, -2, -2, -1, -1, -1, 4, 0
1503510967101,-4, -5, -1, 0, -1, 0, -1, 2, 0
1503510967123,-5, -3, -2, -2, 0, 0, -2, 0, 0
1503510967139,-3, -1, -1, -2, -2, 0, -2, 0, 0
1503510967162,25, 0, -2, -1, -1, 0, -2, 4, 0
1503510967183,20, -3, -1, -1, -1, -2, 0, 0, 0
1503510967199,-10, -6, 2, 1, 0, -2, 0, 0, 0
1503510967221,-4, -7, -3, -1, 1, 0, -2, -1, 0
1503510967243,11, 1, 4, 2, 0, -2, 0, -1, 0
1503510967259,4, 5, 2, 0, 1, -1, 0, -1, 0
1503510967281,-18, -2, -3, -2, -2, -1, -2, -7, 0
1503510967303,7, 4, -4, -1, -1, 0, 1, 2, 0
1503510967326,3, -3, 2, 0, 1, -2, -4, -6, 0
1503510967341,-13, -13, -5, -2, -1, -2, 0, 0, 0
1503510967364,4, 10, 7, 1, 1, -1, 0, 1, 0
1503510967379,-7, -7, -8, -2, -2, -1, 0, 0, 0
1503510967401,-7, -2, -1, -2, -2, 1, -2, -1, 0
1503510967423,2, 5, 3, 0, -1, -1, -1, 1, 0
1503510967439,-2, 9, -2, -3, -2, -1, -1, -1, 0
1503510967461,13, 1, 1, 0, 1, 0, -1, -1, 0
1503510967483,3, -2, -3, 0, 0, 2, 0, 2, 0
1503510967499,-5, 0, 1, 1, 0, -1, -2, 0, 0
1503510967523,25, 22, 4, -1, 0, -2, -1, 0, 0
1503510967543,-11, -6, -3, -3, -3, -1, 3, -3, 0
1503510967559,22, -4, -3, -2, -1, -1, -3, 0, 0
1503510967581,0, -4, -2, -1, -1, 2, -1, -1, 0
1503510967603,23, -8, -5, 0, -1, -1, -3, 0, 0
1503510967619,-26, -6, -5, -2, -2, -2, -1, -7, 0
1503510967641,-2, -2, -2, -3, 0, -1, 1, 0, 0
1503510967663,-5, -5, 1, 1, -1, -1, -2, 0, 0
1503510967679,9, 3, 2, 0, 1, -1, 0, -2, 0
1503510967701,14, 10, 3, -1, -2, -3, -1, 1, 0
1503510967725,-10, 0, 0, -1, -1, 0, 0, 0, 0
1503510967739,-17, -6, -1, -1, 1, -2, -2, -2, 0
1503510967761,13, 0, -1, -1, -1, 0, -2, 0, 0
1503510967784,-5, -5, -1, -2, -3, 0, -1, -3, 0
1503510967805,-3, -6, -1, -1, 1, 0, -2, -2, 0
1503510967821,-23, -5, -2, 0, -1, -5, 0, -5, 0
1503510967844,32, -2, -4, -3, -3, -1, -1, 4, 0
1503510967865,4, -6, 0, 0, 0, 1, 0, -4, 0
1503510967874,3, -2, -2, -2, 0, -2, -2, 0, 0
1503510967897,-18, 3, 3, 0, -1, -2, 0, -1, 0
1503510967912,18, 4, -2, 0, 0, 0, 1, 2, 0
1503510967934,6, -1, -2, -1, 0, 0, -1, 1, 0
1503510967956,-42, -5, -1, -1, -3, -6, -7, -32, 0
1503510967972,26, 3, 1, -1, 0, 1, 3, 9, 0
1503510967994,8, 1, 0, -2, -2, -1, 0, 6, 0
1503510968016,2, -2, 0, -2, 0, -2, 0, 7, 0
1503510968032,-3, 4, -4, 0, 0, -2, -2, -2, 0
1503510968054,15, -6, -2, 0, 0, 0, 5, 6, 0
1503510968076,-10, -7, -2, -3, -3, -2, -4, 14, 0
1503510968093,-7, 5, 6, 1, -2, 0, -2, -16, 0
1503510968114,9, -4, -1, 1, 0, 0, 0, -1, 0
1503510968136,-9, 2, 0, 0, 0, 1, -2, -1, 0
1503510968152,4, -3, -1, -1, 0, 0, 0, 0, 0
1503510968174,0, -7, 1, 0, -1, -2, -7, -34, 0
1503510968196,18, -2, -5, -3, -1, -1, 0, 23, 0
1503510968212,4, -1, -3, -1, -1, -1, -6, 2, 0
1503510968234,-11, 2, 0, -3, 2, -3, 1, 1, 0
1503510968256,-20, -1, 0, -1, 0, 0, 0, 2, 0
1503510968272,-4, 3, 0, -1, -1, 1, 1, -2, 0
1503510968296,-17, 12, -2, 0, -2, 0, -1, -3, 0
1503510968316,-15, -13, 2, 1, 0, 0, 1, -12, 0
1503510968331,16, 5, -1, 0, -1, 1, 0, 5, 0
1503510968354,-1, -1, 2, -1, -1, -4, -9, -15, 0
1503510968376,-10, -4, 1, 0, -1, 1, 3, 3, 0
1503510968391,-12, -16, -3, -3, 0, 0, 2, 8, 0
1503510968413,22, 8, -1, 2, 1, 0, -2, -4, 0
1503510968437,-3, -7, -8, -3, -4, -3, -3, 9, 0
1503510968451,20, 23, 0, -4, -2, 0, 1, 5, 0
1503510968474,0, -7, 1, -2, -1, -3, 3, 9, 0
1503510968497,18, 5, -1, -1, -2, -3, 1, -11, 0
1503510968517,-18, -24, -6, 0, -1, 1, 1, 11, 0
1503510968534,27, 32, 7, 1, -2, 0, 0, 8, 0
1503510968556,-40, 3, -1, -3, -2, -2, -1, -2, 0
1503510968574,21, 5, 1, -1, 0, -2, 0, 10, 0
1503510968594,13, 2, 0, -7, -1, 5, 1, -11, 0
1503510968616,-15, -11, -5, 1, 1, 6, 3, 7, 0
1503510968632,-4, -14, -2, -3, 1, 0, 5, 11, 0
1503510968654,15, -10, -5, -1, -2, -7, -7, -6, 0
1503510968665,-18, 10, 11, -1, 1, 4, 4, 11, 0
1503510968683,-9, -12, -4, 3, 0, 1, 3, 3, 0
1503510968692,-12, -4, 0, 3, -2, -5, -4, -13, 0
1503510968713,6, -9, -5, -1, -1, 0, 0, 13, 0
1503510968736,-1, -1, 1, 14, -1, -4, 1, -9, 0
1503510968759,-6, -6, -1, -5, 2, 0, -2, -2, 0
1503510968774,30, -1, 0, -2, -2, 0, -5, -8, 0
1503510968799,-47, -5, 7, -3, -2, -5, -7, -24, 0
1503510968819,16, 22, 5, -3, 1, 0, -1, -3, 0
1503510968834,21, 15, 2, -1, -1, 2, 2, 11, 0
1503510968856,-24, -21, -7, -1, 8, 0, 3, 5, 0
1503510968879,17, 0, -4, -2, -1, -1, 1, 6, 0
1503510968894,-14, -14, -1, 2, -2, -4, -4, -32, 0
1503510968916,-13, -28, -11, -4, -2, 4, 9, 10, 0
1503510968939,-16, -29, -8, -1, -2, -4, -6, 9, 0
1503510968953,-32, 10, -1, 1, 0, -3, -4, -33, 0
1503510968968,13, -3, -11, -2, -2, -5, -5, -13, 0
1503510968983,-17, -9, -1, 1, 1, -1, 1, -15, 0
1503510969005,21, 1, -3, -4, -2, -7, -1, -6, 1
1503510969028,-38, -5, -3, 1, 2, 1, 5, -12, 1
1503510969044,-13, -5, -2, 2, -4, 3, -1, -39, 1
1503510969068,-4, 0, 1, -2, 0, 1, 4, 23, 1
1503510969088,-79, -7, -7, -3, 1, -7, -15, -27, 1
1503510969104,32, 6, -1, 2, -4, -2, -2, 9, 1
1503510969125,20, -24, -7, -4, 4, -4, -4, 12, 1
1503510969148,-24, -8, -3, 0, -1, 0, 3, 0, 1
1503510969164,-21, -1, -3, -2, -6, 9, 1, -35, 1
1503510969185,23, 7, 5, 0, 4, -4, -10, 1, 1
1503510969208,10, 3, -2, -5, 4, 7, 6, 13, 1
1503510969224,31, 6, -2, -1, -3, -5, -9, 10, 1
1503510969245,12, -3, 0, 0, -15, -7, 8, -5, 1
1503510969270,-36, 4, -1, 2, 4, -2, -3, 7, 1
1503510969283,3, -15, -2, 40, 13, -6, -2, -5, 1
1503510969306,3, 44, 19, -12, -2, 0, 4, -7, 1
1503510969328,-3, -17, -6, 1, -2, -2, 0, 0, 1
1503510969344,8, 33, 4, -4, -7, -1, 1, -2, 1
1503510969365,-23, -23, -11, -13, -2, -2, -1, 16, 1
1503510969388,-15, 6, 2, -8, 0, 0, -4, 13, 1
1503510969404,-1, -19, 0, -10, -1, 9, 7, 11, 1
1503510969427,21, -19, -10, -5, -2, -1, 4, -1, 1
1503510969449,18, -7, -2, -1, -1, 3, -2, 0, 1
1503510969472,6, -10, -2, 1, 0, -3, -8, -23, 1
1503510969487,27, -3, 3, 0, 1, -4, 2, 49, 1
1503510969509,-7, -1, -2, -1, -1, -3, -1, -22, 1
1503510969532,-2, 3, 1, 4, -2, -1, 2, 11, 1
1503510969547,16, -1, 5, 11, 3, -1, -2, -2, 1
1503510969570,0, 5, -3, -22, -1, 1, -2, -1, 1
1503510969576,-9, 14, 12, 5, 2, -3, 0, -1, 1
1503510969599,-29, 30, -2, 10, -1, -4, -6, -41, 1
1503510969614,1, -83, -18, 12, 0, 0, -1, -15, 1
1503510969644,-32, 20, -2, 1, -2, -2, 1, -44, 1
1503510969658,-20, -15, 0, 2, -2, 4, -2, 15, 1
1503510969719,-45, -4, -1, -1, -5, -12, -8, -8, 1
1503510969726,-44, -19, -11, -5, -7, -8, 1, 9, 1
1503510969734,46, 8, 9, 0, 0, 3, 0, 18, 1
1503510969756,-13, -43, -22, -6, -12, 0, 1, 5, 1
1503510969772,25, -24, -6, 1, 21, -1, 0, 15, 1
1503510969787,-15, 5, -10, -2, -5, 1, -4, -35, 1
1503510969810,-25, -9, -2, 2, 5, 6, 7, 24, 1
1503510969832,-49, -15, -6, -3, -11, -4, -7, 20, 1
1503510969854,5, 20, 7, 1, 0, 3, 3, -44, 1
1503510969876,23, 2, 1, 0, -3, -1, 4, -39, 1
1503510969892,-30, -21, 5, 1, -1, -5, -12, -30, 1
1503510969915,-8, -7, -1, 3, 3, 2, -4, -11, 1
1503510969929,-13, 4, -1, -6, -2, -2, 0, 25, 1
1503510969952,47, 0, -3, -1, -1, -1, -2, 6, 1
1503510969967,16, -4, -1, -1, -1, -3, 1, 2, 1
1503510969989,25, -7, -9, -4, -2, -2, -7, 8, 1
1503510970012,-19, -10, -8, -3, -3, 0, 1, 17, 1
1503510970027,27, 14, -1, -2, -1, -1, -5, 3, 1
1503510970049,10, 4, 0, -1, -2, -3, -1, -24, 1
1503510970056,-21, -21, -5, -3, -1, -3, -6, 9, 1
1503510970075,-55, -18, -9, -4, -2, -1, -3, -2, 1
1503510970094,39, 36, 7, 1, 0, -1, -1, 3, 1
1503510970109,-16, -7, 1, 0, 1, -3, -1, -16, 1
1503510970132,15, 14, 3, -2, -2, -1, 2, 31, 0
1503510970154,8, 29, 11, 1, 0, -2, -3, -8, 0
1503510970169,9, -14, -4, -1, -1, 2, 3, -5, 0
1503510970192,8, -15, -5, 0, 0, 0, 0, 2, 0
1503510970215,-11, -6, -2, -1, -2, -1, -1, 2, 0
1503510970229,4, 0, -2, 0, -1, 0, -1, 6, 0
1503510970252,2, 0, 0, 0, -1, -3, -4, 3, 0
1503510970259,-17, 10, -6, -3, 1, 0, -2, -2, 0
1503510970282,5, -9, -6, -3, -2, -1, -6, -5, 0
1503510970296,7, 14, 8, 3, 1, -1, 1, -5, 0
1503510970319,-5, -12, -8, -5, -3, -1, -5, -9, 0
1503510970343,19, 3, -4, 0, -1, -1, 1, 3, 0
1503510970356,10, -12, -3, 0, 0, 0, 0, -1, 0
1503510970379,9, 5, -1, -1, -2, -2, -1, -1, 0
1503510970401,4, 3, -1, -3, 0, 0, 1, -4, 0
1503510970416,-4, 7, 1, -1, -1, 0, -4, -4, 0
1503510970438,-14, -7, 3, 1, 0, -3, 1, -1, 0
1503510970461,5, -2, 1, 1, 0, 0, -1, 3, 0
1503510970478,7, 1, -2, 0, 0, 1, -2, -7, 0
1503510970492,-9, -13, 1, 1, 1, 0, 1, 1, 0
1503510970517,-3, 6, -2, 0, -1, 0, 2, -1, 0
1503510970530,8, -6, -3, -3, -2, 0, -2, 0, 0
1503510970553,2, 3, -3, -3, -1, 0, 2, -1, 0
1503510970559,5, 5, 0, -2, 1, -2, 1, -3, 0
1503510970581,5, 1, 0, -1, -1, 0, 0, -1, 0
1503510970603,-7, -1, 1, 0, -1, -1, -1, 1, 0
1503510970619,-20, -11, -1, -2, 0, 0, -1, 0, 0
1503510970641,-6, 0, -1, -3, -1, 0, -1, -2, 0
1503510970664,-10, 4, 2, 0, 1, -1, -2, -4, 0
1503510970679,-4, -2, 2, 0, 0, 0, -1, 4, 0
1503510970702,2, -3, -3, 0, -1, 0, 1, 4, 0
1503510970724,0, 1, 0, 1, -2, 0, 0, -5, 0
1503510970739,-2, -2, -2, -2, -2, -2, -2, -3, 0
1503510970761,-10, 15, 0, -2, -2, -2, 0, -5, 0
1503510970784,20, -6, -6, -2, -1, -2, -4, -3, 0
1503510970798,-2, 5, 2, -1, 0, 0, -2, -8, 0
1503510970814,-14, -14, -10, -4, -3, 0, 0, 0, 0
1503510970829,4, -1, 1, 2, -3, -4, -2, 2, 0
1503510970854,3, -7, 3, 5, 3, -1, 2, 1, 0
1503510970874,-4, -3, -6, -5, -4, -2, -2, -1, 0
1503510970889,17, 10, 3, 0, 1, 3, 2, 4, 0
1503510970913,-4, -3, -1, -1, 1, -2, -1, -5, 0
1503510970934,0, 4, 6, 7, 5, -1, -2, -2, 0
1503510970949,-1, -1, -1, -3, -3, -4, -7, -7, 0
1503510970972,-3, -9, -1, -1, -2, -4, -2, 4, 0
1503510970994,-6, -12, -7, -5, -2, 1, -2, -4, 0
1503510971009,3, 0, -5, -3, -3, 4, 2, 2, 0
1503510971031,2, -4, 3, 4, 2, 0, -1, 1, 0
1503510971038,7, -2, -3, 0, 0, 2, 2, 3, 0
1503510971054,5, 1, 1, -1, -1, -3, -3, -6, 0
1503510971069,9, -8, -7, -2, -1, -2, -2, 2, 0
1503510971091,-29, -3, -5, -2, -2, -1, -2, -5, 0
1503510971115,26, 10, 4, -1, 2, 1, 2, 4, 0
1503510971137,-11, -2, 0, 1, -2, 0, 1, 1, 0
1503510971158,-2, -1, -1, 0, 0, -2, -1, -1, 0
1503510971173,-10, -5, 0, 1, 2, 3, 1, -3, 0
1503510971189,-5, -2, -2, 0, -2, -2, -5, -11, 0
1503510971211,2, -2, 3, 1, 0, 2, 1, 4, 0
1503510971234,-3, 13, 0, -1, 0, -3, -3, 1, 0
1503510971249,1, -2, -1, 1, 0, 3, 9, 10, 0
1503510971272,2, -3, -2, -2, -1, 0, -2, -1, 0
1503510971294,-1, -2, 2, 1, -1, -2, -1, -1, 0
1503510971309,-3, 2, -4, -4, -3, -4, -5, -3, 0
1503510971331,1, -6, -4, -2, -1, 2, 1, -1, 0
1503510971354,-5, -3, 1, 1, 0, -1, -2, -5, 0
1503510971369,9, 1, 1, -2, -1, -3, -2, 0, 0
1503510971392,-15, -10, -5, -4, -2, -1, -3, -5, 0
1503510971418,7, 1, 0, -1, 0, -2, -1, -1, 0
1503510971429,9, 4, 0, 0, -2, 0, -3, -1, 0
1503510971452,1, -2, -1, 0, -1, -2, 1, 2, 0
1503510971474,-4, 4, -1, 1, 0, 1, -2, -2, 0
1503510971489,2, -1, 0, 0, -1, 0, -1, 1, 0
1503510971513,-14, -7, -1, 1, -1, -1, -2, -5, 0
1503510971534,4, -5, 2, 1, 0, -2, -1, -1, 0
1503510971556,13, 2, -4, -3, -2, -3, -3, -3, 0
1503510971572,25, 1, -3, -1, -1, 1, 0, 5, 0
1503510971594,-9, 6, -2, -1, -1, 0, -1, -5, 0
1503510971620,-13, -9, 0, 0, 1, -2, -1, -2, 0
1503510971632,2, 18, 3, -2, -1, 0, 2, 2, 0
1503510971659,-48, -11, 1, -1, -2, -3, -3, -11, 0
1503510971676,4, 17, 2, 0, 0, -1, -2, -1, 0
1503510971692,17, -4, 2, 2, -2, -3, -1, 7, 0
1503510971714,-3, -8, -4, -3, -2, 1, 2, 1, 0
1503510971736,0, 3, 2, 0, -1, 0, 0, -4, 0
1503510971752,13, 6, 0, 0, 0, -1, -3, -2, 0
1503510971774,-5, -8, -5, -3, 0, -1, 0, -1, 0
1503510971796,-10, -16, -4, -2, -1, -1, 1, -4, 0
1503510971811,-15, -6, 1, -2, -2, -2, -2, -9, 0
1503510971834,3, 1, 1, 0, 0, -1, 0, 4, 0
1503510971856,-12, -12, -4, 0, 0, 0, 0, 0, 0
1503510971871,11, 4, 1, 1, 0, -2, -2, 1, 0
1503510971889,-3, -3, -1, -1, -1, 0, 0, -1, 0
1503510971901,17, 6, -1, -1, -3, -1, -4, -1, 0
1503510971926,-16, -4, -3, -2, 0, -1, -1, -6, 0
1503510971945,-11, -12, -3, 0, 0, -1, -2, -2, 0
1503510971961,-5, 2, 0, -3, 0, -1, 0, 2, 0
1503510971984,-7, -9, -1, 2, 0, -1, 0, -5, 0
1503510972006,25, 2, -1, 0, -2, 0, 1, 4, 0
1503510972022,11, 8, 1, 0, 0, -1, 2, 6, 0
1503510972044,-7, -14, -2, -1, 0, 0, 1, 0, 0
1503510972067,2, 5, -4, -3, -1, -1, -1, 3, 0
1503510972081,-3, -5, -7, -3, 0, -3, -2, -4, 0
1503510972103,16, 5, 0, 1, 0, -1, 0, 4, 0
1503510972111,-5, -4, 0, -3, -2, -2, 0, -1, 0
1503510972128,-5, 0, 1, -1, -1, -2, -2, -2, 0
1503510972141,17, 22, 5, 0, -1, 0, -1, 1, 0
1503510972164,-21, -14, -3, -2, -1, 0, -4, -11, 0
1503510972189,14, -10, -4, -1, -1, 1, 1, 3, 0
1503510972201,-20, 3, 5, 0, 0, -2, -1, -4, 0
1503510972224,-1, -6, -1, -2, 0, -2, -1, -4, 0
1503510972246,3, -2, -1, 0, -2, -2, -2, -3, 0
1503510972261,2, 3, 0, 1, 0, 0, 1, 2, 0
1503510972284,1, -4, -3, 0, -1, 0, -1, 1, 0
1503510972306,3, -4, -3, -2, -2, 0, 0, 0, 0
1503510972324,-4, -11, 2, 2, -2, -2, -3, -6, 0
1503510972343,0, -1, -1, 0, 0, -2, 1, 5, 0
1503510972366,16, 6, -1, -2, -1, -2, -1, 2, 0
1503510972381,-10, -2, 0, -1, -2, 2, 2, -1, 0
1503510972411,-17, 17, 6, 0, 1, 0, -1, 1, 0
1503510972426,4, -4, -1, 0, -1, -2, -1, 2, 0
1503510972448,-5, -10, -5, -3, 2, 1, -1, -2, 0
1503510972464,-1, -2, -3, 0, -2, -2, -3, -4, 0
1503510972487,11, -11, -3, 0, -1, -1, 0, 4, 0
1503510972508,-7, -10, -6, 0, 1, 2, -1, -1, 0
1503510972525,7, 0, 1, -1, -2, -1, 0, -1, 0
1503510972546,-1, 7, 5, 1, 1, 0, 1, 0, 0
1503510972568,-3, 2, 0, 0, 0, 0, -1, 1, 0
1503510972584,6, 5, -1, 0, -1, -2, -3, -4, 0
1503510972606,-18, -8, -7, -2, -2, 0, 0, -2, 0
1503510972628,9, -14, -3, -1, -2, -1, 1, -1, 0
1503510972643,-2, 2, 3, -1, -1, 0, -1, -3, 0
1503510972667,7, -1, 0, -1, -1, -2, -3, 1, 0
1503510972688,-4, 5, 1, 0, 0, 0, -1, -1, 0
1503510972703,-10, 1, -3, -3, -1, -2, -2, -4, 0
1503510972726,-7, 8, 4, 0, -1, 0, 0, 2, 0
1503510972748,-2, 2, -2, -1, -1, 0, -1, -4, 0
1503510972764,-3, -11, -6, -3, -2, 0, 1, 2, 0
1503510972786,-18, 5, 1, 0, 0, -1, -2, 0, 0
1503510972808,1, 1, 1, 2, -1, 0, -1, 0, 0
1503510972823,7, 4, 0, -3, -3, -3, -2, 0, 0
1503510972838,-13, -5, -1, -2, 1, 0, -2, -3, 0
1503510972854,-15, 0, 0, -2, -2, -2, -1, -9, 0
1503510972876,-12, -7, -3, -1, 0, -1, -2, 2, 0
1503510972899,20, -1, 3, 0, -3, -1, -2, 2, 0
1503510972914,10, 8, 2, 2, 1, 0, 1, 1, 0
1503510972936,-13, 4, -3, -2, -3, -2, -1, -5, 0
1503510972961,5, -13, -3, -5, -1, -1, -1, -1, 0
1503510972974,1, 1, 2, 0, -1, -2, -1, -1, 0
1503510972996,-12, -4, -4, -1, -3, -1, -2, -7, 0
1503510973018,-3, -9, 2, 1, -2, 0, 2, 2, 0
1503510973034,-9, 12, 4, 1, 1, -1, -2, -1, 0
1503510973056,1, -3, -2, -1, -1, -1, -1, -2, 0
1503510973078,8, 7, 5, 0, -1, 0, 0, -3, 0
1503510973095,6, -7, 0, -1, 0, 0, 1, 2, 0
1503510973108,9, -1, 3, 0, 0, -1, 0, 1, 0
1503510973123,-3, 4, -3, -3, 0, 0, 1, 1, 0
1503510973146,-18, 27, 3, 1, -1, -1, -4, -5, 0
1503510973168,-12, -22, -3, 0, 0, -1, -2, 0, 0
1503510973183,-14, -16, -3, 0, -2, 1, -1, -6, 0
1503510973206,1, 2, 0, -3, 0, -1, -2, -3, 0
1503510973230,8, -4, -2, 1, 0, 1, 0, -1, 0
1503510973243,-5, -6, -3, 0, -1, -1, -1, -1, 0
1503510973266,7, 0, 2, 0, -2, -1, -2, -5, 0
1503510973288,7, 6, -1, 0, 0, 0, 0, 3, 0
1503510973304,0, -3, 1, -1, 0, -2, -1, -1, 0
1503510973326,15, 4, -4, -1, 0, -1, -1, 2, 0
1503510973348,-10, 4, 7, 0, 0, 0, 0, -2, 0
1503510973370,9, 1, 0, -2, -2, -2, 1, 1, 0
1503510973386,-1, -5, -3, 0, -2, 1, 0, 1, 0
1503510973408,0, -7, 2, -1, -1, -1, -1, 0, 0
1503510973431,0, -16, -3, 0, 1, -1, 0, -1, 0
1503510973446,8, 5, 5, 1, 0, 0, -2, -1, 0
1503510973468,-9, -3, -6, -2, -1, -2, 0, -2, 0
1503510973490,1, 4, -3, -1, -4, -2, 0, 2, 0
1503510973506,0, 6, -2, 0, -1, -1, -1, -2, 0
1503510973528,-4, -3, -1, -2, -1, -1, -1, -2, 0
1503510973550,3, 6, -1, 0, 0, -1, -1, 0, 0
1503510973566,-17, -9, -6, -2, -1, -1, -1, -1, 0
1503510973588,-1, -4, 2, 0, -2, 0, -2, -4, 0
1503510973611,-28, -4, -1, -1, 0, -1, -1, -3, 0
1503510973626,21, 4, 0, -1, -2, 0, -1, 4, 0
1503510973648,2, -4, -1, -3, -2, -2, -3, -3, 0
1503510973670,5, 0, 0, -2, 0, 2, -1, 1, 0
1503510973693,-17, 11, 4, -1, 1, -3, -1, -3, 0
1503510973715,-3, 7, 2, 1, -1, 0, 1, -3, 0
1503510973733,14, -7, -4, -3, -1, 1, 0, 3, 0
1503510973746,0, -2, -2, 1, -1, -2, 1, 0, 0
1503510973768,-2, -2, -2, -3, -1, -1, -2, -1, 0
1503510973790,-16, 0, -4, -1, -1, 1, -1, -2, 0
1503510973806,3, -8, -2, 1, -1, -1, 0, -3, 0
1503510973828,-10, 9, 1, 0, -1, -1, -1, -2, 0
1503510973850,19, -7, -3, 0, 0, -1, 1, 4, 0
1503510973867,-4, -1, 2, -1, -1, -1, -1, -1, 0
1503510973881,18, 4, -4, -2, -2, -1, 0, 0, 0
1503510973896,-10, -2, -1, 0, -2, -1, -2, -4, 0
1503510973918,-20, -4, -2, 1, -1, 0, -2, -5, 0
1503510973941,12, 3, 4, -1, 0, 0, -1, 2, 0
1503510973956,26, 3, 0, -2, 0, -1, 1, 0, 0
1503510973978,0, -2, -1, 0, -2, 0, 1, 0, 0
1503510974002,-7, -2, -2, -1, -2, -1, 0, -2, 0
1503510974016,-12, -9, 0, -2, 0, -1, -2, 1, 0
1503510974039,-5, -1, -1, 2, 0, -1, 0, -1, 0
1503510974061,-3, -5, -1, -3, 0, 0, -1, 1, 0
1503510974076,-24, -1, -3, -2, 0, 0, -1, -1, 0
1503510974098,4, -4, 1, 0, -1, 1, -1, -1, 0
1503510974106,-13, -6, -5, -2, -1, -2, 0, -5, 0
1503510974128,3, -5, 0, 1, 1, -2, -3, 2, 0
1503510974150,17, 5, 2, -1, -1, -2, -3, 1, 0
1503510974166,-10, -2, 0, -1, -2, -2, 0, -1, 0
1503510974188,-10, -3, -2, 0, 1, 0, 1, -3, 0
1503510974212,3, -2, -1, -2, 1, 2, 1, 3, 0
1503510974219,4, 3, 0, 3, 0, -1, -1, 2, 0
1503510974241,1, 13, 5, 0, -1, -1, -1, -1, 0
1503510974256,0, 14, 7, 1, -1, -1, -4, -7, 0
1503510974279,-10, 16, -2, -4, 0, -1, -1, -1, 0
1503510974304,0, -11, -3, 0, 0, -1, 0, 1, 0
1503510974324,6, -6, 1, 0, -1, 0, 0, 1, 0
1503510974339,0, -8, -3, -1, -2, -3, -2, -5, 0
1503510974361,10, -12, -5, -1, -1, -1, -1, 2, 0
1503510974384,3, -17, -7, -1, 1, 0, 0, 1, 0
1503510974398,-2, -14, -8, -2, -1, 0, -1, -2, 0
1503510974421,-12, 4, 4, -1, -3, -3, -3, -6, 0
1503510974444,-14, -3, -3, -2, -2, -3, -6, -14, 0
1503510974458,11, -3, -2, 0, 1, 2, 4, 9, 0
1503510974481,3, 1, -2, -1, 0, 2, 0, 1, 0
1503510974506,-4, 3, 1, -2, 1, -1, -1, -4, 0
1503510974519,0, 3, 1, -2, -1, -2, -6, -5, 0
1503510974541,2, 1, 1, -1, 2, 2, 2, 5, 0
1503510974563,13, -1, -4, -17, -1, -1, 1, 7, 0
1503510974578,1, 4, 2, -10, -1, 0, -2, 1, 0
1503510974593,0, -2, -2, -9, -5, -2, -1, -4, 0
1503510974609,2, 33, 16, -6, 2, 1, 1, 4, 0
1503510974630,9, -17, -9, -6, -1, -2, -3, -3, 0
1503510974653,5, -5, -4, -6, -1, 0, -1, 5, 0
1503510974670,11, -8, -4, -5, 0, -1, 0, 1, 0
1503510974691,-4, -4, -1, -12, 0, 1, 1, 0, 0
1503510974714,-2, -6, -11, 1, -2, -5, -3, -1, 0
1503510974736,7, -2, -4, 3, 0, 0, 1, 0, 0
1503510974752,-10, 5, 4, -3, -2, 1, 2, -1, 0
1503510974774,-1, -11, -3, -7, 0, -1, -5, -8, 0
1503510974797,5, -13, -5, -3, -1, 0, -3, -1, 0
1503510974811,-9, 8, 8, -1, -3, -2, 1, -4, 0
1503510974834,-18, -3, -2, 0, 1, 1, 1, 0, 0
1503510974856,2, -5, 2, 1, 0, -1, -1, 1, 0
1503510974873,13, 5, -3, 0, -1, 1, 2, 2, 0
1503510974894,0, 1, 1, -2, -1, -1, -1, -1, 0
1503510974917,-3, -9, -5, -2, 2, 0, -1, 2, 0
1503510974931,-26, -1, -3, -1, -2, -2, -1, 2, 0
1503510974954,8, -2, -1, -1, -1, -2, -1, -1, 0
1503510974978,3, 0, -4, -1, 0, 1, 2, 2, 0
1503510974999,-9, -16, 3, 0, -2, -2, -2, -3, 0
1503510975014,19, 8, -2, -1, -1, -3, -2, 0, 0
1503510975036,10, 2, -5, -1, 0, 1, 1, 1, 0
1503510975051,-3, 3, -3, -4, -2, -5, -4, -4, 0
1503510975076,-16, -4, 1, 0, -1, 0, -1, 1, 0
1503510975097,4, 13, 2, 0, 2, 0, 1, 0, 0
1503510975112,-2, -11, -3, -3, -2, 0, -2, -5, 0
1503510975134,0, 16, 11, 3, 1, -1, -1, -1, 0
1503510975156,-7, -15, -4, 1, -1, -1, -1, -3, 0
1503510975180,13, 5, 2, 0, -1, -4, -1, 0, 0
1503510975201,-1, 1, -3, -2, -2, -1, 0, -3, 0
1503510975223,6, -3, -3, -1, -1, 0, 0, 3, 0
1503510975246,6, 6, 5, 1, -1, 0, -1, 2, 0
1503510975261,14, 6, -2, -1, 0, -1, 1, 5, 0
1503510975283,-1, -7, -1, -2, 0, 0, -2, -2, 0
1503510975306,-4, -6, -3, -1, -2, -1, 0, -4, 0
1503510975321,-18, -5, -2, -1, -1, -1, -3, -2, 0
1503510975345,-2, 4, -2, 0, -2, -1, 0, -5, 0
1503510975366,9, 2, 0, 0, -1, -1, 1, 1, 0
1503510975381,-6, 3, 3, 0, 1, -1, 0, 0, 0
1503510975403,-6, -10, 1, 1, -1, 0, -2, -4, 0
1503510975426,-3, 21, 15, 1, 0, -2, -1, -1, 0
1503510975441,12, -1, -2, -1, 0, 0, 1, 3, 0
1503510975463,3, 2, -6, 0, -3, -2, -2, -1, 0
1503510975487,9, 0, -1, -2, -2, 1, 0, 2, 0
1503510975501,0, -9, -8, 1, 0, 0, 0, -1, 0
1503510975523,-5, -11, -10, -3, -2, -1, -2, -4, 0
1503510975546,8, -7, -1, 0, 1, 0, 1, 0, 0
1503510975561,13, 3, -2, -3, -2, -2, 0, 1, 0
1503510975583,-5, -9, 0, -1, 1, -1, -2, -3, 0
1503510975606,-2, 9, 5, 1, 0, -1, -1, -2, 0
1503510975621,-9, 27, 16, 3, 1, 3, 0, 1, 0
1503510975646,1, -1, -6, -3, -1, -2, -1, -5, 0
1503510975651,-18, 2, -1, -3, -1, -2, -2, -2, 0
1503510975674,-6, -6, 0, 1, -3, -2, -3, -7, 0
1503510975696,14, -2, -5, -3, -1, -1, 0, 1, 0
1503510975714,-14, -3, 0, -1, 1, 1, -1, -1, 0
1503510975734,-14, 2, 4, -1, -2, 0, -1, -3, 0
1503510975757,-8, -8, -5, 0, -1, -2, -3, -2, 0
1503510975773,-6, -7, -7, -2, -3, -2, -3, -4, 0
1503510975794,17, -4, 0, -1, 0, -3, 1, 2, 0
1503510975817,-31, 1, 3, 0, -2, -1, -4, -11, 0
1503510975831,12, 1, -3, -3, -1, -1, 0, 1, 0
1503510975854,-38, -1, 1, -1, 1, -1, -3, -7, 0
1503510975878,5, 0, -3, 1, 0, 1, 1, 2, 0
1503510975891,0, -10, -3, 1, 0, -1, -1, 1, 0
1503510975917,14, 4, 3, 0, 1, 1, 0, 6, 0
1503510975936,7, 15, 1, -2, 0, 0, -1, -5, 0
1503510975952,-22, 2, -3, 0, -1, -1, 2, 6, 0
1503510975974,12, -7, -2, 0, -2, -5, -2, 3, 0
1503510975996,-8, 17, 8, 1, 0, 0, -2, -7, 0
1503510976011,9, -9, -6, -2, 0, 0, 0, 2, 0
1503510976034,17, 9, 7, 1, 0, -1, 3, 3, 0
1503510976057,6, -2, -2, 1, 0, 0, -1, -3, 0
1503510976071,13, 1, -2, -2, -1, -1, 0, 3, 0
1503510976094,-9, -8, -2, 0, -2, -2, 1, -3, 0
1503510976117,1, -17, -7, -3, -1, -1, -4, -4, 0
1503510976131,-39, -9, 2, 1, 0, 0, 0, -2, 0
1503510976155,10, 0, 0, -2, -1, 0, 1, 2, 0
1503510976176,23, 8, 5, 3, -1, -3, -2, -4, 0
1503510976198,8, 0, -2, -2, 0, -1, -4, -7, 0
1503510976214,-26, -4, -1, -2, -1, 3, 1, 0, 0
1503510976236,12, 4, -2, -1, -2, -2, -1, 4, 0
1503510976259,28, 10, 2, -4, -1, -2, -3, 0, 0
1503510976284,18, -1, -1, -1, -1, -2, 0, 0, 0
1503510976296,-6, -6, -2, 0, -1, 0, -1, 1, 0
1503510976319,-25, 0, -2, -3, 0, -1, 0, 1, 0
1503510976334,9, -2, 0, 0, -1, -2, 1, 5, 0
1503510976356,-3, 1, -3, 0, 1, 0, 3, -4, 0
1503510976378,-13, -7, -6, 0, -1, 0, 1, -2, 0
1503510976394,-9, -6, -1, 0, 1, 0, -2, 2, 0
1503510976419,5, 1, 0, 0, -1, -1, 0, 2, 0
1503510976438,-12, 0, 1, -2, -3, 0, -3, -10, 0
1503510976454,-14, 1, 1, 0, 0, -1, -2, 1, 0
1503510976476,-9, 1, -1, -1, -1, -2, -3, -8, 0
1503510976498,12, -6, 0, -3, -1, -2, 0, 4, 0
1503510976514,4, -1, 0, 0, 0, 1, 1, 0, 0
1503510976536,14, -4, -2, 2, 0, 1, 4, 7, 0
1503510976559,-44, -6, 1, -2, -3, -2, -1, -9, 0
1503510976574,-27, 1, 15, 4, 1, -1, -1, -15, 0
1503510976597,-9, 4, -5, -1, -2, -1, -2, -2, 0
1503510976620,6, -1, -5, -2, -2, -3, -5, -2, 0
1503510976634,9, 12, 4, 1, -1, -1, 0, 7, 0
1503510976656,15, 5, -4, -2, -3, -1, 0, 1, 0
1503510976678,38, 2, -1, -2, 0, 0, -3, 2, 0
1503510976694,12, 13, 0, -2, -2, -2, -2, 1, 0
1503510976717,-27, -11, -4, 0, 1, 1, -1, -2, 0
1503510976724,20, 9, 0, 0, -2, -1, 0, -2, 0
1503510976746,6, -7, -5, -4, -2, -1, 0, 2, 0
1503510976768,-28, -10, -6, -3, -2, 0, 3, 6, 0
1503510976784,5, -12, -2, 0, 1, 1, 4, 8, 0
1503510976806,9, 9, 5, 23, -1, -4, -2, 2, 0
1503510976829,1, 9, 0, -10, -2, -2, -2, -5, 0
1503510976843,1, 1, -1, -1, 1, 1, 2, 1, 1
1503510976866,-1, -9, -2, -1, -1, 0, 0, 5, 1
1503510976889,-1, 16, 9, -3, 1, -2, 0, -8, 1
1503510976903,9, -3, -4, -4, -1, -1, 1, -2, 1
1503510976926,-7, 4, 0, 9, 0, 0, -1, -4, 1
1503510976948,-5, -1, 0, -2, 17, -26, -11, -7, 1
1503510976964,-9, -1, 2, -2, -7, 5, -1, 5, 1
1503510976986,1, 2, 3, -3, 2, 2, -1, -5, 1
1503510977008,-31, -20, -5, -4, -6, 0, -5, -11, 1
1503510977023,9, -3, -5, -3, -4, 4, 1, 2, 1
1503510977046,24, 8, 5, 3, -3, 5, 2, 4, 1
1503510977068,-32, 11, 1, -4, 0, 1, -2, 0, 1
1503510977083,21, -7, -8, -2, -1, -1, 1, 1, 1
1503510977106,-4, 0, 1, 0, 0, -2, -3, 5, 1
1503510977129,-2, 0, -2, -2, 0, 7, 10, 9, 1
1503510977150,-23, -10, 1, 0, -2, -1, -4, -14, 1
1503510977160,37, 8, 1, 2, 1, -2, 0, 12, 1
1503510977181,-35, -16, -8, -4, -1, 2, -2, -18, 1
1503510977197,-74, -14, -3, 0, 4, 0, -6, -55, 1
1503510977219,21, 3, 0, 0, -1, 4, 13, 40, 1
1503510977241,-2, 5, 1, -2, -2, -3, 4, -11, 1
1503510977259,27, 8, -1, -3, -2, -3, -7, 22, 1
1503510977279,11, -32, -5, 2, 0, 1, -2, 9, 1
1503510977301,65, 15, 5, 0, -2, -1, -3, -17, 1
1503510977316,1, -4, 1, 2, 3, 1, 5, 22, 1
1503510977331,33, 22, 2, -1, -1, 0, 1, 9, 1
1503510977346,-9, -10, 2, 0, 0, 3, 1, 37, 1
1503510977368,23, 5, 0, -1, -4, -3, -1, 26, 1
1503510977393,6, 36, 5, -2, -1, -3, -6, -19, 1
1503510977406,-10, 1, 0, 0, -1, 0, 1, -1, 1
1503510977429,-18, 0, -2, -2, -2, -2, -5, -17, 1
1503510977437,8, -10, -2, -3, -3, -4, 1, 20, 1
1503510977461,-1, -12, -4, -2, -1, -3, -14, -33, 1
1503510977481,12, 9, 3, -1, 1, 2, 2, 3, 1
1503510977498,3, 5, 1, 1, 0, 0, 1, -8, 1
1503510977519,-20, -2, 0, -4, -2, -4, -1, 5, 1
1503510977541,2, -6, -1, -9, -1, 0, 1, -5, 1
1503510977564,6, 5, 4, 31, 9, 1, -1, 5, 1
1503510977579,14, 0, -5, -21, -3, -2, -1, -4, 1
1503510977601,7, 0, 1, -7, -2, -3, -5, -4, 1
1503510977616,-23, -12, -2, 6, -1, 1, 0, -6, 1
1503510977639,-3, 4, -1, 2, -3, -1, -2, 0, 1
1503510977662,0, 0, -2, 18, 0, 0, -1, -2, 1
1503510977676,15, 3, -2, -8, -3, 0, 0, -2, 1
1503510977700,-21, 9, 0, -5, 2, 3, 2, 8, 1
1503510977721,-3, 3, 5, 1, -2, -3, -2, -7, 1
1503510977736,-3, -3, -2, -5, 0, 0, -2, 5, 1
1503510977761,4, -13, -3, -3, 0, 0, -4, 2, 0
1503510977781,29, 9, 9, -1, -1, 0, 1, -8, 0
1503510977797,-30, -19, -6, -2, -1, -8, -6, -7, 0
1503510977819,-5, -3, -6, -2, -3, -1, 0, 4, 0
1503510977841,4, 14, 4, -1, -4, -5, -7, -11, 0
1503510977856,-27, -29, -13, -3, 1, 2, 7, 3, 0
1503510977879,-19, 5, -5, -3, -2, 0, -2, -29, 0
1503510977901,-14, 13, 5, 0, -2, -3, -1, 1, 0
1503510977908,-55, -21, -3, -2, -3, -4, -11, 27, 0
1503510977932,-52, -11, 0, 0, 1, 1, 3, 0, 0
1503510977946,-31, -30, -6, -2, -2, -3, -3, -24, 0
1503510977969,-3, -13, -6, -2, -1, 0, -1, -19, 0
1503510977991,-19, -7, -3, -3, -1, 2, 1, -17, 0
1503510978006,0, 14, 1, -2, -2, -3, -4, -13, 0
1503510978029,-2, -7, -1, 0, -2, -1, 5, 15, 0
1503510978051,5, 2, 5, -2, -3, -2, -3, 6, 0
1503510978073,20, -4, -7, -2, -1, -3, -3, -8, 0
1503510978088,11, -6, -3, 1, -1, 0, -1, 7, 0
1503510978111,-15, -15, -1, -1, 1, 1, 2, -9, 0
1503510978133,5, 0, 0, 3, 1, 2, 0, 0, 0
1503510978148,-21, -8, -4, -1, -1, 0, -2, -10, 0
1503510978172,8, 12, 3, 1, 0, -1, 1, 8, 0
1503510978192,23, 0, -4, -4, -1, 0, 0, 5, 0
1503510978208,12, -4, 0, 1, 2, 0, 0, 0, 0
1503510978232,-4, 17, 10, 0, -1, -2, -4, -5, 0
1503510978252,-2, -7, -6, -1, -2, -1, 0, -8, 0
1503510978269,-8, -5, -1, 0, -2, -3, -4, -3, 0
1503510978290,-8, -6, -4, 0, -2, -1, -1, -4, 0
1503510978312,14, 4, -1, -2, 0, 0, 3, 4, 0
1503510978321,10, 3, -2, -1, -2, -1, 2, 4, 0
1503510978343,-4, -3, -3, 0, 0, -4, -2, -3, 0
1503510978359,-24, -11, -7, -4, -1, 3, 0, -7, 0
1503510978381,0, 5, 5, 1, -1, 0, 0, 4, 0
1503510978404,-6, -1, -2, -3, -1, -1, -3, -6, 0
1503510978419,-30, 5, -2, 0, 1, 0, -2, 1, 0
1503510978441,3, -3, -2, -2, -1, -2, 0, -2, 0
1503510978467,-11, -1, 1, -1, -1, -2, 0, 1, 0
1503510978479,13, -3, -3, -2, 0, 1, 0, 2, 0
1503510978501,-10, -4, -2, -1, -1, 0, 0, -1, 0
1503510978523,8, 4, 4, 3, -2, 0, -3, -7, 0
1503510978539,11, 2, -5, -3, 1, 0, -2, 1, 0
1503510978561,-4, -4, -4, -2, -3, -1, 2, 5, 0
1503510978583,12, -1, 3, 0, -1, -4, -3, -1, 0
1503510978601,6, 12, 2, 0, 0, 1, 0, -2, 0
1503510978621,3, -6, 2, 5, 0, -3, -2, -1, 0
1503510978643,-11, -4, 0, 1, 2, -1, -3, -3, 0
1503510978659,11, 4, -2, 1, 0, 1, 0, 4, 0
1503510978681,17, 8, -4, -3, -1, -4, 0, -2, 0
1503510978709,-3, -8, -4, -1, -1, 0, -3, -5, 0
1503510978719,-12, 0, 2, -3, -1, 1, 4, 1, 0
1503510978741,5, -6, -4, -1, -1, -1, 2, 2, 0
1503510978763,-7, 5, 12, 4, -1, -3, -4, -3, 0
1503510978780,-9, -19, -9, -4, -1, -2, -3, -1, 0
1503510978793,10, -2, 2, 0, 0, -1, 0, -1, 0
1503510978815,13, 2, 2, 1, 1, 2, 2, 4, 0
1503510978838,-2, 8, 3, 0, 0, -1, -2, -3, 0
1503510978853,34, 6, 4, 6, -1, -4, -3, 1, 0
1503510978872,-43, -7, -3, -2, -3, -2, -3, -1, 0
1503510978891,-7, -1, -6, -5, -3, 0, -3, -2, 0
1503510978913,8, -4, 1, 1, 0, 2, 1, 0, 0
1503510978928,-9, 0, -2, 0, -1, 0, -1, -5, 0
1503510978951,5, 1, 2, 1, 2, -1, 0, -2, 0
1503510978974,9, 7, 2, 4, 1, -3, -2, 2, 0
1503510978995,-14, -9, -2, -3, -3, -1, 0, 1, 0
1503510979011,18, -10, -9, -1, -3, 0, -1, -4, 0
1503510979032,-5, -5, 1, 0, 2, 1, -2, -7, 0
1503510979055,8, -2, -4, -3, -2, -1, 0, 3, 0
1503510979071,3, 3, 0, 0, 1, -1, -2, 0, 0
1503510979093,0, -2, -3, 0, -1, -2, -1, -1, 0
1503510979115,-2, -3, 0, -2, 0, -1, -2, -2, 0
1503510979131,8, 7, -10, -2, -1, 0, 0, -1, 0
1503510979152,2, -5, 0, 0, -1, -1, -2, -1, 0
1503510979175,-13, -4, 0, -3, -2, -2, 1, 2, 0
1503510979191,8, 3, 0, -1, 0, -1, 1, 8, 0
1503510979213,15, 16, 4, 0, 1, 2, 5, 4, 0
1503510979235,-1, 37, 2, -2, -1, 0, -2, 5, 0
1503510979251,-29, -21, -5, -4, -2, -1, -3, -12, 0
1503510979273,9, 3, 5, 3, 1, -2, 0, 3, 0
1503510979295,-5, -8, -1, -1, -2, -2, -2, -4, 0
1503510979311,7, -4, 1, 1, -2, -1, 0, 2, 0
1503510979332,-8, -8, 0, -1, 0, 1, -2, -6, 0
1503510979355,-7, -2, 1, 1, 0, -2, -1, -1, 0
1503510979375,0, 0, -5, -2, -2, 1, 3, 2, 0
1503510979392,3, -3, -1, 0, -1, -1, -2, -4, 0
1503510979415,-2, 2, 3, 2, 2, -2, 0, -2, 0
1503510979431,13, -7, -6, -8, -2, 1, 0, 1, 0
1503510979452,15, 2, 0, 4, -1, -2, -1, 2, 0
1503510979475,-10, -4, -3, -3, -1, 0, 0, -2, 0
1503510979490,-5, -6, -2, -2, 0, 0, 0, 1, 0
1503510979512,-6, 18, 2, -1, 0, 0, -1, 0, 0
1503510979535,-7, -10, -2, -5, 0, -1, -1, -3, 0
1503510979550,7, -10, -5, -2, 0, 0, -1, -2, 0
1503510979574,-24, -1, -1, 0, -1, -1, -2, -5, 0
1503510979595,-17, 5, 1, 1, -2, -2, 0, -3, 0
1503510979611,2, 0, 1, 4, -1, -1, -4, 1, 0
1503510979626,-20, -11, -4, -3, -1, 0, -1, -2, 0
1503510979641,0, 7, 2, 1, -2, -1, -2, -1, 0
1503510979663,27, 21, 13, 10, 0, 0, 0, 3, 0
1503510979686,4, -11, -9, -11, -3, -4, -2, -4, 0
1503510979701,5, -13, -7, 0, -2, -2, -4, -4, 0
1503510979723,11, 6, 2, -1, 0, -2, -1, 4, 0
1503510979746,-8, -2, 0, -1, -1, 0, -2, -2, 0
1503510979761,-2, 13, 3, -3, 1, -1, -3, -1, 0
1503510979783,-6, 9, 2, 1, -2, 0, 5, 7, 0
1503510979791,-2, -1, -6, -6, -3, -1, -6, -9, 0
1503510979813,-2, -4, -4, -2, -2, 1, -2, 3, 0
1503510979835,7, 18, 5, 1, 0, -4, -3, 1, 0
1503510979851,-3, -6, -3, -2, 0, -1, 1, -2, 0
1503510979872,0, 3, -2, -4, -4, 1, 1, -1, 0
1503510979895,12, 4, 2, 2, 0, -2, -1, 0, 0
1503510979918,-15, -29, -10, -3, 0, 0, 0, -5, 0
1503510979926,9, 1, 0, 0, 0, -1, -1, -2, 0
1503510979933,-3, -9, -2, 1, -2, 1, 0, -2, 0
1503510979956,5, -1, -3, -1, 0, -1, -1, -1, 0
1503510979983,-3, 1, 3, 1, -1, -2, -4, -1, 0
1503510980001,-15, -4, -2, 1, 0, -2, 1, -1, 0
1503510980017,-8, -22, -12, -4, -1, 1, -2, -2, 0
1503510980039,-12, -4, -1, -3, -2, -2, -3, -11, 0
1503510980054,4, -2, -1, -2, 1, -1, 0, -2, 0
1503510980079,3, 8, 1, 0, -2, -2, -1, -1, 0
1503510980098,-5, 3, 3, 1, -2, -1, 2, 0, 0
1503510980121,-8, 4, 4, 0, 1, 1, -2, -1, 0
1503510980137,16, 6, 3, 1, -1, 1, 1, 7, 0
1503510980159,-1, -21, -8, -1, 0, 1, 2, 0, 0
1503510980174,-16, -1, -5, -3, -1, -1, 0, -2, 0
1503510980196,-17, 19, 9, -2, 0, -1, -1, 3, 0
1503510980219,3, -3, 0, -2, 1, 0, 1, 1, 0
1503510980234,7, -4, -2, -2, -2, 0, -1, -3, 0
1503510980256,5, -4, -2, 0, -2, -2, -1, -1, 0
1503510980281,-43, 6, 5, 1, -2, -2, -5, -13, 0
1503510980293,2, 32, 5, -1, 1, 0, 3, 2, 0
1503510980308,5, 2, 2, 0, 0, -1, -1, 0, 0
1503510980323,8, -10, -2, -1, -1, -3, 0, -4, 0
1503510980346,-4, 3, 2, -1, 0, 0, -1, 0, 0
1503510980368,-2, 10, 2, 0, -1, 0, -2, -2, 0
1503510980383,-8, -9, -1, -1, 0, -2, -1, -4, 0
1503510980405,-14, 14, 4, 0, -1, 0, 2, 2, 0
1503510980428,13, 6, -7, -2, -2, 1, 1, 3, 0
1503510980443,4, -19, -12, -1, -2, 0, -1, -1, 0
1503510980465,-8, -3, -1, -2, 0, -1, -3, -5, 0
1503510980488,-7, -2, 1, 0, 0, -1, -1, -1, 0
1503510980503,11, -15, -4, 0, -1, -1, 1, 5, 0
1503510980525,4, 3, -4, -1, -1, -2, -2, -6, 0
1503510980534,-1, -9, -1, -3, -1, -1, -2, -2, 0
1503510980556,-17, 0, 2, 0, -2, -2, -2, -9, 0
1503510980580,17, -12, -6, -3, 0, 0, 1, 3, 0
1503510980593,-4, 4, 2, 0, -2, -2, -1, -2, 0
1503510980608,0, 2, 0, 0, 0, 0, -3, 0, 0
1503510980623,-12, -3, -2, -3, 0, -1, -2, -4, 0
1503510980647,-17, -12, 3, 0, 0, -1, -1, -3, 0
1503510980668,23, 22, 4, -2, -1, 1, 1, 3, 0
1503510980683,5, 3, -2, 1, -1, -1, -1, 1, 0
1503510980706,-2, 15, 7, -1, 0, -1, 0, 0, 0
1503510980728,-1, 3, 0, 1, -1, 0, -3, -3, 0
1503510980743,-6, -11, -8, 0, -1, 0, -2, -2, 0
1503510980765,-26, -12, 0, 1, -2, -1, -2, -6, 0
1503510980782,-4, -6, 3, 0, 0, -1, -2, -2, 0
1503510980789,-8, 18, 4, -1, -1, 1, 0, 2, 0
1503510980803,-21, 0, 6, -1, -2, -3, -1, -7, 0
1503510980826,6, -6, -3, 0, 0, -2, -1, -1, 0
1503510980849,4, 36, 6, 1, -1, 0, 0, 4, 0
1503510980871,-9, -31, -8, -2, -2, -2, -2, -9, 0
1503510980886,-1, -5, 0, -1, -1, -2, 1, 0, 0
1503510980908,1, -10, -4, 0, 1, 1, -2, 2, 0
1503510980931,2, -2, -3, -4, -2, 0, -1, 0, 0
1503510980946,5, 2, 3, 0, -1, 1, 0, 1, 0
1503510980968,-15, -9, -5, -1, -2, -3, 1, 2, 0
1503510980991,11, 1, -7, -1, -2, -1, -1, 2, 0
1503510981005,6, 9, 3, 0, -1, 0, -2, 0, 0
1503510981028,1, -1, -1, -3, -3, 0, 0, -3, 0
1503510981051,2, -23, -4, -1, 0, -2, -2, -4, 0
1503510981065,16, 2, -1, 0, -2, -1, -2, 1, 0
1503510981081,-12, 14, -2, -2, -3, 0, -1, 0, 0
1503510981096,-11, 1, -1, -1, -2, -1, -3, 0, 0
1503510981118,-11, 3, -2, -3, -1, 1, 0, 1, 0
1503510981126,-11, 11, 6, 0, 0, 0, -1, -3, 0
1503510981151,4, -3, 0, 0, 0, 0, 0, 1, 0
1503510981170,-12, -11, -1, 0, -2, -1, -1, -5, 0
1503510981186,2, -2, 2, 1, 1, 1, 1, 2, 0
1503510981208,-9, -3, -7, -5, -3, -2, -3, -1, 0
1503510981231,-10, 13, 4, -1, -1, -2, -1, 0, 0
1503510981246,14, -3, 0, 0, 1, -2, -1, 2, 0
1503510981268,-16, 5, -4, -3, 1, -1, -1, -6, 0
1503510981291,8, 0, -1, 0, -2, -1, -2, -2, 0
1503510981305,-16, 1, -2, 0, 0, 0, -1, -3, 0
1503510981328,4, -4, 2, 0, 0, -1, 1, 0, 0
1503510981353,-17, -10, -2, 1, -3, 0, 0, 0, 0
1503510981365,11, -2, -2, 0, -1, -2, -1, 0, 0
1503510981388,-9, -9, 1, -1, 0, -2, -3, -6, 0
1503510981410,5, 9, 5, -1, -1, -2, -2, -2, 0
1503510981420,-12, -10, -1, -2, -1, 0, 0, -3, 0
1503510981440,-35, -11, -2, -1, -2, -2, 0, -3, 0
1503510981456,11, 10, 1, -1, 0, 0, -1, 1, 0
1503510981478,-6, -1, -1, 0, -1, -1, -3, -4, 0
1503510981501,12, 15, 0, -1, -2, -2, -2, 1, 0
1503510981516,-59, -13, -4, -1, 0, -1, -2, -4, 0
1503510981539,1, -6, 3, 1, 0, 0, 0, -2, 0
1503510981562,6, 9, 2, 0, -2, -2, -4, -6, 0
1503510981576,11, 9, 5, -2, -1, -1, 0, -1, 0
1503510981598,12, -11, -2, -1, -2, -1, 0, 1, 0
1503510981622,14, -2, -2, 0, -2, 0, 0, 2, 0
1503510981636,3, -9, -7, -3, -2, -1, 0, 2, 0
1503510981659,4, -4, -2, -1, -2, 0, 0, 5, 0
1503510981681,9, 3, 6, 2, -1, -1, -1, -5, 0
1503510981697,-2, -23, -7, -2, 1, -1, 0, 1, 0
1503510981719,1, -3, 1, 1, -1, -1, 1, 1, 0
1503510981741,21, 5, -3, -1, 0, 0, 0, 1, 0
1503510981764,-9, -4, 5, 0, 0, -1, 1, -1, 0
1503510981779,3, 10, 2, -1, -1, -2, 0, -1, 0
1503510981801,-11, -8, -7, -1, -2, -3, -3, -4, 0
1503510981824,7, 18, 4, -1, 0, 2, 1, 1, 0
1503510981839,12, -10, -4, -1, 0, 0, -1, -1, 0
1503510981861,-9, -1, -2, 1, 0, -2, -2, 1, 0
1503510981883,-15, -3, -1, 1, -1, -1, 0, -4, 0
1503510981900,-11, -1, -1, -2, -2, -2, -1, -1, 0
1503510981924,1, 4, 0, -1, -2, -1, -4, -4, 0
1503510981944,1, -5, 1, 2, -1, 0, 0, 1, 0
1503510981959,35, 11, -4, 0, -2, 0, 2, 2, 0
1503510981981,-5, -11, -4, -1, 0, 0, -2, -3, 0
1503510982003,9, 14, 9, 1, 2, 0, 1, 0, 0
1503510982018,-15, 0, -4, -3, -1, -2, 0, -2, 0
1503510982041,-13, -7, -4, -2, -1, 1, 0, 0, 0
1503510982063,10, 8, 2, -3, 0, -1, 0, 0, 0
1503510982078,-13, 10, -2, -1, 0, -2, -2, -1, 0
1503510982101,-1, -5, 1, -1, -1, -1, -1, 0, 0
1503510982125,-3, -7, -4, -1, -1, -2, -2, 2, 0
1503510982139,-2, -12, -3, 0, 0, -3, -4, -5, 0
1503510982161,-12, 0, 2, 0, -1, -1, -2, 0, 0
1503510982183,27, 0, -3, 1, -2, -1, 0, 2, 0
1503510982200,-6, 15, 5, -1, -1, 0, 1, -1, 0
1503510982221,4, -7, -3, -1, 0, 0, 1, 4, 0
1503510982243,2, -1, 0, 0, 0, 1, -1, -1, 0
1503510982259,-25, -2, 0, 0, -1, -1, -1, -2, 0
1503510982281,-8, 2, -1, -1, -2, 0, -1, -4, 0
1503510982303,12, -4, 1, 0, 1, 0, -1, -1, 0
1503510982319,-5, -3, -5, -1, -3, 0, -1, -1, 0
1503510982341,1, 11, -3, -3, -1, 1, -2, -2, 0
1503510982364,32, -10, -9, -1, -2, -1, 0, 1, 0
1503510982379,-10, -7, -1, -1, 0, -2, -1, -1, 0
1503510982401,-28, -8, -1, -1, -1, -2, -2, -2, 0
1503510982423,-15, -6, 4, 1, -2, -1, 0, -1, 0
1503510982438,-4, -3, -1, -1, 0, -1, 1, -2, 0
1503510982461,4, -7, 3, -2, -1, 0, 0, 1, 0
1503510982483,-20, -10, -5, -1, -1, -2, -3, -4, 0
1503510982500,-18, 2, 1, -2, -2, -1, 0, -3, 0
1503510982522,15, 1, -3, -1, 0, -1, -1, -1, 0
1503510982543,15, 4, -1, -1, -3, -1, -3, -2, 0
1503510982561,1, 0, 1, 0, 0, -1, -1, 1, 0
1503510982581,-13, 21, 5, 2, 1, -2, 2, 1, 0
1503510982603,-5, -2, -5, -2, -2, -1, -2, 2, 0
1503510982619,20, 0, -1, 1, 1, 0, 2, 3, 0
1503510982648,-4, -9, -1, 0, -1, 2, -3, -5, 0
1503510982664,-23, -13, -8, -1, -1, 0, -1, -2, 0
1503510982679,-8, -9, -2, -1, -1, -1, 0, -5, 0
1503510982702,7, 3, 0, -1, 0, -1, -1, -4, 0
1503510982723,-6, -4, -1, -1, 0, -1, 0, 1, 0
1503510982746,18, 2, -1, 1, 0, 0, 1, 2, 0
1503510982763,18, 1, 0, -1, 0, 0, -1, 2, 0
1503510982783,16, 4, -1, -2, 0, 0, 1, 4, 0
1503510982791,11, 23, 3, 0, -3, -1, -2, -6, 0
1503510982813,19, 1, -5, -4, -2, -2, -1, 5, 0
1503510982835,3, -3, -3, 0, 0, -1, 0, -1, 0
1503510982850,-19, -4, -2, 0, -3, 1, -1, -2, 0
1503510982873,-7, -8, -2, 2, 1, 1, 0, -5, 0
1503510982897,-18, -6, 3, -2, -1, -1, -1, -3, 0
1503510982911,3, -9, -3, 0, 0, -1, -1, 1, 0
1503510982934,18, 1, -1, -2, -1, 0, 0, 6, 0
1503510982955,-13, -8, -5, -3, 0, -2, -3, -8, 0
1503510982971,12, 0, 0, 0, 0, -1, -2, 3, 0
1503510982986,-18, 0, -3, -1, -1, 0, -1, -3, 0
1503510983002,1, 5, 0, 0, -1, -1, 0, 2, 0
1503510983023,36, -10, -4, 0, -1, 0, -3, -1, 0
1503510983046,4, 2, -3, -1, -1, -1, 0, 0, 0
1503510983061,2, 1, 1, 0, 0, 0, 0, -2, 0
1503510983083,-8, 4, 2, -2, -1, 1, -3, -2, 0
1503510983091,-9, -6, -4, -1, 0, -1, 0, -1, 0
1503510983113,21, -5, -3, -2, -3, -3, -4, -2, 0
1503510983138,-12, 5, 3, 1, -2, 1, 3, 3, 0
1503510983151,2, 4, 3, 0, 1, -1, -2, 2, 0
1503510983174,-3, 4, 6, -1, 0, -2, -1, 0, 0
1503510983195,17, -1, -4, -3, 0, -1, -1, 0, 0
1503510983211,-6, 3, -1, -1, -1, -2, -1, -1, 0
1503510983237,-23, -5, -2, -1, -1, -1, -2, -4, 0
1503510983255,-7, -3, -3, -1, 1, 0, -2, -2, 0
1503510983271,-9, -7, -3, 0, -1, -1, 1, -3, 0
1503510983293,2, 2, 1, 1, 0, -2, -2, -2, 0
1503510983315,24, -5, 1, 1, -2, 0, 3, 2, 0
1503510983336,6, -2, -2, -1, -1, 0, 0, 4, 0
1503510983353,-10, -7, -5, -2, -2, -1, -1, -5, 0
1503510983375,19, 12, -4, -1, -1, 0, 0, 3, 0
1503510983391,24, 3, 2, -1, -1, 0, -2, 3, 0
1503510983413,-17, -6, -1, -2, 0, -1, -1, -7, 0
1503510983436,-6, 2, 1, 1, -2, 0, 1, 1, 0
1503510983450,-37, 15, 6, -1, -1, -1, -1, -4, 0
1503510983473,36, -4, -3, -3, 1, -1, -1, 3, 0
1503510983495,-13, 0, 5, 1, -2, -2, -2, -2, 0
1503510983512,-15, -4, -3, -2, 0, -1, 0, -1, 0
1503510983535,16, -1, -2, -1, 0, 0, 1, 5, 0
1503510983555,-5, -16, -2, 0, 0, 1, -1, -6, 0
1503510983572,-6, -2, -2, -2, 1, -3, 0, 0, 0
1503510983586,-5, -2, -1, 1, 1, -1, -1, -3, 0
1503510983603,-7, 9, 0, 0, 0, -3, -1, -2, 0
1503510983623,-11, 8, 6, 0, -1, -2, -1, -2, 0
1503510983646,-17, -1, -5, -2, -1, -1, 0, -2, 0
1503510983670,12, 0, -5, -3, -1, -1, -3, -2, 0
1503510983684,-6, -7, -6, -2, -1, 0, 1, 0, 0
1503510983706,15, 0, -2, -1, -2, 0, 1, 3, 0
1503510983728,-14, -8, -7, -1, 2, 1, 0, 0, 0
1503510983744,14, 0, 0, 1, 0, -3, -5, -2, 0
1503510983758,-5, 5, 1, 0, -2, -3, -2, -5, 0
1503510983774,6, -5, -7, -3, -1, -2, -2, -1, 0
1503510983795,20, 0, -2, -2, -2, -3, 2, 3, 0
1503510983818,-3, -2, 1, 0, 0, -1, -1, 0, 0
1503510983833,11, -11, -6, -2, -1, 0, -2, -4, 0
1503510983855,1, -13, 8, 0, 1, 0, 3, 1, 0
1503510983878,10, 23, 5, 0, -1, -2, -4, -3, 0
1503510983893,-13, -4, -4, -1, 0, 0, -2, -5, 0
1503510983915,-3, 7, -1, -1, 0, 1, 0, -3, 0
1503510983939,-2, -4, -1, 0, -1, -1, -2, 0, 0
1503510983947,20, -12, -2, 0, -2, -1, -3, 0, 0
1503510983971,-24, -9, 8, 0, 0, 0, -1, -4, 0
1503510983983,2, -13, -1, 2, 0, 0, 1, -1, 0
1503510984006,7, -2, -3, -1, -1, -2, 0, -3, 0
1503510984028,-22, -5, 0, -1, -1, -1, 0, -1, 0
1503510984043,0, -6, -2, -2, 0, -1, 1, 1, 0
1503510984065,4, -4, -3, -3, -2, 0, -4, -1, 0
1503510984073,-19, -11, 7, 1, 0, -2, -1, -1, 0
1503510984095,8, 23, 4, 0, -1, -1, -2, 0, 0
1503510984118,-8, -11, -5, -3, 0, -1, -1, -1, 0
1503510984133,10, -2, -2, -2, -2, -1, -3, 1, 0
1503510984155,-23, -16, -9, -1, -2, -1, -2, -13, 0
1503510984177,8, 7, 6, -1, -1, -4, -1, 3, 0
1503510984193,17, -7, -5, -1, -1, 0, 1, 4, 0
1503510984216,28, 13, 6, 0, -1, 1, 0, 0, 1
1503510984242,2, -3, -2, 2, 0, -1, 1, 0, 1
1503510984253,5, -2, 0, 1, 0, 0, 0, 2, 1
1503510984276,-2, 6, -1, 0, -1, 0, 1, 8, 1
1503510984297,-17, -3, -5, -3, -1, 0, -1, -6, 1
1503510984313,-1, 6, 1, -2, -2, -1, -1, -4, 1
1503510984335,6, 0, -6, -2, -3, -1, 1, -1, 1
1503510984358,14, 19, 9, -1, -2, -3, -7, -6, 1
1503510984374,-1, -8, -5, -2, -2, 1, 1, 2, 1
1503510984395,-11, -4, -1, 1, -1, -1, -1, 0, 1
1503510984418,-3, -8, -6, -4, 0, 1, 1, 0, 1
1503510984433,11, 4, 3, 1, -1, -3, -1, -1, 1
1503510984455,-11, -12, -4, 1, 3, 1, 1, -3, 1
1503510984478,-11, -1, 0, -3, -2, 0, 0, -3, 1
1503510984486,14, 0, 0, -2, -1, 1, -2, -13, 1
1503510984510,1, -3, -2, -1, -1, -3, -1, 0, 1
1503510984523,-1, -1, -1, -2, 2, -1, 0, 6, 1
1503510984546,22, 16, -6, -5, -2, 1, -2, -2, 1
1503510984568,1, -8, 1, 2, 0, -3, -2, -7, 1
1503510984590,3, 0, 2, -1, 0, -1, 0, 0, 1
1503510984605,14, 2, 0, 5, 16, -1, -4, -3, 1
1503510984620,-10, -3, 3, 0, -5, -4, 0, 3, 1
1503510984635,-18, -5, -1, 1, 0, 1, -2, 1, 1
1503510984657,-10, -3, 3, 2, 4, -1, 0, -3, 1
1503510984681,2, 18, 20, 6, 5, 0, 0, 2, 1
1503510984695,10, -4, -15, -2, -3, -2, -3, -4, 1
1503510984719,-28, -22, -7, -3, 1, 0, 4, 5, 1
1503510984743,3, 3, -1, 0, -3, -4, -2, -2, 1
1503510984749,-10, 0, 3, 2, 3, 1, 2, 1, 1
1503510984771,20, -2, 1, -5, -4, -1, -2, 19, 1
1503510984786,-7, 4, -1, 6, 11, 6, -4, -12, 1
1503510984810,-48, -7, -4, -6, -15, -7, -2, -3, 1
1503510984830,28, -5, -2, -2, -9, 0, 0, -7, 1
1503510984846,-2, -1, -3, 6, 28, 8, 2, -13, 1
1503510984868,-14, -4, -2, -4, -2, 2, 2, -32, 1
1503510984891,13, 2, -1, 0, 1, 2, 3, 9, 1
1503510984906,77, -4, -5, -3, -5, -5, -5, 17, 1
1503510984928,-22, 8, 2, -1, -14, -7, 0, 12, 1
1503510984951,-36, 2, -3, -1, 3, -2, 0, 0, 1
1503510984965,10, 3, -1, -6, -16, -3, -2, 5, 1
1503510984988,-27, -4, 0, -2, -3, -2, -3, -9, 1
1503510985012,29, 18, 7, -2, 1, -1, -4, 3, 1
1503510985026,-49, -9, -1, -1, 6, 1, 3, 18, 0
1503510985048,-9, -11, -3, 3, 2, -3, 2, -9, 0
1503510985072,11, 5, -3, -5, -8, -6, -7, -8, 0
1503510985086,11, -5, 4, -7, -29, 4, 4, 4, 0
1503510985108,-11, -6, 0, 0, 0, 0, -1, -1, 0
1503510985130,-10, -6, -7, 0, 4, -16, -10, -7, 0
1503510985146,36, -8, -3, 0, -3, 3, 1, -2, 0
1503510985169,10, 1, 3, 5, 11, 3, 3, 5, 0
1503510985176,1, -8, -3, -4, -13, 4, 2, -2, 0
1503510985206,-22, -3, -1, -3, -14, 0, 0, -5, 0
1503510985222,39, 10, 5, 0, -3, -1, -3, 3, 0
1503510985244,14, -4, -5, -1, -2, 1, 0, 0, 0
1503510985258,-8, 2, -7, -5, -3, -7, -5, -6, 0
1503510985265,-25, 16, 4, 0, 2, 0, -1, 1, 0
1503510985288,10, -11, -10, -4, -1, -3, -4, -6, 0
1503510985304,0, 2, 4, 2, -2, 0, 0, -4, 0
1503510985319,-34, -19, -6, -2, -3, -2, -4, -17, 0
1503510985341,3, 4, 1, 2, -1, -4, -1, 3, 0
1503510985363,-16, -4, -2, -3, -8, 5, -14, 7, 0
1503510985381,-14, 4, 3, -1, 4, 4, 6, -4, 0
1503510985401,12, 32, 7, -4, -2, -6, 0, 6, 0
1503510985424,23, -6, -5, 0, 0, 0, 2, 7, 0
1503510985439,10, 5, -1, -1, -3, 0, 2, -4, 0
1503510985461,-16, -19, -6, 0, 0, -2, 2, -3, 0
1503510985483,-1, -1, -1, 2, -2, -3, -1, -5, 0
1503510985498,-24, -2, 3, -2, -5, -5, 0, -3, 0
1503510985515,16, 1, -2, 3, 14, 1, 0, 3, 0
1503510985528,-11, 0, 19, -1, -5, -4, -6, -19, 0
1503510985551,10, 20, 0, -1, -1, 1, 1, -2, 0
1503510985574,41, -3, 0, -1, 0, 2, 1, 6, 0
1503510985588,25, -1, -5, -4, -5, 0, 0, 7, 0
1503510985604,-2, -6, -4, -2, 3, -1, 1, 2, 0
1503510985627,-1, 2, -2, -2, 0, 1, 0, 6, 0
1503510985641,-4, -1, 4, 2, -3, -3, -4, -7, 0
1503510985664,-1, 4, -3, -2, -2, 0, -1, 7, 0
1503510985679,-2, -9, -3, -1, 1, 1, 3, 0, 0
1503510985701,12, 0, -1, -2, -3, -5, -1, -15, 0
1503510985723,20, 2, -1, -3, 1, -1, -2, 2, 0
1503510985730,-6, 4, -3, -2, -1, 0, 4, 7, 0
1503510985753,-20, -3, -3, -1, -2, -3, -3, 0, 0
1503510985768,-4, -2, 0, -3, 0, -1, 2, -1, 0
1503510985791,4, 15, 7, 1, 0, 1, 1, 3, 0
1503510985813,32, -14, -8, 1, 0, -2, -4, 0, 0
1503510985828,-22, -14, -7, -4, 0, -1, -2, -3, 0
1503510985844,-1, -1, -1, -2, -1, -3, -2, 3, 0
1503510985859,-2, 0, 0, -2, 0, 1, 2, 2, 0
1503510985881,0, -1, -1, -1, 0, 0, -2, -4, 0
1503510985889,-1, -1, 0, 0, -1, -1, 2, 1, 0
1503510985911,-9, -1, -4, -4, -1, 0, -2, -3, 0
1503510985933,-31, -3, -1, -1, 0, 2, 1, 1, 0
1503510985948,4, -6, -3, -2, -2, 0, 0, 3, 0
1503510985970,-7, 0, -2, -2, -2, -5, -2, -4, 0
1503510985994,3, -1, -2, -1, 1, -2, -2, -6, 0
1503510986008,12, 3, 2, 1, -1, -3, -1, -3, 0
1503510986031,-6, 1, 0, 0, -1, 2, 1, 1, 0
1503510986054,3, 0, 1, 1, 1, 0, -2, -3, 0
1503510986068,-9, 4, 5, 2, 0, -1, -3, -5, 0
1503510986092,1, -4, -5, -5, 0, 3, 1, 2, 0
1503510986113,-28, 0, 5, 2, 1, -2, -2, -6, 0
1503510986129,25, -10, 1, 1, -1, -1, 0, 1, 0
1503510986153,10, 2, 0, -1, 1, 1, 1, 1, 0
1503510986173,9, 2, -3, -4, -2, 1, 1, 4, 0
1503510986189,13, 7, 3, 5, 0, -5, -3, 0, 0
1503510986211,-1, -4, -4, -1, -2, 2, 0, -1, 0
1503510986233,16, -6, -8, -4, -3, -1, -1, -3, 0
1503510986248,-12, -9, -6, -1, -1, 2, -1, -2, 0
1503510986270,0, 15, 5, 1, 0, -2, -1, 0, 0
1503510986293,6, -3, -1, -2, -3, -2, 0, -2, 0
1503510986301,6, 7, -2, 0, 1, 3, 2, 1, 0
1503510986324,8, 3, 2, -2, -2, -6, -3, -6, 0
1503510986346,-42, -11, -6, -2, -3, -2, -1, -7, 0
1503510986363,27, 4, -3, -2, -3, 0, 2, 8, 0
1503510986383,-7, 4, 3, 2, 1, 0, 1, -1, 0
1503510986406,-19, -9, -3, -1, -3, -3, -4, -4, 0
1503510986425,8, 0, 0, 1, 0, 0, 1, 2, 0
1503510986436,-1, -3, -1, -2, -2, -4, -3, -2, 0
1503510986450,2, 6, 9, 8, 4, -2, -2, 1, 0
1503510986473,2, -1, -3, -2, 1, -1, -1, -4, 0
1503510986496,15, -1, -3, -2, 0, 3, 3, 6, 0
1503510986526,-13, 25, -1, 1, 1, 1, -1, 4, 0
1503510986541,5, -9, -2, -1, -2, -2, -3, 0, 0
1503510986565,20, 0, 0, -3, 0, -2, 1, 6, 0
1503510986571,-4, -3, -1, 0, -1, -1, 0, 0, 0
1503510986595,-11, -5, -4, -3, -2, -1, -2, -3, 0
1503510986615,0, -8, -1, -1, -1, 0, 1, 0, 0
1503510986624,21, 64, 11, 0, 2, 1, -3, -1, 0
1503510986646,-3, -25, -5, 0, -1, 0, 2, 1, 0
1503510986661,-1, -9, -4, -4, -2, 0, -1, 3, 0
1503510986683,0, -5, -7, -4, -4, -3, -2, 0, 0
1503510986705,3, -5, -5, -3, -1, -2, -1, 3, 0
1503510986723,-1, -6, -2, -1, -1, -2, 1, 3, 0
1503510986743,3, -1, 2, 2, 1, 0, -1, -2, 0
1503510986767,-5, -11, -1, -1, 0, 0, -3, -3, 0
1503510986781,5, -3, -2, -2, 0, 0, 0, -1, 0
1503510986803,12, 0, 0, 0, 0, 0, 0, 3, 0
1503510986811,11, 0, -1, -1, 0, 0, 1, 3, 0
1503510986833,1, -1, -3, 2, -2, 0, 0, 2, 0
1503510986861,-6, 0, 0, 5, 0, -1, -1, 1, 0
1503510986871,-16, -6, -5, -14, -5, -2, -2, -6, 0
1503510986893,2, -4, -2, -2, 2, 0, -1, -1, 0
1503510986916,-22, -6, -2, -1, 0, 1, 0, -1, 0
1503510986946,1, 7, -6, -6, -3, -1, -1, -2, 0
1503510986961,0, -5, 0, -1, -2, -1, 1, 2, 0
1503510986975,-12, -5, -3, 2, -1, -2, -1, -4, 0
1503510986983,-7, -10, -4, -2, 0, 0, 1, -2, 0
1503510987006,0, -15, -7, -3, -1, -1, -2, -1, 0
1503510987021,-8, -12, -7, -4, -1, -1, 0, 3, 0
1503510987043,12, 15, 4, 3, 1, 1, 0, 1, 0
1503510987066,-8, 7, 5, 1, 1, -3, -3, -5, 0
1503510987081,-8, -1, 0, -1, -2, 1, 0, -2, 0
1503510987103,5, 1, 0, -1, 1, -1, 1, -2, 0
1503510987130,-14, -6, -2, -2, 0, 0, 0, -2, 0
1503510987134,9, 15, 5, 0, 0, -2, 0, -1, 0
1503510987155,-14, -15, -6, -3, -2, -1, -2, -1, 0
1503510987171,-4, -7, 2, 0, -1, 1, 0, -2, 0
1503510987193,-9, -5, -3, -1, -1, -3, -1, -2, 0
1503510987216,3, -11, -5, -2, 0, 1, 0, -2, 0
1503510987231,2, 7, 1, 1, 0, -3, 1, 2, 0
1503510987253,-8, 1, 0, 2, 0, -1, 0, -1, 0
1503510987275,-3, -11, 1, 0, -2, -2, -2, 1, 0
1503510987290,10, -10, -8, -3, -2, 2, -2, -6, 0
1503510987313,-34, 4, 1, -1, -1, -1, -3, -5, 0
1503510987336,13, 4, -2, 0, -1, 0, 0, 2, 0
1503510987351,8, 7, 1, -1, -1, -2, -1, 0, 0
1503510987373,-1, 5, 0, -2, 0, 0, -1, 0, 0
1503510987396,1, 35, 4, 3, 0, 1, 1, 0, 0
1503510987417,15, 2, 2, 1, 0, 0, -2, -1, 0
1503510987434,0, 0, 0, 0, -1, 0, -2, 0, 0
1503510987455,-1, 2, 2, 0, 0, -3, -3, -4, 0
1503510987477,12, -1, 0, 0, -1, 0, -2, -3, 0
1503510987485,13, 8, 0, -2, -2, -2, -1, -3, 0
1503510987508,10, 12, -2, 0, 0, 0, -2, 2, 0
1503510987523,17, 23, 2, -1, -1, 1, 0, 1, 0
1503510987538,6, -37, -14, -3, -1, 0, 0, 2, 0
1503510987553,-4, -2, -1, -1, 0, -2, 0, -1, 0
1503510987575,5, 6, 2, 0, 0, 0, -1, 2, 0
1503510987598,5, 7, 1, 0, -1, -2, -2, -2, 0
1503510987613,-10, 2, 1, -2, -2, -1, -1, -4, 0
1503510987636,-12, 1, -4, 0, 0, -2, -3, -3, 0
1503510987657,15, -33, -8, -1, -1, -1, 0, 0, 0
1503510987673,-4, 0, -1, 0, -2, -2, 0, 1, 0
1503510987698,-4, 7, 5, 0, 0, 0, 1, 0, 0
1503510987717,-2, -5, -2, -2, -2, -1, -3, -3, 0
1503510987726,-5, 17, 7, 1, 0, -1, 1, 0, 0
1503510987749,0, -2, -4, -2, -2, -2, -2, -2, 0
1503510987771,12, -11, -1, 0, 1, -3, -1, 0, 0
1503510987778,6, 5, -1, 0, -1, 0, -2, -4, 0
1503510987800,-6, 2, 5, 1, 0, -1, -2, 1, 0
1503510987815,-7, 40, 9, -2, 1, -1, -2, -2, 0
1503510987838,-7, -10, -5, 0, 0, 0, 0, -1, 0
1503510987853,-13, -12, -3, 0, -1, 0, -1, -3, 0
1503510987875,13, -9, -4, -1, -1, -2, -1, -1, 0
1503510987901,12, -1, -3, -2, -2, -1, 2, 1, 0
1503510987913,-18, -23, -5, 0, 0, 0, 0, 0, 0
1503510987936,7, 3, -1, -1, 0, -2, -2, -2, 0
1503510987958,-3, -1, -3, -3, -1, -1, -1, 1, 0
1503510987973,-9, 0, -1, -1, 0, 2, -2, -2, 0
1503510987995,8, 14, 8, 1, 0, -2, -1, 0, 0
1503510988018,3, 15, 5, -1, -1, 0, -1, 1, 0
1503510988033,6, 15, 0, -2, -2, 0, 1, 1, 0
1503510988055,5, -5, -3, -2, 0, -1, 0, 1, 0
1503510988078,-11, -4, 5, 1, 0, 0, -1, 1, 0
1503510988093,4, -1, 3, 2, 0, -1, -1, 0, 0
1503510988116,-10, -12, -11, -1, -1, 0, -2, 0, 0
1503510988138,6, -9, -3, -1, -1, -3, -3, -1, 0
1503510988153,9, 12, -1, 0, 1, 0, 2, 0, 0
1503510988176,-8, -13, -6, -2, -1, -2, -1, -1, 0
1503510988201,-14, -14, -1, -1, -2, 1, -2, -5, 0
1503510988213,9, 3, 0, 1, -1, -1, -3, -2, 0
1503510988235,3, -8, -1, -3, -2, -2, -2, -2, 0
1503510988244,27, 5, -3, 0, 0, -1, 1, 3, 0
1503510988268,-4, -2, 4, -1, -1, -1, 1, 1, 0
1503510988288,-10, -5, -6, -1, -3, -2, -2, -3, 0
1503510988311,8, 7, 4, 0, -1, 0, 0, 2, 0
1503510988326,0, -2, -1, -1, 1, 0, -2, -1, 0
1503510988348,-19, -4, -4, -2, 0, 0, -1, -3, 0
1503510988371,5, -1, 0, -2, 0, 0, -2, 1, 0
1503510988386,-12, -3, 0, 0, 0, 0, -1, -2, 0
1503510988408,-3, -5, -1, -1, -3, -2, -3, -2, 0
1503510988430,5, 4, 0, 0, 0, -1, 0, 1, 0
1503510988447,13, -1, -2, -1, -2, -2, -2, 2, 0
1503510988469,-4, -4, -1, -2, 0, -3, -2, -2, 0
1503510988490,14, 3, -2, -1, 0, 1, 0, -2, 0
1503510988507,5, -3, -3, -1, -2, 1, -1, 0, 0
1503510988528,1, -2, 1, 0, -1, -1, -1, 1, 0
1503510988550,-1, 25, 4, -2, -1, 0, -1, -2, 0
1503510988567,-15, -5, 0, 0, -1, -1, -1, 1, 0
1503510988588,-15, -4, -1, 0, -1, 0, 0, -3, 0
1503510988612,-5, 0, -1, 0, 2, 0, -2, -1, 0
1503510988626,14, -3, -3, -1, -2, -1, 0, 3, 0
1503510988648,-11, -11, -2, 0, 2, 0, 1, -2, 0
1503510988671,-2, -5, -2, -2, 1, -1, -2, -2, 0
1503510988686,11, -2, -1, -2, -2, -1, 1, 3, 0
1503510988708,-15, 0, 0, 0, -1, -1, 0, 0, 0
1503510988731,1, -10, -1, -1, -1, 0, -1, -1, 0
1503510988747,-11, 3, -1, -3, -1, -3, -2, -4, 0
1503510988768,10, 0, -2, 1, 1, 1, -1, 1, 0
1503510988790,7, -1, 0, 1, -1, 0, -1, 0, 0
1503510988806,-40, -6, -2, -1, 0, -3, -2, -8, 0
1503510988828,2, 0, 0, -1, 1, -1, 1, 3, 0
1503510988836,8, 3, 0, 0, 0, -1, 0, -3, 0
1503510988858,15, 1, 0, 0, 0, -1, -1, -2, 0
1503510988881,6, 3, 1, 1, 0, -1, -1, 0, 0
1503510988895,-12, -9, -2, -3, -2, -2, -1, -1, 0
1503510988918,-20, 3, 0, 0, -1, 0, -1, -4, 0
1503510988941,-18, -5, -3, -3, -2, -1, -2, -3, 0
1503510988955,13, 3, -2, 1, -3, 2, -1, 2, 0
1503510988979,2, -3, -4, -1, 0, 0, 2, -2, 0
1503510989000,-8, -3, -1, 0, 0, -1, -2, 0, 0
1503510989015,22, 4, -2, -1, -1, 0, -1, 0, 0
1503510989046,-13, -5, -3, -2, 0, -1, 2, 0, 0
1503510989060,-6, -5, 1, -1, -2, -3, -2, 2, 0
1503510989076,6, -2, 1, -1, 0, 1, -2, 0, 0
1503510989098,3, 2, -1, -2, -1, 1, -1, -2, 0
1503510989120,-1, -5, -1, -1, -1, 0, -2, -2, 0
1503510989135,-6, 1, 2, -2, -2, -1, 2, 1, 0
1503510989158,21, 6, 0, -2, -1, -2, -2, -1, 0
1503510989181,-12, -5, -1, -1, 0, -1, -1, -2, 0
1503510989195,14, 2, -2, -1, -1, -1, 0, 1, 0
1503510989218,-10, -2, 0, 0, -2, 0, -1, 1, 0
1503510989241,5, -6, -2, 1, 1, -1, -2, -2, 0
1503510989262,-24, -3, -2, -1, -1, 0, -1, -3, 0
1503510989278,-11, -1, 2, 0, -3, -1, -2, -4, 0
1503510989300,-16, -5, 3, -1, -1, -1, -2, -3, 0
1503510989322,13, 1, -2, 1, 0, -1, -1, 3, 0
1503510989338,-6, 4, 0, 0, -2, 1, -1, -4, 0
1503510989360,-12, -1, -1, -1, -1, 0, 1, -3, 0
1503510989384,22, 1, -2, 0, -1, -2, -1, 3, 0
1503510989399,1, 4, -2, 0, 0, 0, 1, 4, 0
1503510989420,-21, -4, 1, 1, -1, -1, -1, -1, 0
1503510989443,10, -3, -2, -1, 0, -2, -1, 0, 0
1503510989458,-7, -2, -1, -1, 0, -2, -4, -4, 0
1503510989480,25, 5, 0, -1, -2, 0, 0, 3, 0
1503510989502,-7, -2, -1, 0, 0, 1, 2, -3, 0
1503510989523,8, 1, 1, -1, 1, -3, -3, -2, 0
1503510989540,-20, -2, -1, -1, -1, -1, -1, 1, 0
1503510989562,-19, 0, -2, -1, 0, -1, -1, -4, 0
1503510989582,17, 3, 1, 0, -2, 0, 0, 2, 0
1503510989593,5, 2, 4, 0, 1, -2, -4, -2, 0
1503510989609,-3, -3, -2, -1, 0, -1, 1, -1, 0
1503510989630,8, 5, 0, 0, 0, 1, -1, 1, 0
1503510989653,-12, -4, 0, -1, -1, 0, -2, -5, 1
1503510989669,-11, -6, -2, -1, 0, -1, -1, -4, 1
1503510989692,6, -3, -1, 0, -1, 1, 3, 5, 1
1503510989727,-14, -1, -1, -1, -1, -2, -2, -2, 1
1503510989730,13, 1, -3, -3, -1, -2, -2, 1, 1
1503510989752,15, -8, -4, -2, -2, -1, -2, -3, 1
1503510989773,6, 5, -1, -1, -1, -2, -1, 3, 1
1503510989788,-5, 1, -1, -3, -2, 1, -2, -1, 1
1503510989812,-8, -5, -1, 1, 0, 0, 1, -1, 1
1503510989833,-8, -3, 2, 0, -1, 0, -3, -2, 1
1503510989848,-18, -3, 0, 0, 0, -3, -1, -4, 1
1503510989870,-20, -1, 0, 1, -1, -1, 0, -2, 1
1503510989893,-11, -4, -1, 0, 0, 0, -1, -1, 1
1503510989908,3, -1, -2, -2, -1, 0, -2, -1, 1
1503510989930,10, 7, 4, -1, -2, -3, -2, 0, 1
1503510989953,24, 4, 0, 0, -1, 0, 0, 4, 1
1503510989968,-1, 2, 0, -1, 1, -1, 1, 0, 1
1503510989990,-23, -1, -5, -3, -2, -1, -1, -3, 1
1503510990013,15, -4, -2, -2, 1, 0, 0, 1, 1
1503510990022,-4, 3, 1, -1, -1, -1, -1, 2, 1
1503510990042,-1, 2, 1, -1, -1, 0, 0, -1, 1
1503510990058,3, -1, -6, 0, -2, -1, -1, 0, 1
1503510990081,-14, -5, -3, -2, -1, -3, -1, -2, 1
1503510990102,14, 4, 2, 0, 1, -1, 2, 2, 1
1503510990125,-10, -4, -2, -3, -2, -1, -1, -6, 1
1503510990140,7, 1, 1, -1, 0, 1, -1, 2, 1
1503510990162,11, 1, 1, 1, 1, -1, 0, 3, 1
1503510990185,-2, 1, -1, 0, -1, -1, 0, 1, 1
1503510990200,-10, -3, -2, 2, -2, -1, 1, -1, 1
1503510990223,5, 2, 2, 0, 0, 1, 0, 1, 1
1503510990245,-22, -6, -1, -1, -3, -2, -2, -2, 1
1503510990261,-17, -2, -2, -3, 0, -1, 0, 0, 1
1503510990282,-30, -15, -2, 0, -1, 0, -3, -3, 1
1503510990291,-13, 2, 2, -1, 0, -1, 1, 1, 1
1503510990315,-4, -7, -6, -2, -2, 0, -1, 14, 1
1503510990335,-15, -7, -3, 0, 0, 2, 2, -1, 1
1503510990365,-29, -7, 0, 1, -1, 1, -2, -7, 1
1503510990383,13, 3, 0, -2, -1, -1, 1, 4, 1
1503510990402,9, -19, -1, 1, -1, -2, -3, -6, 1
1503510990425,-1, -2, -2, -2, -3, 2, 1, 4, 1
1503510990455,-23, -8, -3, 1, 0, 0, -3, -10, 1
1503510990470,-15, -4, -2, 0, -1, 0, -2, -5, 1
1503510990493,14, -7, -2, 0, -1, -1, 1, 0, 0
1503510990517,16, 1, -5, -3, -1, -1, 1, 4, 0
1503510990530,31, 1, 1, -1, -2, 0, -3, 1, 0
1503510990555,0, -1, -5, -1, 0, -3, -10, -26, 0
1503510990575,-12, 0, 2, 0, 0, 1, 4, 6, 0
1503510990590,-17, -1, 2, 0, -2, 0, 3, 4, 0
1503510990613,-34, 13, 6, 2, 2, 0, 4, 9, 0
1503510990635,-2, -4, -6, -4, -1, -3, 1, -13, 0
1503510990651,-14, -8, -2, -4, -2, -1, -1, -26, 0
1503510990673,22, 1, 0, 0, -1, -2, -1, -5, 0
1503510990695,3, 6, 6, 1, 0, -2, -6, 1, 0
1503510990711,-1, -4, 4, 0, 0, 1, -2, 8, 0
1503510990733,-1, -1, -1, -1, 1, 2, 5, 15, 0
1503510990756,-6, 35, 5, 0, -3, -4, 1, 13, 0
1503510990770,12, 1, 5, 1, 2, 0, 4, 13, 0
1503510990786,-6, 7, 7, 4, 3, 0, -7, -13, 0
1503510990808,8, -10, -7, -5, -6, 1, -3, 7, 0
1503510990824,31, 10, -6, -3, 2, 1, 8, 27, 0
1503510990846,7, 0, 1, -2, 1, 5, -3, -19, 0
1503510990868,-7, 4, 0, -3, -9, -7, -7, -9, 0
1503510990885,-28, -14, -6, -1, 21, 0, 0, -11, 0
1503510990906,-8, -7, 0, 2, -3, -1, 3, 9, 0
1503510990930,30, 12, -2, 1, 3, 0, -2, 0, 0
1503510990944,8, -7, 0, 0, -4, -8, -12, 4, 0
1503510990966,26, 19, -1, -5, -9, 1, 11, 27, 0
1503510990989,13, 6, -2, -3, -6, -6, 10, 3, 0
1503510991004,-39, 3, 0, -4, -10, -8, -27, -17, 0
1503510991026,-29, 18, 8, 1, 3, 1, 4, -9, 0
1503510991048,-36, -29, -10, -3, -1, -3, -3, -8, 0
1503510991063,8, -7, -2, 1, 7, 4, 2, 0, 0
1503510991088,10, 3, 3, 1, 10, 4, 4, -2, 0
1503510991108,33, -14, 0, -4, -12, -2, 10, -4, 0
1503510991124,3, -5, -2, 3, 10, -1, -14, -22, 0
1503510991146,-93, -9, -5, -1, -5, -3, -4, -21, 0
1503510991168,-11, 13, 12, 4, 2, 7, 6, 26, 0
1503510991183,29, 6, 2, -2, 1, -2, 5, 17, 0
1503510991206,2, -5, -9, -3, 14, -2, -5, -24, 0
1503510991229,-12, -10, 2, 1, 0, 1, -9, -10, 0
1503510991243,5, 5, -1, 0, -4, 2, 1, 11, 0
1503510991266,22, 2, -1, 0, -3, 0, -4, 15, 0
1503510991289,7, -13, -3, -3, -4, 0, 3, -10, 0
1503510991304,13, -6, -5, -5, -18, -12, -7, 20, 0
1503510991326,-77, -12, -5, -1, -4, -3, 6, -34, 0
1503510991348,28, -10, -3, -3, -1, -1, -3, 17, 0
1503510991364,-13, -1, -1, -2, 0, 1, 3, 3, 0
1503510991379,18, 21, 3, 1, 0, -1, -10, -40, 0
1503510991393,-33, 8, 2, 1, 2, -1, -2, -25, 0
1503510991415,3, -4, -2, -2, 0, -5, -16, 16, 0
1503510991438,6, -6, -6, -4, -1, 0, 7, 19, 0
1503510991453,16, 8, 4, 2, -6, 1, 8, 2, 0
1503510991477,26, -2, -3, -2, -1, -2, 0, 8, 0
1503510991498,-1, -7, -3, -1, 1, -5, -5, 6, 0
1503510991513,29, -2, -4, 0, 1, 0, 4, 23, 0
1503510991535,-28, -10, 2, 1, 1, 1, 1, -6, 0
1503510991560,20, -5, -1, 0, 2, -2, -2, 3, 0
1503510991573,-28, -5, 2, 2, -2, 1, -4, 7, 0
1503510991596,2, -3, 1, -1, 0, -2, -22, -8, 0
1503510991618,-14, -1, -1, -1, 0, 0, 6, 3, 0
1503510991649,-5, 0, -5, 0, -1, 0, 2, 3, 0
1503510991664,5, 9, 1, -3, -1, -1, -3, 4, 0
1503510991686,13, 2, 0, -1, -12, -1, -4, 2, 0
1503510991708,-9, -15, -3, 0, 4, -2, -5, -5, 0
1503510991726,-17, -1, 2, 0, 2, -1, -3, -4, 0
1503510991746,5, -2, -5, -4, -3, -1, 3, -2, 0
1503510991769,-16, -12, -2, -3, 0, 1, 0, 4, 0
1503510991783,17, 5, -2, -1, 0, -4, -4, -1, 0
1503510991806,-2, 6, 5, 0, -1, -2, -2, -3, 0
1503510991829,0, -1, -2, -1, 2, 1, 1, 3, 0
1503510991843,-15, -5, -4, -2, -3, -3, -5, -8, 0
1503510991866,5, -2, 1, 1, 0, -2, 2, 2, 0
1503510991888,1, 4, 1, -1, 0, 0, -2, 3, 0
1503510991903,-12, -4, -3, -2, -4, 0, -1, 4, 0
1503510991927,6, 5, -1, -1, -1, -1, 3, 1, 0
1503510991948,-1, -6, -3, -1, 4, -1, 2, 0, 0
1503510991956,-14, -2, -4, -3, 1, 0, 4, 2, 0
1503510991978,-3, -9, -1, -1, 0, -1, -2, 0, 0
1503510991994,-1, 0, 2, 2, 1, -2, -5, -13, 0
1503510992015,3, 3, 0, 0, 3, -1, 0, 3, 0
1503510992038,2, 1, 2, -1, -1, -1, -1, 3, 0
1503510992062,-12, -4, -4, -2, -2, -1, 2, 0, 0
1503510992075,10, -1, -1, 3, -7, 2, 2, 3, 0
1503510992099,27, 2, -1, 0, 1, -2, -1, 0, 0
1503510992120,13, 17, 4, 3, 1, 2, 0, -2, 0
1503510992136,4, 3, 2, 2, 2, 1, 3, 3, 0
1503510992158,-5, 1, 4, 1, 0, -2, -5, -3, 0
1503510992166,-17, -7, -3, -1, -4, -4, -2, -6, 0
1503510992188,10, -12, -1, -1, 2, -2, -3, 5, 0
1503510992211,16, 0, 4, 0, 0, 0, 3, 8, 0
1503510992228,-12, -6, -6, -5, -4, -2, 4, 4, 0
1503510992248,2, -8, -3, -1, 1, -1, -6, -12, 0
1503510992271,5, -2, -3, -3, -2, 0, -1, -3, 0
1503510992286,-3, 10, 2, 1, 0, 3, 1, -1, 0
1503510992301,-46, -7, -5, -4, -2, -3, -3, -5, 0
1503510992317,-6, 11, 5, 3, 0, 0, 1, 0, 0
1503510992345,4, 2, 1, 1, 1, -1, 0, -2, 0
1503510992363,22, 7, 2, 1, 0, 0, 5, 7, 0
1503510992375,18, -5, -6, -2, -2, -1, -3, 4, 0
1503510992406,-7, -3, -1, 0, 1, -3, -1, -6, 0
1503510992431,-9, 3, 1, -1, -1, 0, -2, 0, 0
1503510992451,6, -13, -5, 1, -2, 1, 0, 2, 0
1503510992466,1, 0, 5, 1, 1, -1, 1, -2, 0
1503510992488,-3, -10, -3, -2, -1, -1, -1, 1, 0
1503510992518,-21, 5, 2, 1, 0, -1, 0, -7, 0
1503510992526,-17, -4, -3, -3, -3, -1, 0, -1, 0
1503510992548,10, 9, -3, -2, 0, 1, -3, 4, 0
1503510992571,-7, -11, -5, -2, -1, -2, 0, 3, 0
1503510992586,-2, -5, -2, -1, -1, -1, 2, 5, 0
1503510992608,30, 9, 4, 0, 0, 1, 3, 9, 0
1503510992637,-5, 3, 0, 0, -3, -2, -1, -2, 0
1503510992646,5, 0, -2, -3, -3, -2, -1, -2, 0
1503510992670,-3, 0, -2, -2, -3, 1, -2, -5, 0
1503510992690,-5, -1, -2, 4, 4, 3, 1, -4, 0
1503510992706,4, 1, -1, -3, -2, -1, 0, 3, 0
1503510992728,1, -1, -1, -3, 0, -3, -1, -4, 0
1503510992758,-10, -8, -2, 4, 0, 0, -2, -3, 0
1503510992768,4, 4, 0, -5, 0, 0, 1, 2, 0
1503510992781,1, 1, -1, 1, -2, -1, -3, -2, 0
1503510992795,-3, 12, 12, 3, 2, -1, 1, 0, 0
1503510992818,-4, 4, -4, -1, -1, -2, -2, -6, 0
1503510992841,9, -4, -5, -1, -2, -1, 1, 6, 0
1503510992855,0, -1, -1, -3, -3, 0, -3, -2, 0
1503510992885,-5, -14, 3, 1, 1, 0, 0, -4, 0
1503510992901,11, -2, -8, -5, -2, -1, 0, 3, 0
1503510992915,0, 15, -1, 1, -2, -2, 0, 4, 0
1503510992939,-14, -4, 0, 0, -2, -1, -1, -3, 0
1503510992960,11, -3, -6, 7, 1, -1, 1, 1, 0
1503510992982,-3, 14, 1, -4, -1, 0, 0, 1, 0
1503510992998,10, 5, 0, -2, -1, -1, -1, -3, 0
1503510993020,-1, -6, 1, 2, 0, 0, -2, -5, 0
1503510993043,-25, -5, -5, -4, -1, -2, 0, -2, 0
1503510993058,5, 2, 4, 1, -3, -1, -1, -1, 0
1503510993080,18, -4, -4, -2, 0, 0, 3, 4, 0
1503510993102,-21, -17, -6, 0, 0, -1, -2, -3, 0
1503510993118,14, -1, -6, -5, -2, -1, -3, -5, 0
1503510993140,-14, -11, -5, 0, 0, 0, -1, -3, 0
1503510993163,30, 0, 1, -1, -1, -1, -4, 1, 0
1503510993178,1, 4, 4, -1, 0, -1, 2, 2, 0
1503510993202,-11, 4, -3, -2, -1, 1, 3, 6, 0
1503510993223,4, 0, 2, -2, 0, -1, 1, -1, 0
1503510993238,-15, -7, 2, 4, -1, 0, -2, -6, 0
1503510993261,9, -13, -5, -2, -3, -2, 1, 0, 0
1503510993283,0, 17, 1, 0, -2, -3, -3, -1, 0
1503510993298,16, -7, 0, -1, 0, -1, -1, -3, 0
1503510993320,5, -19, -11, -1, -1, 0, -2, 4, 0
1503510993343,25, 9, 1, -1, -2, -2, -2, 5, 0
1503510993358,-6, -18, 1, 0, -1, -1, -2, -9, 0
1503510993380,-17, 10, 2, 0, -1, 0, 2, 2, 0
1503510993404,-12, 4, -1, -1, 0, 0, -2, -5, 0
1503510993418,-6, -19, -11, -4, -2, 0, -3, -2, 0
1503510993440,-13, -1, -5, 0, 1, -1, 2, 2, 0
1503510993464,-12, -2, 2, 0, 0, 1, 2, 6, 0
1503510993481,-3, 5, 5, -2, 0, -1, -3, -5, 0
1503510993500,3, 2, 0, -1, 0, 1, 2, 3, 0
1503510993524,-11, 11, 5, 0, -3, -3, 1, -2, 0
1503510993544,-12, -16, -4, -1, 1, 0, -4, -7, 0
1503510993562,14, 7, 5, 0, -4, -2, -2, 2, 0
1503510993582,-11, 18, 11, 2, 0, 0, -1, -4, 0
1503510993598,10, -19, -12, -2, -2, -1, -2, -2, 0
1503510993620,4, -2, -4, -2, -1, -2, 2, 1, 0
1503510993642,-1, 6, 1, -1, 0, -1, -1, -1, 0
1503510993658,-13, 32, 12, 2, -1, 0, -3, -2, 0
1503510993681,4, -21, -14, -3, -2, 0, -1, -3, 0
1503510993702,-2, 0, -2, -2, 0, 0, 0, 4, 0
1503510993718,-7, -4, 1, 1, -1, -1, -1, -4, 0
1503510993740,-7, -22, -4, 1, 0, -2, 1, -1, 0
1503510993762,-19, -26, -7, -1, -2, -2, -3, -5, 0
1503510993778,2, -3, -2, 0, 0, 0, -3, 1, 0
1503510993800,11, 12, 3, -1, -2, -1, -1, 0, 0
1503510993822,-46, 2, -1, -2, 1, -2, -1, -6, 0
1503510993840,39, 3, 3, -1, 1, -1, -1, -3, 0
1503510993861,-1, 3, 4, 1, -1, -1, 1, 4, 0
1503510993882,3, 6, -3, 0, -1, -1, 0, -3, 0
1503510993908,-2, -3, -4, -1, 1, 0, 1, 5, 0
1503510993920,5, 4, 2, -2, -1, 0, -2, -1, 0
1503510993942,8, 22, 13, 2, -1, -1, 1, 1, 0
1503510993965,4, -9, -3, 0, 0, 1, 3, 2, 0
1503510993980,0, -1, -1, -1, -1, -2, 0, 0, 0
1503510994002,16, 5, -3, -3, -2, -1, 1, 2, 0
1503510994025,5, -2, 0, 0, -1, 1, 0, -1, 0
1503510994042,18, -12, -9, -2, 0, -2, -1, 2, 0
1503510994065,1, -2, -5, -2, 0, -1, 1, -1, 0
1503510994085,-2, -7, 0, -1, -2, -1, -3, -4, 0
1503510994092,5, -15, -9, 0, 0, -2, -8, -4, 0
1503510994116,-8, -11, -7, 0, -1, -1, 1, 3, 0
1503510994130,8, 12, -1, -2, -1, 0, 0, 0, 0
1503510994153,6, 7, 4, 0, 0, -1, -1, -1, 0
1503510994176,8, -12, -2, -1, -2, 0, -1, 4, 0
1503510994191,2, 0, 0, 0, 0, 0, 1, 1, 0
1503510994214,-19, 3, 3, 2, 0, -1, -1, -5, 0
1503510994235,0, -2, -2, -2, -2, 0, 1, -1, 0
1503510994251,-12, 4, 0, -2, 0, 0, 0, -3, 0
1503510994272,10, 2, 1, -1, -2, -1, 1, 3, 0
1503510994295,-4, -2, -2, -1, 0, -1, 0, -1, 0
1503510994311,-5, -1, 0, -1, -1, -1, -1, -4, 0
1503510994333,-17, 3, -5, 0, 0, -2, -1, -5, 0
1503510994355,1, -15, -2, -1, -1, 0, 0, -1, 0
1503510994371,-15, -4, -2, -2, 0, -1, -2, -2, 0
1503510994392,28, 4, -2, 1, -1, -1, 0, 2, 0
1503510994415,-1, 2, 1, 0, -1, -3, -1, 0, 0
1503510994431,6, 4, 0, -1, -1, 0, -1, 3, 0
1503510994453,13, 2, -1, -2, 0, 0, -2, -1, 0
1503510994485,-13, 7, 2, 0, 0, -2, -1, 0, 0
1503510994491,-20, -11, -4, -2, -4, -2, -3, -6, 0
1503510994515,4, 7, -2, -3, -2, -1, -2, 0, 0
1503510994521,-4, -14, -4, -1, -2, 0, -1, -3, 0
1503510994549,6, -3, -2, -1, 0, 0, -1, -2, 0
1503510994568,5, -8, -4, -1, -2, -3, -2, -3, 0
1503510994581,-14, 1, -3, -2, 0, -1, -3, -1, 0
1503510994603,3, 1, -3, -2, -1, 0, 0, -3, 0
1503510994624,-3, -8, -2, -2, 0, 1, -1, -4, 0
1503510994640,4, 4, 1, 0, 0, 1, 0, 0, 0
1503510994662,-6, -4, 4, -1, -1, -1, 2, 2, 0
1503510994671,2, 16, 5, -1, -3, -2, -4, -2, 0
1503510994693,-21, -14, -3, -2, -1, 1, 1, -4, 0
1503510994716,-10, 14, 8, 3, 0, 0, -3, -7, 0
1503510994731,-20, -5, -6, -2, -1, 0, 1, 1, 0
1503510994753,12, -4, -3, -1, -1, -1, 1, 4, 0
1503510994775,-5, 4, -2, -2, 1, -1, -2, -2, 0
1503510994791,3, -3, -2, -1, -1, 1, -1, -1, 0
1503510994813,-1, -8, 0, -1, 0, -1, -3, -6, 0
1503510994836,2, -4, -5, 0, -1, -1, -1, -3, 0
1503510994843,-2, -2, -2, -2, 0, 0, 0, 4, 0
1503510994858,-3, -7, -2, -3, 0, 0, 1, 1, 0
1503510994872,15, 2, -4, -2, -3, -3, -3, -1, 0
1503510994895,2, -3, 1, 0, -4, -1, 1, 2, 0
1503510994918,15, -7, -4, -2, 0, -2, 1, 1, 0
1503510994932,-21, -6, -5, -3, 0, -2, -2, -6, 0
1503510994956,-1, 0, 0, 2, 1, -1, 1, 2, 0
1503510994977,-16, 1, 4, 1, -1, 0, 0, -2, 0
1503510994992,4, 0, 0, -1, -1, 0, 0, -4, 0
1503510995018,-6, -3, 2, -1, -1, -1, -1, 3, 0
1503510995037,5, 29, 16, 3, 1, -1, -2, -7, 0
1503510995044,13, -7, -2, -1, -3, -1, -2, 1, 0
1503510995067,-24, 13, 3, 3, 0, 2, 0, -3, 0
1503510995083,-9, -2, 1, -1, 0, 0, 0, -5, 0
1503510995104,1, 1, 1, -2, -2, -2, 0, -2, 0
1503510995127,-5, 7, -2, 0, -3, -2, -1, 0, 0
1503510995142,2, -1, -3, -1, -2, 1, 0, 0, 0
1503510995158,-19, -5, -5, -1, -2, -1, -2, -5, 0
1503510995172,2, -14, -5, -3, -1, 0, 1, -2, 0
1503510995187,-14, -10, -2, -1, 0, 0, 0, 0, 0
1503510995202,12, 2, 3, 0, 2, 0, -1, 2, 0
1503510995225,23, 4, 0, 2, -1, 0, 1, 4, 0
1503510995249,13, 10, 2, -1, -1, -1, -2, -3, 0
1503510995262,-19, -8, -5, -1, 0, -1, 0, 2, 0
1503510995277,-14, -3, -3, -3, 1, 0, -3, -5, 0
1503510995284,27, -4, -4, -2, 0, -1, 0, 4, 0
1503510995293,-4, -3, -3, -1, 0, 0, 0, -1, 0
1503510995316,1, -2, -2, -2, -2, 0, 1, 2, 0
1503510995338,1, 13, 2, 0, 1, 0, 0, 1, 0
1503510995353,-2, -8, -3, 0, -2, 0, 0, 3, 0
1503510995375,-11, -8, 1, -2, -2, -2, 0, -5, 0
1503510995398,2, -7, -3, 0, -1, -2, -1, 2, 0
1503510995412,2, 0, 1, 0, -1, -1, -3, -1, 0
1503510995435,-3, -5, -3, -3, 0, -1, 1, 3, 0
1503510995458,-10, 1, 0, -2, -2, -1, 0, -4, 0
1503510995474,1, -10, -1, 2, 0, -3, -3, -5, 0
1503510995495,-1, 3, 1, -1, 1, 2, -1, -3, 0
1503510995519,-5, 1, -1, -1, -1, 0, 1, 0, 0
1503510995533,2, 0, 0, 0, -1, -1, -2, -6, 0
1503510995555,5, 3, 0, 2, -1, -1, 1, 1, 0
1503510995577,-5, 9, 4, -1, 0, -1, -2, -3, 0
1503510995593,5, 2, -5, -1, 0, -1, -1, 1, 0
1503510995617,6, 0, -1, 0, 0, 1, 0, 0, 0
1503510995637,-1, 4, -2, -1, -1, -2, -4, -1, 0
1503510995660,-31, -6, 1, 1, 1, 1, 2, 2, 0
1503510995675,2, -1, 3, 0, -3, -2, -1, -2, 0
1503510995698,14, -11, 0, -2, 1, 0, 1, 1, 0
1503510995704,7, -29, -5, -1, -1, -3, -2, -3, 0
1503510995727,1, 1, -2, -1, -1, 0, -1, 0, 0
1503510995742,10, 3, 0, -3, -1, -2, -1, 2, 0
1503510995758,-16, -10, -3, 2, -1, -2, 0, -1, 0
1503510995765,-22, -3, -4, 0, -1, -1, 0, -6, 0
1503510995788,5, 5, 4, -2, 0, -1, -2, -1, 0
1503510995811,4, 9, -1, -1, -2, -1, -1, 3, 0
1503510995827,-11, 6, 4, 0, 1, -1, 0, -2, 0
1503510995848,13, 0, -3, -1, 2, 0, 1, 3, 0
1503510995870,2, -3, -3, -3, -1, -3, 0, -3, 0
1503510995886,-8, 5, -1, -1, 0, 1, 1, -3, 0
1503510995908,1, 2, 1, -1, 0, -2, -2, 0, 0
1503510995930,-3, -6, 1, 1, -1, -1, -1, 0, 0
1503510995945,-7, -9, 3, 1, 1, 1, 1, 1, 0
1503510995968,-23, -1, -2, -1, -1, -2, -3, -6, 0
1503510995990,6, -6, -5, -2, -2, -2, -1, -3, 0
1503510995998,16, 7, -3, -1, -1, 0, 0, 3, 0
1503510996020,15, 0, 1, -1, -2, 0, -3, 0, 0
1503510996035,6, -7, 3, 0, 0, -1, -1, -2, 0
1503510996058,-34, -10, -2, -1, -1, -1, -2, -6, 0
1503510996080,12, 1, -2, -1, -1, -1, -2, 0, 0
1503510996095,-6, 3, 0, 0, -1, -1, 0, -4, 0
1503510996120,-4, 3, 1, -1, -1, -2, -1, -2, 0
1503510996126,0, 2, 3, -1, 0, 1, -1, -3, 0
1503510996148,-3, 7, 0, -2, -1, -2, -2, 0, 0
1503510996170,-3, -2, 0, 1, -1, -1, -3, -1, 0
1503510996178,-8, 11, 3, -1, -1, -1, 0, 1, 0
1503510996200,27, -5, -7, -4, -1, -1, -2, -2, 0
1503510996215,-3, -7, -2, -1, -1, -2, 0, 0, 0
1503510996238,-9, 1, -1, 2, -1, 1, 1, 1, 0
1503510996246,0, -2, -4, -1, 1, -2, -1, 1, 0
1503510996268,11, 3, 1, 1, 1, 2, -1, 0, 0
1503510996300,2, -1, -1, -1, -3, -2, -2, -3, 0
1503510996306,5, -2, -4, -2, -1, 0, 2, 2, 0
1503510996328,12, 13, -2, -1, 1, -2, 1, 2, 0
1503510996354,-3, -5, 0, 0, -1, 1, -1, -1, 0
1503510996365,5, -5, 1, 1, -1, 3, 0, 0, 0
1503510996380,20, 8, 2, -1, 1, -1, 1, 1, 0
1503510996396,-16, -8, -1, 1, 0, -2, 0, -1, 0
1503510996418,-60, -13, -3, -1, -1, -2, -1, -4, 0
1503510996440,20, 11, -2, -1, -1, 1, -2, 4, 0
1503510996456,1, -3, 0, 0, -1, -3, -1, -5, 0
1503510996478,-13, -1, 1, -2, 0, -1, -1, -3, 0
1503510996487,-1, -3, -2, -1, -2, -2, -1, 0, 0
1503510996508,5, -2, 1, 0, -2, -1, -1, 2, 0
1503510996531,-17, -5, 0, -2, 0, 0, 1, 2, 0
1503510996545,-2, 2, 1, 1, 0, -1, -1, -8, 0
1503510996568,-11, 23, 14, 2, 0, 0, 0, -3, 0
1503510996591,14, -9, -9, 0, -1, 1, -1, 1, 0
1503510996605,15, -6, -2, -2, -2, 0, -1, 0, 0
1503510996630,-7, -6, -1, 0, -1, -2, 0, 0, 0
1503510996650,4, -4, -4, -1, -2, 0, 1, 5, 0
1503510996665,11, 2, -3, -2, 0, -1, -1, 2, 0
1503510996690,-7, -4, -4, -2, -2, -2, -1, -4, 0
1503510996711,-10, -11, -1, 1, 0, -1, 0, -4, 0
1503510996733,14, 0, -3, 0, 1, -1, 0, 4, 0
1503510996763,14, 2, -3, -2, 0, -1, 1, 4, 0
1503510996765,20, 4, 1, -1, -2, -1, 1, 1, 0
1503510996777,-2, 6, 0, 0, -1, -3, -2, -4, 0
1503510996800,11, 1, -3, -2, -1, -1, 1, 1, 0
1503510996823,24, 5, 0, 1, -2, -1, -2, 2, 0
1503510996837,28, -8, -4, -1, 2, -1, 0, -1, 0
1503510996860,-7, -1, 2, 0, 0, 0, 0, -2, 0
1503510996882,-13, 2, 0, 1, -1, 0, -2, -1, 0
1503510996898,-6, -2, 1, -2, -1, -1, -2, -2, 0
1503510996920,-16, -1, 0, -1, -2, -2, -1, -4, 0
1503510996943,-10, 0, -1, -2, 0, 0, 0, -2, 0
1503510996958,-1, -3, 0, -1, 0, 0, -2, -1, 0
1503510996980,-9, -2, 0, 0, 0, 0, 1, 0, 0
1503510997003,3, -5, -1, 1, 0, 0, -2, 0, 0
1503510997017,-10, 1, 0, 1, -3, -4, -1, -1, 0
1503510997040,2, -1, 2, 0, 1, -2, -1, 0, 0
1503510997063,-10, 0, -2, 1, -2, -2, 0, -1, 0
1503510997077,-27, 1, -2, -2, -1, -2, 0, -4, 0
1503510997101,-5, 1, 0, -3, 1, 2, -3, -20, 0
1503510997125,7, -1, -1, -1, -1, 6, 2, 6, 0
1503510997138,11, -3, 0, -2, 0, -4, -1, 5, 0
1503510997161,31, 5, 1, 1, 1, 1, -1, -8, 0
1503510997182,11, -2, -1, -1, 0, -4, -6, 1, 0
1503510997198,2, -1, 0, 0, -1, 0, 1, 15, 0
1503510997220,-3, -2, -2, -2, -4, -4, 1, 20, 0
1503510997243,-23, -10, -4, -1, -2, -2, -1, -9, 0
1503510997260,-3, 3, -1, -2, -3, -1, 0, -1, 0
1503510997280,1, -4, -7, -2, -2, -1, -1, -1, 0
1503510997303,-2, 1, -2, -3, 0, -1, 0, -4, 0
1503510997317,-1, 4, -1, -1, 1, -2, 0, 10, 0
1503510997340,-3, 5, 5, 2, -1, -1, -2, 3, 0
1503510997364,10, 1, -3, -1, 0, 0, -2, 1, 0
1503510997377,-20, -8, -1, 0, 1, 1, 3, -3, 0
1503510997401,9, -12, -3, 1, 0, -1, -2, -4, 0
1503510997422,3, 19, 1, 0, -2, -3, 0, -9, 0
1503510997438,9, -17, -4, -2, -1, 1, -5, -8, 0
1503510997462,-20, 7, -1, -2, -1, -3, 1, 10, 0
1503510997483,13, 0, 1, 0, -1, -1, -5, -7, 0
1503510997498,4, 0, -1, -1, -1, 0, -5, 19, 0
1503510997521,7, 3, 3, 0, 2, 1, 4, -3, 0
1503510997543,7, 4, 0, -1, 1, 1, 4, -1, 0
1503510997559,-23, -3, -1, -1, -1, -3, -2, -19, 0
1503510997580,10, 2, 1, -1, 0, 0, -1, 2, 0
1503510997603,-2, -2, 1, -1, -2, -1, -2, -8, 0
1503510997627,-1, -5, -3, -3, -1, -1, -1, -4, 0
1503510997640,-5, 1, -4, -1, 1, 0, -3, -6, 0
1503510997663,1, -4, -2, 1, -1, -4, -7, -12, 0
1503510997685,37, 28, 7, 2, 1, 4, 7, 31, 0
1503510997701,12, -10, -2, -1, -1, -1, 2, 10, 0
1503510997723,-7, -7, -3, 0, -2, -4, -7, -12, 0
1503510997745,-14, 0, 0, -3, -1, -3, -1, -5, 0
1503510997761,-21, -5, -1, 0, -1, 3, 2, -8, 0
1503510997782,3, -4, 1, -2, -1, 0, -1, -1, 0
1503510997805,-4, 25, 7, 2, -1, -1, -2, -13, 0
1503510997820,10, -13, -12, -5, -2, 1, 2, 2, 0
1503510997842,-42, -20, -8, 0, 0, 0, -1, -4, 0
1503510997866,20, -2, -6, -3, -6, -4, -5, -37, 0
1503510997880,4, 1, 2, -2, -1, 13, 2, 7, 0
1503510997903,-5, -1, 4, 6, 4, 4, 6, 14, 0
1503510997925,6, 3, 3, 5, 3, 4, 0, -11, 0
1503510997940,-13, -2, -2, -3, -2, -10, -4, 0, 0
1503510997963,17, -11, -4, 1, -2, -3, -2, 15, 0
1503510997985,11, -2, 0, -2, -4, -6, -8, 16, 0
1503510998001,-25, 11, 6, -1, 0, -1, 2, 0, 0
1503510998023,-3, 12, 7, 1, 2, 0, -3, 2, 0
1503510998045,-9, -9, -3, 0, -2, -3, 0, 2, 0
1503510998064,10, 3, 1, -1, -1, 1, -2, -12, 0
1503510998082,-10, -2, -5, -4, -6, -18, -4, -2, 0
1503510998106,-6, -7, -2, -3, 0, 12, -2, 10, 0
1503510998120,9, -6, -5, 0, -4, -7, -8, -1, 0
1503510998142,-2, -2, -5, 0, -3, -3, 3, -10, 0
1503510998172,4, -16, -2, -1, -1, -1, -3, -10, 0
1503510998180,9, 29, 17, 3, 4, 3, 4, 19, 0
1503510998202,8, -1, -2, -3, 0, 0, 0, -7, 0
1503510998225,12, -3, -1, 0, 1, 5, 6, -4, 0
1503510998240,8, 26, -1, 1, -2, -5, -6, 8, 0
1503510998264,-33, -12, -6, -3, -1, 2, 5, -5, 0
1503510998285,-21, -6, -3, -1, 3, 1, -6, -33, 0
1503510998300,5, 23, 12, 3, 1, -2, 5, -2, 0
1503510998322,9, -16, -10, -2, -5, -6, -11, 4, 0
1503510998345,-23, -20, -2, -2, -1, 0, -1, 4, 0
1503510998360,-16, -5, -2, 9, 2, 1, 3, 1, 0
1503510998382,5, 2, 0, -7, 5, 8, 9, 5, 0
1503510998407,3, -5, -4, 8, -5, -5, -6, -9, 0
1503510998420,2, 11, 0, -6, -2, 0, 6, 12, 0
1503510998443,-11, -4, 3, -7, -1, -1, 0, 10, 0
1503510998466,8, -8, -3, -1, 0, -1, 3, -18, 0
1503510998480,11, -1, -1, 1, 0, 8, 1, -9, 0
1503510998502,12, -4, 1, 1, -2, 2, -1, 0, 0
1503510998511,10, -3, -4, 0, -1, -2, -3, -21, 0
1503510998533,6, -4, -1, 0, 0, -4, -6, -3, 0
1503510998555,11, -1, -1, 0, 1, 2, 2, 26, 0
1503510998577,1, -1, -1, 0, -1, 0, -5, -3, 0
1503510998585,12, 0, -2, -3, -1, -3, 4, 25, 0
1503510998608,-16, -14, -5, 0, -1, 5, 1, -19, 0
1503510998622,-21, 20, 7, 2, -2, 0, 1, -5, 0
1503510998645,-10, 5, -4, -2, -3, -4, -1, 14, 0
1503510998667,22, 3, 1, 1, 3, 0, -5, 17, 0
1503510998682,17, 9, 0, -1, -1, -1, 1, 3, 0
1503510998705,6, -21, -9, -1, 0, -2, -11, -13, 0
1503510998727,26, -2, -5, -3, -5, -4, 5, -3, 0
1503510998742,28, 8, 3, 2, 3, -2, 1, 10, 0
1503510998766,-6, -16, -3, 0, 0, 1, -1, -12, 0
1503510998787,-45, -28, -5, 0, 1, -2, 7, 22, 0
1503510998803,85, 14, 4, 1, -1, -2, -4, -57, 0
1503510998825,-17, 1, -4, -2, 16, 3, 7, 10, 0
1503510998847,-25, -2, 0, -2, -7, 2, 0, 16, 0
1503510998862,-91, -8, -4, -6, -3, -3, -4, -23, 0
1503510998878,20, 12, -6, -1, 0, -2, -2, -55, 0
1503510998893,-12, -41, -7, -3, 2, 1, 4, 1, 0
1503510998915,17, 16, 3, 2, 6, 1, 2, 20, 0
1503510998938,2, 9, 1, -5, -7, 0, -7, 4, 0
1503510998953,3, 9, -3, -23, -2, 0, -1, 1, 0
1503510998976,-5, 7, 5, 6, 12, 2, 1, 14, 0
1503510998997,12, 5, 2, 18, -1, 1, -1, 4, 0
1503510999013,34, 7, -6, -4, 0, 0, 1, 10, 0
1503510999035,-11, -3, 1, -5, -1, -3, -1, -9, 0
1503510999057,-5, 8, 1, -4, 0, -3, -5, -6, 0
1503510999074,-1, -12, -3, 5, 0, -1, 1, 9, 1
1503510999095,23, 0, -2, 3, 0, -1, 3, 13, 1
1503510999117,-17, -26, -7, -4, 0, 0, 2, -3, 1
1503510999135,7, 5, 1, 1, -1, -1, -1, -2, 1
1503510999155,7, 19, 6, 0, 0, -1, -3, -7, 1
1503510999178,35, 10, 0, 1, -2, 0, 1, -1, 1
1503510999193,-40, 24, 6, 2, -1, 0, -3, -2, 1
1503510999215,-4, -4, 0, -1, -1, -1, -3, -8, 1
1503510999238,-4, 8, -1, -1, 2, 0, 0, 2, 1
1503510999253,-3, -20, -8, -3, -2, -2, -1, 10, 1
1503510999276,-2, -6, -5, -5, -3, -2, 3, 12, 1
1503510999298,6, -9, -1, 1, -1, 1, -1, -5, 1
1503510999314,-5, 1, 2, 2, 0, 0, -4, 1, 1
1503510999336,-18, -11, 2, 22, 6, 2, 2, -9, 1
1503510999357,-5, -3, 1, -12, -5, -4, -6, -17, 1
1503510999373,-16, 10, -1, -2, -1, -4, -2, 22, 1
1503510999395,12, -9, 1, 1, 0, 0, 2, -17, 1
1503510999417,-12, -2, -4, -6, -3, 0, 3, -4, 1
1503510999433,-26, -45, -5, -4, -1, 1, -4, 1, 1
1503510999455,36, 15, 5, -2, 0, 2, 6, 18, 1
1503510999478,-22, 1, -6, -2, 2, 1, -1, -6, 1
1503510999500,7, 13, 3, 1, 1, -4, -6, -25, 1
1503510999516,51, 18, 1, -1, -1, 5, 1, 14, 1
1503510999538,-3, 1, -1, -2, -2, -3, 6, 14, 1
1503510999560,-8, -7, -5, 0, -3, 1, -2, -9, 1
1503510999576,-1, -4, -5, -3, -1, 0, -2, 9, 1
1503510999597,11, 0, -3, -1, -2, -4, -8, 3, 1
1503510999620,-49, -13, -1, -3, -2, 1, 3, -11, 1
1503510999645,-8, 2, 5, 1, -1, -4, -7, 4, 1
1503510999657,4, -12, -1, 1, 1, 2, 4, -10, 1
1503510999682,9, 0, -3, 1, 0, -1, 0, 14, 1
1503510999726,3, -10, -2, -2, 0, 2, 2, -2, 1
1503510999741,-6, -4, -1, 0, -3, -19, -9, -9, 1
1503510999755,19, 10, 6, 2, 2, 3, 8, 10, 1
1503510999778,19, 7, -1, -2, -1, 3, -5, -5, 1
1503510999800,-22, -17, -2, -36, -2, 2, 1, -9, 1
1503510999816,-7, 2, -2, 0, -2, 3, 4, 9, 1
1503510999838,-22, -2, 1, 0, -2, 0, -5, -4, 1
1503510999860,-10, 24, 1, 6, 1, 2, 9, 10, 1
1503510999875,13, -12, -5, 8, 2, 4, 14, 34, 1
1503510999897,-13, -25, -13, 4, -1, -1, -6, -22, 1
1503510999920,-19, -7, -2, 1, -1, 1, -4, -1, 0
1503510999935,-50, 5, 3, 2, 1, -2, -5, -3, 0
1503510999958,-16, 10, 7, -1, -1, -3, 4, -8, 0
1503510999981,41, -2, -2, 0, 1, 8, 0, -2, 0
1503510999995,0, 16, 3, 1, -1, 1, 6, 68, 0
1503511000017,48, -8, -8, -2, -1, -5, 8, 20, 0
1503511000040,14, 9, 2, 2, -1, -3, -7, 17, 0
1503511000055,1, 13, 5, 2, -1, -2, -2, -25, 0
1503511000079,8, -34, -9, -3, -1, -6, -19, -27, 0
1503511000100,2, 16, -2, -1, -3, -3, 24, -4, 0
1503511000115,5, -14, -5, -5, -2, 0, -7, 11, 0
1503511000141,-8, -6, -12, -6, -3, -2, -2, 5, 0
1503511000160,-5, 9, 5, 1, -3, -1, 1, -28, 0
1503511000175,5, -5, 1, 4, 4, -2, -16, -19, 0
1503511000197,-22, -8, -1, -2, 1, -1, -5, -24, 0
1503511000220,7, 11, 2, 0, 1, 5, 2, 33, 0
1503511000235,58, -8, -2, 0, -2, -1, -5, -1, 0
1503511000258,-23, 9, 8, 3, 1, -2, -2, -6, 0
1503511000280,-31, 29, 15, 4, 1, -2, -3, -19, 0
1503511000295,58, 3, 1, 1, 1, 5, 14, 1, 0
1503511000317,-5, -10, -6, -1, 0, -1, -5, -7, 0
1503511000342,-41, 12, -3, -2, -4, -5, -6, 25, 0
1503511000355,-22, -25, 3, 0, 0, -2, -4, -18, 0
1503511000378,-18, -18, -7, -2, -1, 0, -6, 0, 0
1503511000400,-2, 5, 3, 26, -6, 1, 1, -5, 0
1503511000422,6, 1, 0, 2, 1, 2, 6, 4, 0
1503511000437,11, 5, 0, -3, -3, -1, 2, -9, 0
1503511000460,3, -19, -8, -10, 0, 1, -1, 7, 0
1503511000482,-16, -14, -6, -8, -1, -1, 5, -15, 0
1503511000498,-16, 4, -1, -10, 0, -2, 1, 0, 0
1503511000520,-1, -4, 0, 6, 3, 1, -3, 0, 0
1503511000543,16, 3, 0, -6, -2, -3, -3, 4, 0
1503511000557,17, 37, 2, -10, -1, -1, -2, 4, 0
1503511000580,-25, -23, -4, -3, -2, -4, -1, -10, 0
1503511000602,33, 0, 2, 6, 1, -2, -1, 24, 0
1503511000618,-35, -6, 1, 12, 0, 0, 2, -4, 0
1503511000643,-15, -2, -2, -7, -3, -3, 1, -5, 0
1503511000662,0, 2, 2, 5, 1, 0, 1, -1, 0
1503511000678,3, 3, -3, -6, 0, 6, 3, -1, 0
1503511000700,-9, -11, -6, -2, -2, -1, -3, -15, 0
1503511000722,-7, -4, -4, -1, 0, -3, 2, 6, 0
1503511000737,-18, -12, -5, -1, -1, -3, -11, -23, 0
1503511000760,-21, -7, -5, -7, -5, -5, -4, -13, 0
1503511000783,23, 12, 6, 0, 0, -3, -3, -9, 0
1503511000797,34, -18, 0, 3, -2, -5, -3, 2, 0
1503511000820,-10, 39, 9, -1, 2, 2, 0, 28, 0
1503511000843,-14, -8, 0, -2, -1, 0, 5, 10, 0
1503511000858,8, 5, 2, -2, -1, -1, 1, 1, 0
1503511000881,23, 6, -9, -3, -1, 0, -2, 82, 0
1503511000902,-13, -10, 1, -1, -2, -5, -10, -33, 0
1503511000918,-2, 2, -1, 1, 1, -3, -19, -66, 0
1503511000940,12, -23, -6, -2, -2, -4, -11, -1, 0
1503511000962,-10, -22, -8, -4, 0, 3, 6, 7, 0
1503511000982,5, 15, 4, 0, -1, -2, -7, -2, 0
1503511001000,-11, 2, -1, -2, -2, 4, 13, -20, 0
1503511001022,17, -2, -3, -2, -2, 0, 1, 29, 0
1503511001038,9, -1, 3, 0, -3, -2, 13, -11, 0
1503511001060,2, 21, 2, 0, 1, 1, 3, -16, 0
1503511001079,-45, -2, 5, -1, -1, 0, 0, 0, 0
1503511001090,-42, 20, 1, -1, 1, 2, 0, -6, 0
1503511001113,-35, -6, -3, -3, -1, 0, 6, 7, 0
1503511001135,13, 22, 1, -2, 0, 1, 6, 23, 0
1503511001150,-17, -3, 0, 0, -3, -2, -11, -11, 0
1503511001173,19, -17, 1, 0, -1, -1, 1, 6, 0
1503511001195,14, 8, 1, -1, 1, 1, 1, 0, 0
1503511001212,-10, -21, -3, -1, -1, -1, 0, -1, 0
1503511001233,4, -15, -10, -3, -2, -2, 5, 12, 0
1503511001255,10, 2, 2, 2, 1, -2, -4, -5, 0
1503511001270,-8, 9, 0, -3, -2, -4, -2, 5, 0
1503511001293,-23, 1, -2, -4, -2, 0, -3, -9, 0
1503511001315,-2, 26, 9, 3, 2, 2, 2, 6, 0
1503511001330,4, -10, -6, -2, -2, -2, -5, 6, 0
1503511001353,27, -12, -6, -2, -3, 1, 1, 3, 0
1503511001375,9, 3, 0, 3, 0, -2, 0, -1, 0
1503511001390,-13, -11, 4, 3, 1, -1, -2, -9, 0
1503511001415,-13, -2, -3, -2, 0, 2, 2, 1, 0
1503511001436,19, 7, 2, -1, -2, -3, -2, -3, 0
1503511001452,-8, 0, -1, -3, -2, -2, -5, 2, 0
1503511001473,13, 2, 2, 1, 0, 2, 2, -2, 0
1503511001495,-8, 15, 3, -2, -2, -1, 2, -6, 0
1503511001513,0, 0, 2, 1, 0, 1, 2, 1, 0
1503511001533,-3, -3, -4, -4, -4, -4, -7, -12, 0
1503511001559,1, -3, -3, 0, 3, -3, -9, -2, 0
1503511001572,-26, -4, -1, -2, -2, 0, 1, -6, 0
1503511001593,18, -13, -2, 1, 0, 0, 1, 5, 0
1503511001616,-31, 30, 14, 4, 1, 1, 0, -5, 0
1503511001622,-12, 3, -3, -5, -2, 1, 3, 10, 0
1503511001647,-19, -2, 0, -1, 0, -1, -2, -5, 0
1503511001660,-11, 4, 3, 4, 0, 0, -3, -8, 0
1503511001683,4, 4, 1, -1, 0, 1, -2, -14, 0
1503511001705,-1, -6, -2, 1, 2, 1, 4, 2, 0
1503511001720,9, -7, -2, 0, -2, 1, 0, 0, 0
1503511001742,3, -5, -7, -5, -3, -2, -3, -1, 0
1503511001765,8, 12, 2, 2, 0, -1, 1, 1, 0
1503511001782,-5, 2, 0, -3, -1, -1, -1, -3, 0
1503511001802,1, 3, -1, 0, -2, -2, -5, -7, 0
1503511001825,-1, -1, -1, 0, 0, 1, 3, 5, 0
1503511001841,2, 5, 4, 2, 2, 2, 2, 3, 0
1503511001862,-8, -10, -5, -3, -2, -1, 3, 4, 0
1503511001885,-7, -5, 4, 4, 1, 1, -5, -6, 0
1503511001900,3, -7, -2, -1, 0, -2, -6, -7, 0
1503511001923,9, -1, -5, -4, -2, -3, -1, 2, 0
1503511001945,18, 6, 1, -2, -4, -2, 1, 6, 0
1503511001960,9, 16, 1, -1, 0, 0, 2, 2, 0
1503511001984,2, 9, 7, 7, 5, 2, 5, 10, 0
1503511002005,-8, -2, -2, -1, -2, -1, 0, -1, 0
1503511002020,3, 19, -2, -3, -1, -1, 2, 1, 0
1503511002035,11, -9, -3, -3, -2, -3, 1, 4, 0
1503511002061,-1, -10, -4, 2, -1, -5, -10, -10, 0
1503511002073,2, 8, -5, -5, -4, -3, 0, 3, 0
1503511002080,7, -1, -1, -2, -1, -5, -8, -6, 0
1503511002095,0, -10, -5, -3, -1, 2, 5, 7, 0
1503511002122,0, 3, 4, 1, 1, 0, -1, 3, 0
1503511002133,3, -2, 2, 0, -3, -5, -6, -4, 0
1503511002156,-14, -6, 1, 1, 0, -2, 2, -2, 0
1503511002170,10, -8, -1, -1, 0, 0, -3, -1, 0
1503511002193,-12, -11, -5, -1, -3, -1, -3, -4, 0
1503511002218,10, 9, 4, 1, 0, 0, 2, 2, 0
1503511002230,-3, 4, -2, -2, -1, -1, 0, -4, 0
1503511002253,-6, 15, 1, -2, 0, 0, -5, 2, 0
1503511002275,9, -5, -5, -6, -4, -4, -1, -1, 0
1503511002298,-7, 8, 2, 3, 2, 2, 0, -4, 0
1503511002313,11, 9, -3, -1, -1, -1, 1, -1, 0
1503511002335,0, -1, -3, -2, -2, 0, 1, -1, 0
1503511002359,-4, -5, -3, 0, -1, -2, -1, -1, 0
1503511002373,-4, -9, 1, 2, 1, 1, 2, 6, 0
1503511002396,-5, 13, 7, 1, 0, 0, 2, -2, 0
1503511002419,-8, -17, -6, -3, -4, -1, 0, -1, 0
1503511002425,-10, -3, -1, -1, -2, -2, 0, -1, 0
1503511002447,-4, 0, -4, -7, -3, -3, 1, 1, 0
1503511002462,1, 5, -1, -2, 0, 1, 4, 1, 0
1503511002486,-9, 0, -2, 3, 0, -1, -1, 0, 0
1503511002507,0, 0, -3, -3, -1, -1, -2, -2, 0
1503511002522,14, 4, 3, 0, 0, 0, 1, 1, 0
1503511002545,-1, 8, 1, -19, -3, 1, 1, 0, 0
1503511002556,-6, 0, 1, 4, 4, -2, 0, -4, 0
1503511002575,2, -1, -4, -3, -1, -2, -2, 1, 0
1503511002597,-4, 0, -1, 3, -1, -1, -1, 2, 0
1503511002613,8, 28, 8, -3, -3, 0, 1, 4, 0
1503511002635,11, -9, -5, -4, -1, 1, -1, 1, 0
1503511002658,-13, 1, 2, -5, -3, -5, -7, -9, 0
1503511002673,-8, 12, -3, -5, -2, -2, -2, -3, 0
1503511002695,12, -6, -2, -6, -1, 0, -2, 1, 0
1503511002719,-9, 5, -7, 3, -2, -1, -1, -1, 0
1503511002733,4, -3, -1, 0, -1, 0, 0, 2, 0
1503511002757,0, -26, -1, 2, 0, -1, 1, 2, 0
1503511002778,-2, 2, -2, -2, -2, -1, -3, -8, 0
1503511002794,0, 4, 6, 1, 1, 0, -1, -1, 0
1503511002815,-17, 24, 7, 3, -1, -1, 0, -2, 0
1503511002838,-4, -14, -6, 0, -1, -1, -2, -5, 0
1503511002855,26, 1, -2, 0, 0, 0, 2, 8, 0
1503511002875,20, 0, -2, -1, 0, -2, 0, 3, 0
1503511002898,-23, 15, -1, -2, -1, 1, -3, -5, 0
1503511002913,6, -27, -1, 1, -1, 0, 1, -1, 0
1503511002935,-13, -4, -1, 7, -1, -2, 0, -3, 0
1503511002958,-14, 0, 1, -5, -1, -2, -2, 0, 0
1503511002973,-8, -1, 1, -1, 0, -2, 1, 0, 0
1503511002997,18, -3, 3, 2, 1, -3, -2, -1, 0
1503511003020,-4, 0, -8, 0, -1, 0, -2, -1, 0
1503511003033,2, -2, -2, -4, 0, 1, 1, -1, 0
1503511003055,-4, 5, -4, -4, -1, -1, -1, -1, 0
1503511003078,-2, -22, -3, -2, -2, -1, 0, 2, 0
1503511003093,-1, 3, 6, 0, -1, 1, -2, -2, 0
1503511003124,46, 7, 2, -2, 0, -1, 1, 4, 0
1503511003139,3, -4, 0, 0, -1, -1, 0, -3, 0
1503511003155,-4, 22, 4, -1, -1, -2, -1, 0, 0
1503511003175,-18, -3, -4, -1, -1, -3, -2, -2, 0
1503511003198,-38, -3, -6, -3, -1, -3, -4, -10, 0
1503511003222,5, 22, 1, 1, -2, 0, -1, 0, 0
1503511003227,-1, -16, -10, -1, 0, 0, -1, 0, 0
1503511003249,25, 0, -4, -2, -1, -2, -2, -1, 0
1503511003265,-9, 6, -2, 0, -1, -2, 0, 1, 0
1503511003290,-6, -5, -3, 0, -1, -1, -2, -3, 0
1503511003309,-70, -17, -8, -2, -1, -2, -2, -4, 0
1503511003325,21, 5, 1, 0, -1, 0, 1, 1, 0
1503511003347,6, 13, -1, -2, 0, -1, 0, -2, 0
1503511003358,6, 24, 13, 2, -2, -4, 0, 3, 0
1503511003377,1, 11, 5, 0, 0, -2, -2, -5, 0
1503511003400,-3, -5, -6, -1, 0, -2, 2, 1, 0
1503511003415,25, -4, -2, 0, -1, 1, 1, 0, 0
1503511003437,-11, 8, 0, 0, -1, 1, -1, 1, 0
1503511003460,7, -19, -7, 0, -1, -1, -1, -2, 0
1503511003475,-28, 15, 0, -1, 0, -1, -2, -2, 0
1503511003498,-10, 2, -1, -3, -2, 0, 0, -1, 0
1503511003520,0, 13, -4, 0, -1, -2, -2, -3, 0
1503511003536,-15, -19, -4, 1, 1, -1, 0, -3, 0
1503511003558,-2, -32, -4, -2, -2, 0, -3, -1, 0
1503511003580,-2, -9, 1, 0, -4, 0, 1, -1, 0
1503511003595,7, -7, -1, 1, -1, 1, 1, 0, 0
1503511003618,23, 24, 2, -1, 0, -2, -2, 1, 0
1503511003640,-9, -10, -2, 0, 1, 1, 0, -1, 0
1503511003657,11, 17, 2, 0, 0, 0, -2, -3, 0
1503511003677,-25, -17, -5, 0, 1, -1, 0, -5, 0
1503511003700,11, 4, 3, -3, -1, 0, -2, 4, 0
1503511003715,-19, 8, 1, -1, 1, 1, -1, -4, 0
1503511003737,13, -3, -2, -3, -1, -3, -1, -1, 0
1503511003761,5, -16, -6, 0, -1, -3, -3, 1, 0
1503511003775,10, 8, -1, 0, -2, -3, -1, 1, 0
1503511003798,-6, 0, 4, 1, -2, -1, -3, -2, 0
1503511003820,6, 1, 3, 0, -1, 0, -1, -2, 0
1503511003835,16, -1, -3, -3, -1, 2, 0, 2, 0
1503511003858,-23, -2, -1, -1, 1, 0, -1, -1, 0
1503511003866,2, -10, -2, 0, 1, -2, 0, -3, 0
1503511003887,1, -6, -9, 0, -1, -1, -2, 0, 0
1503511003896,4, -7, -7, -4, 0, -1, -2, -4, 0
1503511003918,6, -5, 1, 0, 0, -2, -2, -1, 0
1503511003940,0, 2, 3, 0, -1, -2, -1, -2, 0
1503511003955,-1, -2, 3, 0, -2, -1, -1, -7, 0
1503511003978,4, 4, 0, 0, -2, -1, 1, 6, 0
1503511004001,-21, -4, -3, 0, 0, -1, 0, -1, 0
1503511004015,-4, -9, -3, 0, 0, -2, -1, 0, 0
1503511004038,12, 4, -4, -2, -1, 1, -1, 0, 0
1503511004060,-25, -4, -5, 0, 1, -1, -1, 1, 0
1503511004075,-19, -4, 0, 0, -2, -1, -3, -7, 0
1503511004098,18, 1, -2, -2, -1, 0, -1, 0, 0
1503511004120,-26, -6, 0, 0, -1, 0, 0, -2, 0
1503511004135,1, 12, 0, 1, -1, -2, -1, 1, 0
1503511004150,-10, 2, 1, -1, -1, -1, -1, -1, 0
1503511004171,2, 28, 8, -2, -1, -1, -1, -2, 0
1503511004179,9, 10, 5, 1, 0, 0, -1, 4, 0
1503511004203,29, -6, -2, -1, -1, 0, 0, 0, 0
1503511004219,7, 1, 0, 0, 1, -1, -1, -2, 0
1503511004240,-5, -3, -3, -1, -1, 0, -1, -3, 0
1503511004262,-5, 11, 1, -1, -2, -2, -2, -1, 0
1503511004278,5, 0, 1, 0, -1, 0, 0, 1, 0
1503511004300,-23, 5, -1, -2, 0, -2, 1, -3, 0
1503511004322,1, -25, -2, -3, -1, -2, -1, -4, 0
1503511004339,-12, 16, -1, -1, 0, -2, -2, -2, 0
1503511004361,-7, -9, -4, -2, -1, -2, 2, 1, 0
1503511004367,-4, 1, -2, -1, 0, -2, 1, 1, 0
1503511004390,-5, -4, -1, -2, -1, -1, -2, -4, 0
1503511004411,-13, 5, 2, 0, 0, -2, -1, -1, 0
1503511004434,-3, -6, -5, -1, 0, 1, 0, 1, 0
1503511004450,24, -5, -5, -1, -2, -3, 0, 1, 0
1503511004472,6, 6, 0, 0, 1, 0, 1, 2, 0
1503511004480,-12, 8, 2, 1, 0, -2, 0, -2, 0
1503511004503,5, 18, 5, 0, 0, 0, -1, -2, 0
1503511004520,-8, -13, -3, -1, 0, 1, 1, -1, 0
1503511004540,0, -6, -2, -2, -1, 1, -1, 4, 0
1503511004562,0, -4, 3, 0, -1, -2, -1, 0, 0
1503511004579,-2, 5, 0, 0, -1, -1, 1, -3, 0
1503511004600,-15, -6, -3, -1, 0, 0, -3, -4, 0
1503511004622,-12, -4, 0, 0, -2, 0, 0, -1, 0
1503511004638,0, -4, 2, -2, -1, -1, -1, 0, 0
1503511004652,21, -2, 1, -1, -2, -2, -2, -2, 0
1503511004667,13, -10, -3, 1, -1, 0, 2, 4, 0
1503511004690,-34, -3, -1, -2, -1, -1, 0, -2, 0
1503511004711,14, -2, -1, -1, -1, -3, -2, 1, 0
1503511004729,3, -9, 0, 1, 0, 0, -1, 4, 0
1503511004749,14, 5, -2, -1, -1, 1, 1, 2, 0
1503511004772,-12, -1, -3, -1, -3, 0, 0, -3, 0
1503511004787,6, 14, 3, 0, 0, -1, 0, -2, 0
1503511004819,7, 1, -2, 0, 0, -1, 0, 2, 0
1503511004840,-10, -9, 8, 0, 0, 0, 1, -2, 0
1503511004872,-2, 19, -4, -1, 0, -1, -2, -1, 0
1503511004891,5, -9, -3, 0, -2, -2, 0, 3, 0
1503511004907,-22, -12, -2, -2, -1, -1, 2, -4, 0
1503511004930,2, -3, -2, -1, 1, -2, -3, -2, 0
1503511004951,-2, -7, -1, 0, 0, -1, 0, -1, 0
1503511004967,26, -5, 0, 0, -1, -1, -1, 2, 0
1503511004990,-11, -8, -2, -1, -1, -2, -3, -1, 0
1503511005012,13, 14, 6, 2, -1, 0, -1, 2, 0
1503511005027,-6, 0, -4, -2, -2, 1, -1, -3, 0
1503511005049,-1, -9, -5, -2, -1, 0, 1, 0, 0
1503511005073,-18, -11, 2, 2, 0, 0, 0, -2, 0
1503511005094,-22, -3, -1, -1, 0, -2, -1, -5, 0
1503511005109,3, -12, -5, -1, 0, -2, 2, 4, 0
1503511005132,12, -9, -2, -3, -1, 1, 0, 1, 0
1503511005154,-3, 6, 1, 0, -1, 0, -1, -4, 0
1503511005170,6, 25, 0, -2, 0, -1, -1, 0, 0
1503511005191,-23, 7, 3, -2, -1, -2, 0, 0, 0
1503511005214,0, -2, 1, -1, 0, 0, -2, 1, 0
1503511005232,3, -4, -2, -2, -1, 0, -1, -3, 0
1503511005251,7, 2, 1, 1, 0, 0, 0, 2, 0
1503511005275,-18, -10, -3, -2, -1, 1, 0, -2, 0
1503511005290,5, -4, -1, 1, -1, 0, -4, -4, 0
1503511005311,1, -6, -4, -2, -1, -2, -1, -1, 0
1503511005334,10, 11, 2, 0, -2, -2, 0, -2, 0
1503511005349,5, -9, -5, 0, -1, 1, 0, -1, 0
1503511005371,9, 17, 7, 2, 0, -1, -3, -5, 0
1503511005380,-9, -11, -6, -1, -2, -1, 0, 1, 0
1503511005403,23, 6, -2, -1, 0, -2, -1, 1, 0
1503511005425,-8, 1, -1, -1, -1, -2, 0, -2, 0
1503511005441,-23, 0, 0, -2, 0, 0, -1, -4, 0
1503511005462,16, 2, -2, -3, -2, -2, -2, -5, 0
1503511005484,-6, 7, 6, 1, 0, 1, 0, 0, 0
1503511005500,-10, -9, 0, 0, 0, -1, -2, -2, 0
1503511005522,-4, 4, 1, 0, 0, 0, -2, -1, 0
1503511005545,20, 12, -1, -2, -2, 0, -1, -1, 0
1503511005560,-13, -10, -5, -1, -2, -1, 0, -5, 0
1503511005575,-10, 0, -2, -1, 0, 0, -3, -5, 0
1503511005590,-15, -10, 3, 3, 0, -1, -1, -2, 0
1503511005611,-26, 1, -1, 0, 1, -1, 1, -2, 0
1503511005634,-6, 0, -1, -2, 0, -1, -2, -5, 0
1503511005649,19, 3, 0, 0, 0, 1, 1, 0, 0
1503511005679,8, -1, 2, 1, 0, 0, -4, 1, 0
1503511005694,1, -8, -5, -1, 1, 1, 2, 0, 0
1503511005710,-13, 4, 2, 0, -1, -2, 0, -1, 0
1503511005731,-27, 3, -4, -1, -3, -2, -2, -2, 0
1503511005754,-6, 1, 0, -1, -1, -2, -1, -1, 0
1503511005770,-9, 10, 4, 1, 1, 0, 2, -3, 0
1503511005791,0, -18, -10, -2, -2, -2, -1, -3, 0
1503511005814,28, 3, 0, 0, 0, 0, 1, 4, 0
1503511005830,0, -3, 3, -1, 0, 0, 0, -1, 0
1503511005851,-6, 2, -3, -1, -3, 0, -2, -3, 0
1503511005874,6, -3, -3, -1, 0, -1, -2, -1, 0
1503511005889,20, 1, -2, -2, -2, -1, -2, -1, 0
1503511005911,27, 12, 2, -1, -1, -1, 1, 3, 0
1503511005928,-15, 1, 1, 0, -1, -2, -2, -6, 0
1503511005936,8, 0, -1, 0, -1, -1, 0, 2, 0
1503511005950,-7, 0, 3, 0, 1, -2, 1, 1, 0
1503511005971,23, 2, -2, -1, -2, 1, -1, 3, 0
1503511005994,-20, -5, -1, -1, 0, -1, -2, -7, 0
1503511006017,6, 3, 0, 0, -1, -1, -2, 0, 0
1503511006031,-4, -4, -1, -1, -1, -1, 0, 1, 0
1503511006047,-13, 1, -3, -3, 0, -1, 0, -1, 0
1503511006062,18, 7, 0, 1, 0, 0, 1, 2, 0
1503511006085,3, -2, -3, -1, -1, -1, 0, 0, 0
1503511006107,2, -6, 1, -1, 1, -1, 0, -2, 0
1503511006122,10, -2, -3, -2, -3, -2, -4, -2, 0
1503511006145,9, -8, -4, 0, -2, -1, -3, 1, 0
1503511006169,-11, 8, 2, 0, -1, 1, 1, -1, 0
1503511006182,-6, 0, 0, -2, -1, -1, 0, -1, 0
1503511006205,-34, 8, 6, 1, 0, 0, -1, -2, 0
1503511006227,5, -3, 0, 0, -2, 0, 1, 3, 0
1503511006245,-2, -6, -3, -2, 0, -1, -1, -3, 0
1503511006264,-4, -2, -2, -2, -1, -1, -1, -2, 0
1503511006287,-10, -19, -7, -1, -2, -1, -1, -1, 0
1503511006304,18, 2, -7, -2, 1, -1, -1, 1, 0
1503511006318,-11, -10, -4, -1, -1, 0, -2, -5, 0
1503511006340,13, 6, 1, -2, -2, -1, -1, 3, 0
1503511006355,20, 0, -1, -2, 0, 0, -1, 2, 0
1503511006380,-26, -11, -2, -2, 0, -2, -2, -2, 0
1503511006399,3, -4, 0, -1, 1, 1, 2, 3, 0
1503511006407,-2, 1, -1, -1, -1, -1, -2, 3, 0
1503511006422,-9, -8, -3, -2, -1, -1, -2, -6, 0
1503511006446,16, 12, 5, 2, -1, 0, -1, 3, 0
1503511006467,-9, 1, -3, -2, 0, -1, -1, -3, 0
1503511006482,-2, -3, 0, -1, 0, -2, 1, 2, 0
1503511006505,1, -10, -5, 0, 1, 0, -1, -4, 0
1503511006527,23, 4, 6, 1, 1, -1, 0, 4, 0
1503511006542,-10, -3, -3, -1, -2, -1, -3, -2, 0
1503511006564,-43, -6, -4, -3, -3, -1, 0, -3, 0
1503511006587,12, -2, -1, 0, -1, -2, 0, 0, 0
1503511006602,3, -9, 2, -1, 0, -1, -1, -6, 0
1503511006618,-6, -18, -4, -3, -2, -2, -2, -2, 0
1503511006641,22, 15, -2, -2, -2, -2, 0, 5, 0
1503511006655,2, -4, 5, 2, 0, 1, 2, 0, 0
1503511006682,9, -2, -4, 1, 0, 0, 0, 3, 0
1503511006700,8, -1, -3, -4, -2, 0, 0, 0, 0
1503511006716,-5, -4, -5, -2, -1, 0, -1, -4, 1
1503511006744,-7, 3, 5, -2, -2, 0, -2, -2, 1
1503511006760,-3, -3, -2, 2, -1, -1, -3, 0, 1
1503511006776,-4, 0, -3, -1, 0, -1, -1, -2, 1
1503511006797,1, 4, 2, 1, 1, 0, 1, 3, 1
1503511006820,6, -1, -2, 0, -1, 0, -1, 0, 1
1503511006835,-7, -4, 2, -1, 0, 0, -2, -2, 1
1503511006857,-1, 0, -1, 1, 1, -1, -1, -4, 1
1503511006883,14, 0, 1, -1, 0, 0, -2, 0, 1
1503511006895,-1, -3, -4, -1, -2, -2, -1, -1, 1
1503511006902,22, 3, 0, -3, -2, -1, 0, 2, 1
1503511006924,26, 3, 2, 0, -1, -1, 0, 2, 1
1503511006949,-4, -6, -4, -1, 0, 0, -1, -4, 1
1503511006969,-20, -6, 1, 1, -1, 0, 2, -3, 1
1503511006986,26, 3, 2, 1, -1, -1, 0, 5, 1
1503511007007,0, 4, 0, -6, -1, 1, -1, 0, 1
1503511007030,-20, -4, -2, 4, 1, -1, -1, -2, 1
1503511007045,-1, -3, -3, 0, 0, -1, -2, -2, 1
1503511007067,-27, -2, 2, -4, -1, -1, -2, -3, 1
1503511007090,-1, 2, -2, -3, -2, -1, 0, -1, 1
1503511007104,7, -3, -3, 5, -1, 0, 0, 0, 1
1503511007127,9, 1, -3, -7, -3, -1, -3, -3, 1
1503511007151,2, -1, 0, 2, 0, 0, 0, 2, 1
1503511007165,5, 0, -3, -3, -1, -1, -1, 0, 1
1503511007187,7, 0, 1, -3, 0, 0, 0, 1, 1
1503511007210,1, 1, 0, -1, -2, 0, -2, 0, 1
1503511007224,2, -4, 1, 1, 2, -1, 0, -1, 1
1503511007247,4, -1, -2, -17, -2, -1, -3, -2, 1
1503511007269,-7, 2, 0, 0, 1, -1, -2, -3, 1
1503511007285,2, -1, -2, -2, -3, -2, 0, -1, 1
1503511007309,-8, 1, -2, 3, 0, 1, 0, 3, 1
1503511007329,24, 0, 1, 0, -1, -1, -2, -1, 1
1503511007337,-17, -4, 0, -1, -1, -2, -3, -2, 1
1503511007345,-4, -3, 0, 7, -1, -1, 0, -2, 1
1503511007367,-1, 0, -1, -1, -3, 0, -1, -4, 1
1503511007390,-2, -4, -4, 2, -1, 1, -1, -3, 1
1503511007404,-1, 6, 8, 3, 0, -2, -1, 0, 1
1503511007427,10, -2, -3, -1, 0, 0, -1, 1, 1
1503511007450,19, 2, -3, -2, 0, 1, 3, 3, 1
1503511007464,0, 3, 0, -2, -1, -2, -2, 2, 1
1503511007487,1, 3, -3, -1, -2, -1, -1, -3, 1
1503511007515,0, 2, -5, -1, -2, -2, -1, -4, 1
1503511007521,8, 1, -5, -3, -3, -2, -1, -4, 1
1503511007540,14, 11, 1, 0, -1, 0, -1, 6, 1
1503511007555,-5, 9, 3, -2, 0, -1, -1, -4, 1
1503511007580,8, -2, -4, -2, -2, 0, 0, 4, 1
1503511007600,-8, 0, -6, -3, 0, -2, -2, -7, 1
1503511007616,7, 1, 9, 0, 0, -2, 0, 1, 1
1503511007638,37, -10, -12, -3, -1, 0, -1, 12, 1
1503511007661,-1, 3, 0, 0, -1, -1, -1, -7, 1
1503511007681,-24, -2, 3, 1, -2, -2, -3, -12, 1
1503511007698,14, 14, 7, 2, 0, -1, -2, -2, 1
1503511007720,-12, -5, 6, -1, 0, 1, 0, 2, 1
1503511007735,19, 1, -2, 0, 0, -1, 2, 13, 1
1503511007757,17, 8, -7, -3, -3, -2, -1, 7, 1
1503511007781,-32, -7, -2, 0, 1, -1, -3, -11, 1
1503511007795,-2, -2, 1, -1, -2, 0, 1, 2, 1
1503511007818,-19, -4, 0, -1, -1, -1, 1, -5, 0
1503511007840,-7, -6, -3, -2, 0, 0, -1, -6, 0
1503511007855,8, 11, 8, 1, 0, -1, 4, 5, 0
1503511007879,-14, -5, -6, -2, -3, 0, 1, 2, 0
1503511007900,3, 1, -1, 1, -1, -3, 0, 0, 0
1503511007922,17, -1, 1, -1, 0, -2, -8, -8, 0
1503511007938,-9, -5, -1, 0, 0, 0, -4, -15, 0
1503511007960,-32, -9, -5, -2, -2, -1, 2, 8, 0
1503511007982,5, -11, -2, 1, 0, -3, -1, 6, 0
1503511007998,-5, -3, 3, -3, -2, 1, -1, -8, 0
1503511008021,-26, 17, 4, 2, 0, 0, 1, 8, 0
1503511008042,19, -7, -8, 1, 1, 5, 1, 13, 0
1503511008057,3, 0, 0, -2, 2, 1, -4, -9, 0
1503511008080,-9, -6, -2, 2, 0, 0, 3, 2, 0
1503511008102,32, 6, -2, -3, -1, -1, 1, -4, 0
1503511008123,-10, -14, -5, -3, 0, -1, 4, 11, 0
1503511008140,10, -10, -6, -1, -5, -7, -17, -27, 0
1503511008162,-29, 9, 2, -1, 0, 1, 3, -2, 0
1503511008185,13, -3, 2, 0, -2, -3, 0, -12, 0
1503511008200,-37, -25, 0, -1, 1, 2, 7, -4, 0
1503511008222,-26, -10, -8, -4, -2, -3, -8, -5, 0
1503511008238,9, 23, 9, 2, 1, -1, 5, 0, 0
1503511008260,11, -1, -2, -2, -1, 0, 5, 4, 0
1503511008282,-19, -2, -8, -1, -2, -2, -2, 8, 0
1503511008299,18, 2, 3, -1, -2, -3, -4, -11, 0
1503511008320,32, -3, -2, -2, 0, 0, 1, 21, 0
1503511008342,28, 12, 3, 2, 0, -1, 0, -5, 0
1503511008358,15, -9, -9, 0, -3, -6, -13, -38, 0
1503511008381,-11, 4, 3, 0, -3, -2, 1, 3, 0
1503511008402,-7, 2, -1, -3, -3, -2, -1, 8, 0
1503511008418,1, 9, 12, 2, 0, 1, 3, 16, 0
1503511008440,-15, -1, -6, -1, -1, -1, 1, -7, 0
1503511008462,-18, -5, -2, -3, -3, -5, -4, -15, 0
1503511008477,-10, 0, -7, -2, 0, 0, 1, 2, 0
1503511008500,11, 16, -1, 0, -2, 0, 0, -1, 0
1503511008523,23, -27, -9, -3, 1, 1, 0, 31, 0
1503511008538,11, 9, -1, -1, 1, 2, 1, -6, 0
1503511008560,10, -2, -3, 0, -1, 1, 0, 8, 0
1503511008583,-15, -1, 2, 0, 0, -2, -3, -10, 0
1503511008597,-12, 5, 11, 16, 5, -8, 0, -3, 0
1503511008620,11, -5, -3, -7, -4, 3, 1, -4, 0
1503511008642,-5, 0, -1, -4, -3, 2, 2, 7, 0
1503511008658,-8, 6, 2, -2, -2, 1, -6, 1, 0
1503511008683,10, -23, 1, -6, 0, -1, 0, 8, 0
1503511008702,9, 4, -4, -2, -2, 1, 3, 10, 0
1503511008720,-6, -1, -2, -2, 1, -4, -4, -9, 0
1503511008740,17, -8, -4, 0, 0, -2, -3, 11, 0
1503511008762,-61, -9, -4, 0, -4, -7, -3, -16, 0
1503511008778,11, -9, -10, -3, -2, 3, -1, -4, 0
