1503513662629,0, 0, 2, 0, 0, -2, -1, -3, 0
1503513662651,1, -2, -1, -1, 0, -1, -2, 2, 0
1503513662674,-3, 1, 0, -2, 0, 0, -2, -1, 0
1503513662690,-1, 0, 0, 0, -2, -2, -1, 3, 0
1503513662711,1, 0, 0, -1, -1, -1, 1, -1, 0
1503513662734,2, 0, 0, -2, -1, 0, 0, 1, 0
1503513662750,0, -2, -1, -1, -2, -1, 0, -1, 0
1503513662771,-2, 0, -1, 1, 0, 1, 0, -3, 0
1503513662795,-3, -1, -1, -1, -1, -1, -2, -5, 0
1503513662809,1, -1, -1, -3, 0, -1, 1, 4, 0
1503513662831,-1, -1, -1, 0, 0, -1, -1, -3, 0
1503513662854,-2, 1, 0, -1, 0, -1, -4, 0, 0
1503513662869,-1, -1, -2, -1, 0, -1, -1, -1, 0
1503513662891,-2, -3, -2, -2, -1, 0, 0, 0, 0
1503513662914,-1, 1, 0, 0, -1, 0, 0, 1, 0
1503513662929,1, -1, -3, -1, 0, 0, 1, 0, 0
1503513662952,1, -3, 0, 1, 0, -1, 0, -1, 0
1503513662974,-2, -1, -1, -1, 0, -1, -2, -2, 0
1503513662989,0, 1, -1, 1, 2, -4, -1, -1, 0
1503513663011,-3, -1, -1, -2, -1, 0, -3, -5, 0
1503513663034,0, -1, 1, -2, -2, -1, 0, 0, 0
1503513663049,1, 0, -2, -1, -1, -1, 0, 0, 0
1503513663074,-1, -2, -1, 0, -1, 1, 0, 1, 0
1503513663094,1, -2, 0, 0, 0, -1, -2, -2, 0
1503513663109,-4, 0, -1, -1, -2, 1, -1, -5, 0
1503513663131,2, 1, -1, -1, 0, -3, 0, 1, 0
1503513663154,-1, -1, -1, 2, -2, 0, -1, -2, 0
1503513663177,0, -2, -1, -2, 0, -2, 1, 0, 0
1503513663185,-2, -1, -1, -2, -2, -2, -2, -4, 0
1503513663206,-2, -1, -1, 1, -1, 0, 1, -5, 0
1503513663215,-2, 0, -2, 1, 0, 0, 0, 2, 0
1503513663236,-2, 0, 2, 0, 0, -1, -2, -5, 0
1503513663251,-1, -1, -1, -1, 1, 0, 0, 0, 0
1503513663274,0, 0, -1, -1, -2, 1, -2, 0, 0
1503513663295,-2, -1, 0, 1, 0, -1, 1, 0, 0
1503513663304,-2, 0, 1, 1, 1, -1, 1, -1, 0
1503513663335,0, -1, 0, -1, -1, 0, 1, 0, 0
1503513663359,-2, -1, 0, -1, -2, -1, 1, -1, 0
1503513663371,-3, -2, -1, 1, -1, -1, -2, -7, 0
1503513663394,3, 0, -1, 0, -2, 0, 0, 3, 0
1503513663420,9, 10, 1, 0, -1, -1, -3, 3, 0
1503513663431,-4, -4, -1, -1, 1, 1, -1, 1, 0
1503513663454,-1, -2, 0, -1, 1, -1, 0, 0, 0
1503513663475,-2, -2, -1, -1, 0, -2, -2, -1, 0
1503513663492,-2, 0, -1, -2, 0, 0, 0, -1, 0
1503513663514,-3, -1, 0, -1, -1, -1, -2, 0, 0
1503513663536,-3, -4, -2, -1, 1, -1, 0, -3, 0
1503513663552,1, 2, 1, -1, -1, 0, -1, -1, 0
1503513663574,0, -2, -3, 1, 0, -2, 0, -2, 0
1503513663596,-1, 0, -2, 0, -2, 0, 1, 0, 0
1503513663611,-1, -2, -1, -2, 0, -2, -2, 1, 0
1503513663634,0, -1, -1, 0, -2, -1, -1, -2, 0
1503513663656,-2, 0, -1, -1, 0, -2, 1, -1, 0
1503513663671,2, -1, -2, -3, 1, 1, -1, 1, 0
1503513663694,0, 2, 1, 1, -2, -1, -1, 0, 0
1503513663716,-4, -4, -1, -3, -1, -1, 0, -3, 0
1503513663731,-1, -2, -2, 0, -1, 1, 0, 0, 0
1503513663754,2, 2, 1, 1, -1, -1, -1, 4, 0
1503513663775,-1, -3, -1, 0, 0, -1, 1, -1, 0
1503513663786,-3, -1, 2, -1, -1, -1, 1, 1, 0
1503513663806,2, -1, -1, 0, -2, 0, -2, 2, 0
1503513663822,-1, -2, -1, 0, 0, 0, -1, -3, 0
1503513663844,-1, 0, -1, -2, 0, -2, -1, 0, 0
1503513663866,1, -1, -3, 1, -2, -1, -1, 1, 0
1503513663882,2, 3, -3, -6, -6, -3, -2, 0, 0
1503513663904,-1, -3, -3, -1, 0, 0, -1, -1, 0
1503513663926,1, 4, 1, -1, 3, -1, -1, -3, 0
1503513663942,-1, -2, 0, -1, 0, -2, 1, -1, 0
1503513663958,0, 3, -1, -3, -3, -2, -1, -2, 0
1503513663971,-2, -1, -2, 0, -1, 0, -1, 0, 0
1503513663994,-1, 0, 0, -1, -2, -2, 0, 0, 0
1503513664015,3, 3, 0, 0, -2, -1, 0, 0, 0
1503513664038,5, 7, -1, -1, -6, 0, -2, 1, 0
1503513664060,1, -1, -1, 2, 2, -2, -1, 2, 0
1503513664075,0, 2, 2, 7, 9, 1, 0, -2, 0
1503513664098,-8, -8, -4, -3, -3, -2, -4, -6, 0
1503513664114,0, -2, -2, -8, -3, 0, -2, -2, 0
1503513664135,19, 21, 2, 7, 9, -1, -1, 3, 0
1503513664158,-11, -10, -4, -8, -2, -1, 0, -4, 0
1503513664174,-4, -4, -1, -1, -5, -1, -1, 2, 0
1503513664196,-8, -4, 1, 3, 1, 2, 0, -4, 0
1503513664204,2, 6, -1, -7, -4, -3, -2, 0, 0
1503513664227,0, -3, 0, 2, 0, 0, 3, -1, 0
1503513664249,2, 1, -9, -12, -5, 0, -2, 0, 0
1503513664264,4, 1, 1, 6, -1, -2, 2, 2, 0
1503513664286,-3, 0, 8, 9, 12, 3, -1, -2, 0
1503513664309,-7, -5, 16, 33, 32, 7, 3, -4, 0
1503513664328,-8, -9, 9, -29, -25, -3, -4, -1, 0
1503513664346,10, 8, -6, 7, 17, 7, 6, 9, 0
1503513664369,4, -3, 0, 9, 1, -2, -5, -2, 0
1503513664384,7, 17, 18, 30, 38, 11, 0, 4, 0
1503513664406,-16, -26, -39, -35, -24, -9, -7, -8, 0
1503513664429,-1, -3, 4, -7, -20, -4, -2, -8, 0
1503513664444,-13, -15, -3, 0, 15, 10, 1, -3, 0
1503513664466,5, -4, -14, -23, -10, -3, -2, -3, 0
1503513664474,39, 34, 9, 14, 14, 9, 3, 8, 0
1503513664503,-13, -21, -9, -6, 4, -1, -1, 1, 0
1503513664518,-11, -10, -12, -38, -76, -32, -8, -6, 0
1503513664534,-17, -26, -12, 5, -6, 0, 3, -4, 0
1503513664559,-19, 16, 31, 8, -5, -6, -7, -15, 0
1503513664578,-2, 4, 27, 17, 33, 9, 8, 10, 0
1503513664594,4, -2, -13, -9, -10, 1, -2, 1, 0
1503513664616,3, 58, 59, 26, 23, 12, 1, -1, 0
1503513664638,-16, -73, -3, 14, 36, 18, 5, -4, 0
1503513664654,10, 6, -29, -27, -29, -13, 7, 2, 0
1503513664677,1, -3, -14, 1, 0, -2, -7, 4, 0
1503513664698,-10, 35, -19, -10, 10, 3, -7, -11, 0
1503513664714,6, -36, -28, -12, -5, 1, -1, 4, 0
1503513664736,9, 14, 3, 45, 38, 3, -1, 3, 0
1503513664760,-4, -1, -9, -23, -16, -3, -3, -1, 0
1503513664774,-8, -19, 6, 12, 20, 11, 6, 3, 0
1503513664796,4, 9, -16, -15, 0, 1, -3, 1, 0
1503513664818,2, 2, 12, 34, 35, 11, 4, 2, 0
1503513664834,10, -24, -56, -22, 16, 25, 6, 3, 0
1503513664849,22, 50, 3, 1, 19, 1, -4, -3, 0
1503513664865,-9, -14, -17, 3, 0, 5, -2, -3, 0
1503513664886,9, 11, 45, 11, -53, -10, 4, 9, 0
1503513664909,-7, -12, 5, 13, 12, -7, 22, -6, 0
1503513664924,28, 68, 108, 8, -5, 2, 22, 7, 0
1503513664946,-32, -53, -45, -38, -24, 13, -12, -23, 0
1503513664969,44, 41, 21, 81, 104, 60, 39, 89, 0
1503513664991,-5, -6, -7, 6, 5, 2, 0, 0, 0
1503513665006,-59, -59, -30, -5, 11, -7, -32, -103, 0
1503513665029,3, -44, -71, -79, -81, -59, -26, 24, 0
1503513665051,0, 2, -4, -6, -20, -26, 3, 6, 0
1503513665066,-8, 0, -2, 4, 5, -3, -29, -34, 0
1503513665089,4, 12, 15, 14, 10, 3, -6, 5, 0
1503513665111,5, 4, 10, 25, 40, 11, 0, 12, 0
1503513665129,-6, 1, 6, 10, 7, 6, -2, -24, 0
1503513665149,1, 1, 5, 24, 23, 16, 3, 4, 0
1503513665171,2, -2, -4, -10, -5, -2, 0, 2, 0
1503513665186,1, -7, -5, 1, 6, 2, 2, 11, 0
1503513665209,-1, -5, 4, -1, -6, -2, 5, 5, 0
1503513665232,-1, 3, -2, -6, -2, -1, -3, 0, 0
1503513665246,-4, -2, -2, -13, -11, -1, 0, -2, 0
1503513665269,-1, 1, -4, 1, 1, -1, -1, -3, 0
1503513665291,0, -6, -9, 0, 3, -2, -5, -4, 0
1503513665307,-5, 3, -9, -11, -11, -5, -6, -13, 0
1503513665331,3, -1, -2, 2, 6, 4, 4, 6, 0
1503513665351,0, -1, 1, 6, 3, 2, 0, 2, 0
1503513665368,3, 1, 3, 0, 2, 3, 1, -1, 0
1503513665388,-2, -5, -4, 7, 6, 0, 0, 2, 0
1503513665411,-3, 2, 11, -5, -4, -2, -2, -12, 0
1503513665426,-3, 1, -3, -4, -2, -1, -1, 2, 0
1503513665448,2, -4, -5, 6, 7, 3, 0, 17, 0
1503513665471,-3, -6, -10, -15, -9, -3, -2, -5, 0
1503513665486,1, 1, 4, -2, -5, -3, 1, -1, 0
1503513665509,-4, -4, -2, -1, -1, -1, 0, 0, 0
1503513665532,1, -1, -3, -2, -3, -1, -1, -1, 0
1503513665546,4, 6, 6, 4, 7, -1, 0, -3, 0
1503513665569,-2, 1, 8, -1, 4, 2, 6, 5, 0
1503513665591,3, 3, -4, -5, -7, -2, 1, 1, 0
1503513665607,-19, -2, 23, 13, 2, -2, -1, -4, 0
1503513665629,-4, 1, -13, -18, -8, -4, -1, -3, 0
1503513665651,-5, -9, -7, 0, -3, -2, -9, -7, 0
1503513665666,6, 1, 1, 0, -3, -2, 1, 3, 0
1503513665689,-2, -14, -10, 4, 2, 1, 3, -1, 0
1503513665711,9, 15, -4, 2, 0, -2, -1, 2, 0
1503513665726,-12, -11, -3, -10, -12, -3, -2, -3, 0
1503513665749,1, 11, 5, 4, 5, -1, -5, 1, 0
1503513665772,6, 2, 1, 0, -3, -2, -4, -2, 0
1503513665786,0, 6, 9, 7, 0, 1, -2, -10, 0
1503513665809,-2, -8, -6, -5, 0, 0, 1, 1, 0
1503513665832,1, 4, 1, 3, 2, 0, 2, -3, 0
1503513665839,-3, 2, -4, -5, -4, 14, 7, -1, 0
1503513665860,38, 15, 1, -1, -1, 2, -1, -19, 0
1503513665876,34, 18, 7, 7, 7, -5, 0, 10, 0
1503513665898,-21, -8, 6, 8, 3, -4, -9, -4, 0
1503513665920,4, 1, 4, 3, -3, -1, 5, 9, 0
1503513665943,1, 5, 9, 8, 6, -2, -3, 7, 0
1503513665958,-38, -16, 0, -4, -6, -2, 1, 2, 0
1503513665980,-4, -4, -1, 7, 8, 3, 1, -5, 0
1503513666003,16, 10, 4, -9, -12, -6, -5, 3, 0
1503513666018,-31, -23, -7, -2, -6, -3, -4, -1, 0
1503513666041,-2, -3, -13, -8, -2, -3, -6, 3, 0
1503513666063,-9, 5, 1, 0, -6, -2, -4, -9, 0
1503513666087,19, 3, -1, 26, 18, 1, -1, -7, 0
1503513666102,-6, 7, 2, -11, -17, -7, 1, -14, 0
1503513666124,-28, -8, -3, -8, 0, -1, -1, 11, 0
1503513666146,3, 4, -12, 1, 0, 0, -5, -8, 0
1503513666154,-4, 0, 1, -5, -11, -4, 2, -12, 0
1503513666170,-6, 4, 13, 6, -1, -1, -4, -7, 0
1503513666191,12, -5, -5, -4, 3, -3, -7, 3, 0
1503513666213,-37, -13, -10, 10, 9, 3, -2, -6, 0
1503513666222,3, -3, -11, -11, -7, -3, 4, -15, 0
1503513666244,-2, -5, 1, 2, 5, 2, -5, -8, 0
1503513666251,0, 0, -7, -1, -1, -2, -4, 4, 0
1503513666274,-4, 15, 8, 5, 2, 2, 4, 26, 0
1503513666289,-12, -20, -15, 1, 3, -1, 0, 1, 0
1503513666312,15, 8, -3, -4, -1, 0, 1, 9, 0
1503513666334,5, 25, 17, 4, 1, 1, 2, 23, 0
1503513666343,2, 8, 16, 9, 4, -2, 1, 26, 0
1503513666365,15, 9, -4, -7, -5, -1, 0, -4, 0
1503513666387,-14, -8, -8, -6, 0, -2, -2, -14, 0
1503513666404,-6, 0, -3, 6, 4, 1, -3, 0, 0
1503513666424,10, 6, 2, -4, -13, -9, -1, -7, 0
1503513666447,-4, -1, -4, -13, -6, 0, 2, 3, 0
1503513666462,0, 6, 4, 3, 0, 0, -3, 8, 0
1503513666484,54, 16, -1, 5, 4, 0, 2, 46, 0
1503513666507,-15, -8, -3, -6, -2, 3, -2, -18, 0
1503513666522,-14, -7, 0, 1, 1, 1, 3, 1, 0
1503513666545,-22, -10, -5, -7, -6, -7, -6, -17, 0
1503513666567,16, -7, -5, -1, -1, 0, 2, -1, 0
1503513666589,-6, 22, 15, 2, 2, -1, -5, -24, 0
1503513666605,-23, -12, -4, -12, -11, -2, -8, -47, 0
1503513666611,7, 6, -2, 1, 0, -1, 1, 5, 0
1503513666633,-13, -5, -17, -9, -8, -5, 3, -2, 0
1503513666642,-11, -14, -7, 0, 0, 1, 1, -7, 0
1503513666664,-33, -1, -3, -5, -1, 0, -1, -5, 0
1503513666687,23, 4, -3, -2, 2, -2, 1, 12, 0
1503513666701,-2, 4, 6, 8, 3, 5, 3, 10, 0
1503513666709,-6, 5, 5, -1, -3, -4, -12, -31, 0
1503513666724,5, 24, 38, 7, 4, 0, 2, 22, 0
1503513666747,3, 6, 2, 0, -4, 0, -6, -11, 0
1503513666761,9, -2, -7, -6, -3, -2, 1, -7, 0
1503513666784,-15, -9, -8, -4, -10, -20, -10, -13, 0
1503513666808,0, -18, -8, 0, 1, 6, 3, 5, 0
1503513666822,8, 3, -9, -3, -4, 0, -1, -22, 0
1503513666845,-33, -10, -12, -14, -12, -21, -6, -12, 0
1503513666867,-13, -2, 5, 17, 18, 4, -8, -4, 0
1503513666882,6, 5, -1, -1, 1, -11, -7, 4, 0
1503513666896,8, 10, -1, 2, 2, 0, 7, 11, 0
1503513666911,-34, -32, -13, -13, -15, -9, 1, 8, 0
1503513666934,13, 7, 7, -2, -13, -16, -4, 5, 0
1503513666956,-3, 6, -4, -12, -12, -11, -5, -3, 0
1503513666971,-14, 3, 16, 11, 12, -2, -6, -27, 0
1503513666993,-4, -8, -4, 1, 5, 5, -4, -34, 0
1503513667017,19, 9, 4, 6, 27, 14, 2, 11, 0
1503513667031,16, 9, -2, -8, -9, 0, -1, -4, 0
1503513667054,-11, -9, 19, 16, 8, 2, 2, -1, 0
1503513667077,11, 0, -5, -3, -5, -7, -2, -9, 0
1503513667091,13, -8, -15, -11, -19, -10, -8, 26, 0
1503513667114,-24, -19, -4, -2, -6, 2, -3, -7, 0
1503513667136,-15, 7, 0, -5, -4, -5, 0, 3, 0
1503513667151,26, 3, -8, 0, 10, 2, -4, 10, 0
1503513667176,-7, -7, -9, -12, -12, -4, 3, 4, 0
1503513667196,-7, -4, 0, 8, 6, 2, 3, -5, 0
1503513667211,13, 10, 8, 3, 1, 10, 3, -16, 0
1503513667233,12, 0, -8, -6, -8, -8, -3, 8, 0
1503513667256,-27, -7, -3, 2, 31, -2, 2, -10, 0
1503513667271,16, 0, 14, 6, 4, -2, -3, 8, 0
1503513667294,17, 18, 4, 8, -5, -1, -1, 4, 0
1503513667316,-13, -6, -8, -32, -49, -12, -2, 6, 0
1503513667331,-3, -8, -2, -8, -1, 1, -10, -7, 0
1503513667354,13, -5, 5, -1, -6, -4, 1, 57, 0
1503513667377,-18, -4, -6, 14, 19, 5, 2, -39, 0
1503513667391,-7, -6, -9, -1, 1, 2, 4, -12, 0
1503513667407,0, 3, 4, -3, -25, -14, -3, -18, 0
1503513667422,-2, -2, 0, 8, 8, -7, -5, -12, 0
1503513667445,4, -7, -13, -9, -3, -2, 0, 23, 0
1503513667466,20, 7, -3, -6, 1, 3, -5, -10, 0
1503513667481,7, -11, 0, -1, -13, 19, 18, 20, 0
1503513667504,-39, -19, -13, -20, -7, -1, -12, 7, 0
1503513667533,0, -4, 3, -1, 0, -14, -4, 10, 0
1503513667541,11, 14, 12, 7, 8, 0, -7, -8, 0
1503513667564,-4, -4, -2, -9, -11, -12, 4, -6, 0
1503513667587,12, 18, 25, 17, 13, 8, 1, -5, 0
1503513667601,-6, -8, -5, -3, -6, 0, 1, -7, 0
1503513667616,-35, -7, -7, -15, -17, -2, 10, -28, 0
1503513667631,3, -8, -8, -8, 3, 4, -7, 10, 0
1503513667654,31, 11, 0, 2, 9, 17, 22, 17, 0
1503513667676,3, -3, 0, 3, 2, -11, -4, -8, 0
1503513667691,22, 10, 10, 16, 25, 14, 4, 17, 0
1503513667714,19, 6, -3, -16, -18, 7, -10, -13, 1
1503513667736,16, 25, 25, -1, -9, -13, -3, 12, 1
1503513667751,8, 1, -8, 2, 0, -7, -1, 12, 1
1503513667773,-20, -13, -7, -1, -3, 17, 10, 13, 1
1503513667796,-46, -13, -6, -6, -13, -15, -4, -9, 1
1503513667819,3, -9, -19, -3, 4, -11, -11, -21, 1
1503513667833,14, 8, 4, 4, -3, -8, -13, -34, 1
1503513667849,-1, -5, -3, -6, -1, 7, -4, -12, 1
1503513667871,13, 7, 10, 26, 33, 5, 2, 31, 1
1503513667893,-6, 10, 4, -8, -11, 0, -4, -31, 1
1503513667909,25, -8, 6, 2, -1, 3, 1, 4, 1
1503513667924,-14, 3, 1, -29, -37, -13, -6, -3, 1
1503513667949,1, -6, -12, -11, -10, 8, 4, 27, 1
1503513667969,48, 6, 0, 6, 5, -2, 6, 68, 1
1503513667985,-24, 6, 6, 6, 9, 4, -4, 5, 1
1503513668007,-12, -3, -6, -9, 6, 2, -6, -34, 1
1503513668029,11, -1, -6, -7, -16, -9, -4, -17, 1
1503513668044,-15, -24, -26, -9, -8, -6, 1, -28, 1
1503513668067,1, -5, -11, 0, 5, -1, 2, 11, 1
1503513668089,7, 15, 17, -7, -24, -26, -1, 12, 1
1503513668104,15, 5, 5, 5, 1, 0, -10, -34, 1
1503513668127,-15, -5, 2, 7, 10, 6, 6, 0, 1
1503513668134,-5, -8, 2, 1, 2, 9, 5, -10, 1
1503513668156,-19, -9, -7, -5, -13, 0, 1, -4, 1
1503513668179,-3, -5, -10, -13, -7, -2, -19, -74, 1
1503513668194,11, 6, 5, -4, -9, -1, 3, 29, 1
1503513668218,-7, -3, 6, 5, 4, 0, 0, 16, 1
1503513668239,9, -5, -10, -4, 0, 2, 7, 58, 1
1503513668256,-8, -5, -3, -4, -1, -2, -4, 34, 1
1503513668269,-6, 5, 6, 3, 4, 1, -4, -19, 1
1503513668285,-3, 5, 1, -2, -8, -4, -6, -26, 1
1503513668307,9, -3, -6, -3, 2, 3, 10, 50, 1
1503513668329,-3, -1, -5, 0, 4, 9, 6, 16, 1
1503513668344,-1, -4, 2, 10, 14, 3, 0, 16, 1
1503513668373,-17, 2, 3, 14, 25, 3, 4, -44, 1
1503513668389,6, 17, 13, -5, -15, -7, -3, -12, 1
1503513668404,0, -14, -13, -4, -1, 2, -9, -17, 1
1503513668428,26, 8, -7, -7, -9, -4, -2, -2, 1
1503513668449,6, 5, 6, -2, -8, -5, 1, 4, 1
1503513668464,-13, -4, 1, 14, 19, 2, -5, 15, 1
1503513668487,-13, 3, 2, -5, -9, -3, -2, -19, 1
1503513668509,12, -2, -3, -2, -2, -1, 0, 15, 1
1503513668524,-13, 4, 4, -2, -2, 2, 0, 1, 1
1503513668547,-5, -1, 1, -2, -1, -1, -2, -2, 1
1503513668568,6, 0, 0, -2, 0, 1, 5, 4, 1
1503513668587,18, 3, -4, -8, -10, -2, 2, 10, 1
1503513668607,-1, 0, -1, -2, -4, 0, -4, -19, 1
1503513668629,-9, -12, -6, -4, -10, -3, 1, 5, 1
1503513668644,-7, 22, 18, 7, 5, 0, -6, -17, 1
1503513668667,-2, -12, -15, -2, 0, 0, -1, -12, 1
1503513668689,-2, -7, -3, -3, 4, 4, -5, -5, 1
1503513668696,-2, -2, 0, 13, 14, 2, 4, 26, 1
1503513668720,-10, -5, -1, -2, -3, -2, 1, -5, 1
1503513668740,1, 2, -2, -3, -2, -2, -6, -11, 0
1503513668757,-8, -8, 1, -4, -5, -1, -5, 3, 0
1503513668778,-3, -8, -5, -1, -6, -2, -1, 10, 0
1503513668788,18, 15, -1, 4, 4, 0, -1, 3, 0
1503513668809,-5, -2, 3, 8, 3, 0, 1, -6, 0
1503513668831,7, 5, 2, -8, -8, -1, -1, 17, 0
1503513668847,-11, -12, -12, -6, -6, -2, -6, -17, 0
1503513668868,-1, -18, -9, -9, -4, 0, 1, 1, 0
1503513668892,-3, -8, -6, 2, 17, 4, -2, -8, 0
1503513668906,-7, -1, 0, 1, 12, 3, 4, -4, 0
1503513668929,0, -10, -10, -7, -13, -7, -3, -25, 0
1503513668951,14, 17, 3, -12, -19, -6, 1, -9, 0
1503513668966,-1, -4, -2, 6, 2, -1, 1, 13, 0
1503513668989,-1, 27, 26, 11, 3, 3, -3, -8, 0
1503513668997,-5, -5, -8, -10, -2, -1, -4, -7, 0
1503513669019,-2, -1, 4, -1, -6, -1, 0, 2, 0
1503513669040,-16, -3, -7, -10, -13, -6, -1, -35, 0
1503513669056,-1, -11, -9, -8, -10, -4, -4, -3, 0
1503513669079,-7, 3, 0, -4, -6, 0, -1, 3, 0
1503513669101,8, -10, -6, -4, -2, -3, -1, 10, 0
1503513669116,0, -1, 6, 5, 5, 2, -1, 8, 0
1503513669145,-5, -4, -4, -8, -12, -4, -3, -8, 0
1503513669161,2, 1, 4, 0, -3, -1, 1, -1, 0
1503513669169,-1, -2, 4, 1, -1, -4, -1, -3, 0
1503513669191,-20, 3, 6, -7, -8, -1, 2, -11, 0
1503513669207,-4, 22, 2, 3, 2, 4, 4, 1, 0
1503513669229,-3, -4, -3, -8, -4, -5, -8, 0, 0
1503513669251,-5, 24, 21, 1, 0, -2, 0, 1, 0
1503513669268,14, 16, 16, 3, -3, 1, 2, -11, 0
1503513669291,-11, -11, -1, -1, -2, 0, 4, -8, 0
1503513669311,15, 7, -8, -7, -3, -3, 0, 15, 0
1503513669329,-6, -11, -7, 0, -1, -4, -4, -6, 0
1503513669349,-11, -14, -7, -2, -1, -3, -11, -7, 0
1503513669371,0, -25, -6, 3, 2, 2, -6, -20, 0
1503513669387,4, -13, 0, 10, 5, 1, 1, 4, 0
1503513669409,-2, -1, -5, -3, 2, 0, -1, 4, 0
1503513669432,-5, -14, -10, -8, -7, -1, 0, -7, 0
1503513669447,0, 5, -3, 0, 1, 1, 5, 12, 0
1503513669470,5, 10, 5, 9, 10, 3, -2, -13, 0
1503513669493,-4, -1, -17, -20, -16, -6, -2, 5, 0
1503513669507,-2, -22, -13, -4, -2, -1, 3, 20, 0
1503513669530,-9, -1, -1, -4, -4, -4, -8, -1, 0
1503513669551,5, -2, -3, -5, -2, 3, 11, 7, 0
1503513669567,-1, 5, 0, -2, -4, 3, -1, -25, 0
1503513669590,0, 7, -4, -14, -12, -5, -3, 16, 0
1503513669611,-4, 19, 4, 7, 2, 0, 0, -5, 0
1503513669628,5, -3, -6, -2, 0, 0, 4, 36, 0
1503513669649,1, -8, -2, -1, 2, -1, -10, -8, 0
1503513669671,2, -14, 0, 9, 6, 0, 2, -3, 0
1503513669694,2, 1, 4, 3, 2, -1, -1, -9, 0
1503513669709,-6, -1, 4, 13, 9, -1, -18, -36, 0
1503513669731,2, -6, -7, -9, -9, -4, 5, 4, 0
1503513669753,-3, 4, 3, -1, 1, 0, 2, 0, 0
1503513669770,1, 6, 8, 7, 4, 1, 4, 23, 0
1503513669791,2, -8, 2, 4, 5, 3, 3, 3, 0
1503513669813,-9, -1, -4, -11, -7, -3, -2, -6, 0
1503513669830,2, -6, -4, -2, -4, -2, 2, 2, 0
1503513669851,0, -10, -5, 3, 3, 0, 0, -1, 0
1503513669874,-4, 5, 5, 24, 15, 3, 1, -5, 0
1503513669895,0, 13, 4, -13, -8, -4, -8, 7, 0
1503513669911,-2, 1, 1, 0, 1, 1, -1, 0, 0
1503513669935,-2, -1, 0, -5, -4, -1, -4, -11, 0
1503513669949,0, 3, -1, -1, 0, -1, 0, -22, 0
1503513669971,-1, -6, -5, -2, -2, -1, 2, 6, 0
1503513669999,6, 2, -4, -8, -6, -2, 5, 6, 0
1503513670009,-1, -15, -4, 3, 1, 0, 0, -5, 0
1503513670031,-1, 3, 7, 1, -4, -2, -5, -2, 0
1503513670038,0, 7, 6, -5, -3, -3, -3, -1, 0
1503513670063,2, -15, -12, -3, -2, 1, 5, 4, 0
1503513670083,0, 5, 1, 2, 1, 0, -5, 14, 0
1503513670099,2, -6, -6, -7, -5, -1, 9, 10, 0
1503513670121,-3, 2, -1, -9, -1, 0, -4, -15, 0
1503513670143,-6, -14, -4, 0, -2, -4, -6, -13, 0
1503513670158,-3, 8, 7, -1, -3, -2, -5, 1, 0
1503513670180,-3, -6, -3, 4, 4, 1, 1, -2, 0
1503513670203,18, 18, 0, -3, -2, -2, 0, 0, 0
1503513670218,-12, -7, 1, 0, -2, -2, -1, 0, 0
1503513670240,-1, -2, -6, -2, -2, 1, -1, -8, 0
1503513670264,1, 4, 2, -2, -1, -1, -3, -11, 0
1503513670278,5, -4, 0, 7, 2, 0, 1, -2, 0
1503513670300,-5, -4, -2, 0, -2, -1, 1, 0, 0
1503513670323,6, 2, 2, 15, 15, 3, 1, -1, 0
1503513670339,-8, 3, 5, -7, -9, -5, -5, -5, 0
1503513670361,-3, -5, -5, -1, 1, -1, -1, 6, 0
1503513670383,10, 1, 1, 2, -6, -2, 1, 11, 0
1503513670399,-6, 1, 3, 3, 0, -2, -4, -5, 0
1503513670429,13, 4, -3, -8, -4, -3, 0, -1, 0
1503513670443,0, -5, 1, -1, -6, -7, -1, 14, 0
1503513670458,-15, -1, 1, -4, -4, -2, -2, -16, 0
1503513670481,2, 3, 3, 9, 11, 4, 1, -5, 0
1503513670503,-12, -7, -7, -6, -2, 1, 3, 7, 0
1503513670518,21, 5, -1, 0, -3, -1, -6, -14, 0
1503513670541,3, 3, -1, -2, 4, 3, 3, 5, 0
1503513670563,-11, -5, -3, -8, -6, -2, -2, -9, 0
1503513670578,-20, -13, -2, 3, 7, 1, -1, 3, 0
1503513670601,-2, 0, -1, -3, -4, 0, 4, 16, 0
1503513670623,-7, -3, -4, 0, -2, -1, 3, 0, 0
1503513670645,0, 2, 4, -6, -10, -1, -3, -7, 0
1503513670661,-3, 4, 2, -1, -1, 1, -1, -10, 0
1503513670682,5, 0, 0, 4, 7, 3, 3, 16, 0
1503513670705,5, 4, -1, -1, -3, -4, -8, -8, 0
1503513670721,-8, -8, -6, -6, -5, -1, 1, -5, 0
1503513670743,-17, -11, -6, 0, -2, -4, -1, -2, 0
1503513670769,-62, -19, -7, -10, -13, -4, -2, -7, 0
1503513670781,20, -4, -6, 5, 8, 2, 0, 14, 0
1503513670803,27, 10, 4, -3, -8, -8, 1, 0, 0
1503513670825,13, 6, -1, 1, 5, -1, -10, 0, 0
1503513670841,15, 7, 4, 1, 0, -2, -3, -2, 0
1503513670863,4, -4, -6, -2, 0, 2, 3, -5, 0
1503513670885,-1, -6, -5, -7, -8, 0, 5, -9, 0
1503513670902,5, 4, 4, 4, 4, 1, 2, 5, 0
1503513670922,9, -7, -12, -2, 2, 2, 2, -7, 0
1503513670945,-5, -5, 0, 2, 3, 0, -2, 1, 0
1503513670961,-20, -3, 3, 0, -1, 1, -3, -1, 0
1503513670982,-8, -4, -1, 2, 1, -3, -6, -22, 0
1503513670991,-1, -7, -7, -6, -7, 3, 5, 19, 0
1503513671013,-8, -5, -7, -2, 0, 5, 5, 7, 0
1503513671041,-8, -7, -2, 2, 9, 1, -5, -12, 0
1503513671052,-8, -8, -8, -5, -9, -12, -3, -15, 0
1503513671079,-7, 2, -3, 0, 9, 9, 8, -2, 0
1503513671096,-17, -5, 1, -4, -5, -2, -6, -15, 0
1503513671111,-2, 0, 3, 8, 8, 1, -7, -28, 0
1503513671133,4, 1, 4, 1, -2, 0, 1, 21, 0
1503513671156,6, -3, -6, -4, -2, 2, -2, -4, 0
1503513671171,-4, -5, -3, -2, -6, -4, -9, -30, 0
1503513671194,0, -11, -4, -1, -1, 0, 2, 13, 0
1503513671216,-2, 5, 0, -3, 5, 2, -2, 5, 0
1503513671231,-3, 0, 3, 0, -2, 0, -6, -4, 0
1503513671253,-1, -4, -1, 2, -1, -1, 6, 37, 0
1503513671276,14, 11, 3, -1, -2, 0, 4, 6, 0
1503513671291,-2, -4, 1, 8, 14, -13, -2, 3, 0
1503513671314,-8, -6, -5, -4, -7, 2, 2, -7, 0
1503513671338,6, -1, -6, -8, -4, 4, 10, 36, 0
1503513671351,10, 7, 1, 0, -3, 2, -2, -8, 0
1503513671374,-10, 0, 3, 0, 3, 0, -7, -18, 0
1503513671406,3, 1, 3, 8, 5, 1, -1, 2, 0
1503513671411,-5, -4, -1, -6, -11, -2, -3, -7, 0
1503513671433,-2, -9, -9, -5, -8, -1, 1, -7, 0
1503513671456,-5, 6, 4, 5, 5, 3, 3, -6, 0
1503513671473,1, 2, -1, -6, -15, -3, -3, -6, 0
1503513671493,9, 3, -1, -7, -4, -2, -5, 4, 0
1503513671516,1, 0, -2, -1, 2, -1, 0, -11, 0
1503513671540,-8, -4, -1, -1, -1, -3, -7, -18, 0
1503513671553,-1, 1, 3, -2, 0, -1, -1, 4, 0
1503513671576,-2, -1, -4, -1, -3, -1, 3, -1, 0
1503513671598,18, 8, 1, 3, 5, 6, -2, -1, 0
1503513671614,18, 11, 4, -3, -7, -3, -3, -14, 0
1503513671636,-8, -9, -5, -3, -1, 0, -3, 13, 0
1503513671658,-15, -3, 0, 0, 0, -2, 3, -7, 0
1503513671674,-3, -4, 3, 25, 34, 7, 1, -23, 0
1503513671696,21, 4, -3, -12, -14, -4, -3, 6, 0
1503513671718,6, 3, -2, -6, -8, -4, 0, 9, 0
1503513671734,-7, -4, 1, 0, -3, 0, -4, -12, 0
1503513671756,-11, 0, 0, -3, -4, -1, -2, -14, 0
1503513671778,9, 9, 0, -2, -1, -3, 1, 0, 0
1503513671787,2, 10, 6, -2, -8, -4, -7, -3, 0
1503513671809,0, 5, 0, -3, -7, -1, 2, 22, 0
1503513671824,-2, -10, -3, 3, 5, 0, 6, 8, 0
1503513671847,-11, -10, -8, -1, 2, 1, -4, -27, 0
1503513671869,3, -2, -8, -2, -1, 2, -1, 8, 0
1503513671884,-5, 1, 3, 2, 3, 0, 0, -11, 0
1503513671909,0, 7, 1, -1, -4, -2, -6, -33, 0
1503513671929,6, 20, 5, -4, -4, -3, 0, -13, 0
1503513671945,6, -9, -6, -5, -2, -1, 2, 24, 0
1503513671966,-2, 12, 5, 0, 1, 0, -5, -21, 0
1503513671974,-6, -6, 3, 7, 2, 1, -1, 12, 0
1503513671996,-2, 2, 0, -2, -6, 2, 0, 3, 0
1503513672019,3, 0, 0, -5, -13, -12, 1, 3, 0
1503513672034,-4, 0, 1, -4, -1, -1, -5, -3, 0
1503513672056,4, 8, 6, 2, 4, 3, 1, 11, 0
1503513672079,8, 4, 2, -2, -1, 1, -2, 1, 0
1503513672093,6, -1, 0, -8, -19, -7, 1, 33, 0
1503513672114,-5, -1, 3, -2, -5, -1, -1, -23, 0
1503513672125,6, 2, 0, -1, -1, 0, 4, 6, 0
1503513672147,4, 5, -4, -3, -5, -4, -7, 8, 0
1503513672169,-9, -1, 3, -4, -10, -5, 2, 22, 0
1503513672184,20, 18, 5, -6, -4, 1, -1, 5, 0
1503513672208,5, -3, -6, 1, 13, 3, -2, 0, 0
1503513672229,0, -2, 4, 2, 2, 0, 0, -9, 0
1503513672245,10, 1, -4, 2, -1, -1, 1, 9, 0
1503513672267,-3, -5, -1, 3, 7, 3, 0, -4, 0
1503513672289,-6, -6, -3, -14, -14, -5, -1, -2, 0
1503513672304,3, -1, -2, 1, 4, -9, -4, -2, 0
1503513672326,-8, 8, 10, 2, 0, 3, -9, -5, 0
1503513672349,-20, -8, -1, 1, -2, 0, 3, -9, 0
1503513672364,-3, -2, -2, -2, -5, -1, 1, -1, 0
1503513672395,-3, -4, -1, 4, 10, 4, -1, -3, 0
1503513672418,-8, -7, -2, 3, -2, 0, 2, -15, 0
1503513672438,-2, 3, 7, 0, -5, -2, -1, -1, 0
1503513672453,-12, -13, -6, 2, 1, -1, 4, -1, 0
1503513672469,-5, 7, 5, 13, 8, -1, 0, 1, 0
1503513672491,-13, -9, -12, -6, -3, 2, -8, -18, 0
1503513672506,7, 2, -4, -13, -15, -4, 0, 6, 0
1503513672529,12, 17, 5, 1, -3, -2, -3, -2, 0
1503513672552,-6, -9, -4, -3, -7, -3, -2, -1, 0
1503513672566,16, 8, 4, -3, -6, -2, 3, 2, 0
1503513672589,-9, -8, -8, 0, -1, -1, 2, 2, 0
1503513672611,-22, -5, 3, 0, 6, 2, -1, -7, 0
1503513672626,-11, -17, -7, -4, -8, -4, 2, 2, 0
1503513672656,10, 0, -3, -3, 3, 6, 0, -2, 0
1503513672678,-11, -11, -4, -8, -10, -1, -5, -12, 0
1503513672701,4, 5, 1, 2, 0, -5, -4, -16, 0
1503513672716,0, -5, -3, -6, -13, -3, 4, 12, 0
1503513672732,-14, -9, -20, -13, -4, 0, -3, -5, 0
1503513672748,-6, -10, -5, 7, 6, 3, 3, 4, 0
1503513672769,0, -1, 5, 2, 2, -2, -2, -3, 0
1503513672792,-15, -6, 2, -1, -5, -4, -2, -4, 0
1503513672806,-13, -5, -9, 0, 0, -2, -1, -28, 0
1503513672829,-4, -6, -2, -11, -16, 2, -1, 6, 0
1503513672852,-3, 0, 2, 3, 8, 4, -4, -3, 0
1503513672866,7, -3, 0, 3, 7, 6, 0, 14, 0
1503513672889,-12, -2, -1, -2, -6, -6, -5, -9, 0
1503513672911,-1, -3, 2, 1, 1, -3, -2, -9, 0
1503513672919,-3, 3, -4, -6, -3, -1, -1, -5, 0
1503513672941,6, -2, 3, 7, 4, 3, 5, 8, 0
1503513672956,-3, -3, -4, -6, -9, -7, -1, -4, 0
1503513672988,5, -1, -3, -1, 3, 0, 2, 6, 0
1503513673009,21, 7, 1, 4, 8, -1, 0, 12, 0
1503513673031,-1, 0, 4, 3, 6, 3, 1, -2, 0
1503513673046,5, 5, 4, 9, 14, 3, 1, 6, 0
1503513673069,-2, -7, -8, -6, -6, -4, 1, 4, 0
1503513673094,0, -1, -3, -4, -8, -2, -3, -14, 0
1503513673107,-12, -1, 1, -8, -5, -1, -1, -10, 0
1503513673129,11, 3, 2, 2, 2, 1, 1, 13, 0
1503513673153,18, 3, -1, -3, -4, 0, 3, -3, 0
1503513673166,-3, 4, 1, 4, 4, -2, -2, 0, 0
1503513673189,-11, -7, 2, 3, -4, 2, 7, 2, 0
1503513673211,3, 1, 3, -6, -5, -5, -1, 7, 0
1503513673226,-4, 6, 16, 10, 6, 2, 1, 9, 0
1503513673249,-9, -7, -7, -5, -4, 1, -7, -20, 0
1503513673272,-2, 3, 2, 12, 17, 10, 2, 9, 0
1503513673290,-2, -6, -10, -8, -6, -3, -3, -4, 0
1503513673309,-2, 5, 0, -4, -8, -5, -2, -5, 0
1503513673331,0, -4, -5, 3, 5, 3, 0, 7, 0
1503513673346,6, -1, 0, 6, 1, -2, -1, -3, 0
1503513673369,-6, -2, -2, -3, 8, 7, 0, -5, 0
1503513673392,-4, -5, 3, -3, -7, -1, 1, -2, 0
1503513673413,22, 16, 4, -2, -4, -6, -2, -3, 0
1503513673429,0, -4, -6, -7, -4, -5, -4, -3, 0
1503513673454,-2, 0, 0, -3, -6, -2, 1, 0, 0
1503513673473,-23, -6, 0, -2, -2, -2, -8, -17, 0
1503513673491,3, 7, 12, 5, 1, 0, 6, 13, 0
1503513673512,-9, -7, -11, -5, -4, 4, -3, -5, 0
1503513673533,0, -5, -2, 16, 13, 3, 2, 8, 0
1503513673549,4, 11, 10, -5, -11, -8, -3, -9, 0
1503513673571,10, 4, -3, -2, -3, -5, -1, -10, 0
1503513673593,0, -5, -9, -8, -5, -4, -2, -9, 0
1503513673609,-5, -5, -2, 3, 3, 0, 0, -1, 0
1503513673631,3, 0, -3, -12, -12, -2, 1, 15, 0
1503513673654,-3, -2, 0, 7, 9, -1, -5, -4, 0
1503513673669,-3, -10, -5, -1, 1, 1, 4, 16, 0
1503513673691,-2, 2, 5, 2, 1, 0, 0, 2, 0
1503513673713,4, 4, 2, 8, 13, -10, -1, -7, 0
1503513673729,-10, -8, -5, -6, -7, 0, -3, -6, 0
1503513673751,-3, -6, -7, -1, -1, 1, -2, -8, 0
1503513673773,2, -2, -5, -5, -5, 3, 2, -3, 0
1503513673790,11, 11, 11, 0, -7, 1, -1, -8, 0
1503513673811,-3, -2, -3, -7, -10, 0, 4, 8, 0
1503513673833,-14, -5, -1, -6, -7, -4, -6, -26, 0
1503513673849,-3, 1, -1, 1, 3, 1, -7, -29, 0
1503513673871,11, 0, 6, 3, 2, 0, -1, 19, 0
1503513673893,5, 1, 0, 15, 19, 4, 5, 23, 0
1503513673909,-9, -1, -4, -6, -6, -2, -2, 1, 0
1503513673925,20, 9, 3, 4, 6, 3, 3, 29, 0
1503513673938,8, 13, 8, -1, -4, -2, 0, 6, 0
1503513673961,-7, 0, -2, -4, -3, -2, -2, -11, 0
1503513673983,-10, -7, -8, 0, 1, -2, -1, -16, 0
1503513673999,8, -1, -3, 2, 0, 0, -3, 25, 0
1503513674021,-3, 3, 4, 4, 4, 5, 2, -10, 0
1503513674043,-4, -1, 2, 1, -3, -1, -2, -5, 0
1503513674059,-3, -8, -9, -5, -4, -3, 2, -1, 0
1503513674081,-4, -4, -3, -7, -3, -2, 0, -13, 0
1503513674103,-5, 2, 3, -1, -1, -4, -1, 1, 0
1503513674119,0, -2, -4, -2, -3, 3, 6, 8, 0
1503513674141,1, 3, 4, 0, -1, -2, -2, -6, 0
1503513674163,3, 4, 1, 0, 1, 0, -1, 5, 0
1503513674178,9, -1, -2, 4, 3, -2, -2, 0, 0
1503513674201,-2, -3, -4, -5, -2, -2, -4, -6, 0
1503513674225,-4, -2, -1, 0, -1, -2, -1, 0, 0
1503513674238,2, -6, -3, 2, 0, 0, 1, -14, 0
1503513674268,-1, -1, 1, 2, 2, -1, -5, -5, 0
1503513674283,2, 3, 1, -1, -3, -1, -1, 3, 0
1503513674313,3, 2, 1, 0, -3, -2, -2, 1, 0
1503513674336,2, 0, -3, -2, -1, -2, -2, -5, 0
1503513674351,2, -4, -1, 2, 1, 1, 3, 5, 0
1503513674373,-13, -5, -2, -1, -2, -3, -3, -5, 0
1503513674396,-6, 0, -2, -5, -1, 0, -6, -17, 0
1503513674411,-1, -2, 1, -5, -7, 0, -2, -22, 0
1503513674436,17, 0, -5, -1, -2, -2, 1, 18, 0
1503513674456,-6, 6, 3, 2, 1, 0, -2, -14, 0
1503513674471,-3, -3, 3, 5, 4, 0, 0, 5, 0
1503513674494,4, -1, -4, -1, -1, -2, 0, 1, 0
1503513674516,-3, 1, 3, -2, 1, 1, 2, 11, 0
1503513674532,-1, -5, -6, -1, 0, -2, -9, -43, 0
1503513674553,-3, -3, -4, 0, 1, -2, 1, 11, 0
1503513674576,-10, 0, 4, -2, -3, -2, -4, 1, 0
1503513674591,-1, -2, 0, -4, -3, -2, -3, 7, 0
1503513674613,-1, 1, 3, 1, 1, 0, -3, -2, 0
1503513674636,4, 12, 4, -1, -1, -1, -1, 1, 0
1503513674651,1, 1, 2, 3, 0, -1, 0, -6, 0
1503513674673,6, -7, -7, -1, -2, -1, 6, 12, 0
1503513674696,-14, -9, -6, -7, -3, 0, -2, -8, 0
1503513674711,4, 8, 2, 1, 1, -2, -1, -4, 0
1503513674734,0, -1, -5, -2, 1, -1, 0, 7, 0
1503513674756,-3, -7, -1, 1, -1, -1, -3, -2, 0
1503513674772,-5, -7, -5, -1, -1, 0, -1, 2, 0
1503513674797,-4, -20, -8, -2, 0, 0, -1, 5, 0
1503513674801,-16, -1, 4, 3, 4, 0, -1, -20, 0
1503513674823,12, 4, -4, -4, -1, -1, -1, 8, 0
1503513674845,-1, 2, 7, 3, -2, 1, 1, 5, 0
1503513674862,-1, 1, 1, -1, -1, 1, -1, -1, 0
1503513674883,-8, 5, 4, 2, -2, 0, -1, -29, 0
1503513674905,14, 8, 1, -2, 0, -1, -3, -3, 0
1503513674920,6, -2, -2, 1, 0, -2, 2, 19, 0
1503513674943,0, 3, 7, 3, 0, 2, 1, 9, 0
1503513674965,-14, -8, -6, -6, -1, -1, -3, -21, 0
1503513674980,9, 1, -3, 2, 2, 0, -1, -4, 0
1503513675003,-2, -12, -11, -5, -5, -4, -3, -6, 0
1503513675025,-1, -1, -1, -1, -2, 0, 2, 17, 0
1503513675041,-7, -6, -2, -1, -2, 0, -1, 2, 0
1503513675066,2, 2, 3, 1, 0, -2, -6, -15, 0
1503513675085,-6, -4, -2, 3, 1, -2, 2, 5, 0
1503513675102,2, 3, 0, 2, 1, 1, 5, 14, 0
1503513675123,9, 3, -9, -4, -1, -1, 2, 5, 0
1503513675145,-11, -7, -5, -3, -3, -1, -3, -18, 0
1503513675161,7, 2, 4, 2, 1, 1, 1, 12, 0
1503513675183,4, 4, 5, 3, 0, -2, -2, 11, 0
1503513675205,0, 0, 5, -1, -3, -1, 0, 1, 0
1503513675221,-13, -3, -2, -1, 0, -2, -2, -19, 0
1503513675243,-9, -3, -2, -2, -1, -3, -2, -22, 0
1503513675267,6, -9, -6, -1, -2, 0, -1, 18, 0
1503513675287,6, 5, 0, 1, 0, 0, 0, 16, 0
1503513675303,-7, -3, 1, -3, -2, -2, -1, -15, 0
1503513675325,-1, -2, -3, -1, -2, 0, 0, -1, 0
1503513675348,-2, 0, 6, 1, -1, -1, -1, 3, 0
1503513675363,-5, -2, -6, -6, -4, -1, -1, -5, 0
1503513675385,-1, -6, -7, -5, -1, 0, 0, -3, 0
1503513675409,0, 4, 3, 1, 0, -1, -2, 5, 0
1503513675423,2, 2, 2, -1, -6, -1, 0, 7, 0
1503513675445,3, 2, -3, -1, 0, 0, -2, -9, 0
1503513675468,-1, 1, -4, -3, -2, -3, -2, -5, 0
1503513675483,-1, 5, 2, 2, 1, 0, -1, -4, 0
1503513675505,5, -1, 1, 0, 0, 2, 0, 8, 0
1503513675527,-4, -2, -3, -3, 0, -1, 1, 13, 0
1503513675550,5, -1, -1, 0, 1, 1, 1, 13, 0
1503513675572,-4, -2, -2, -3, -1, -2, 0, -7, 0
1503513675587,-3, 7, 12, 0, -4, -3, -7, -17, 0
1503513675606,-4, -1, 1, 6, 4, 2, 1, -5, 0
1503513675625,0, -16, -5, 1, 1, 2, 0, 1, 0
1503513675648,-2, -5, -4, 1, -2, -1, -1, -6, 0
1503513675663,0, 9, 3, -3, -2, -2, -4, -22, 0
1503513675685,7, -6, -5, -3, -1, -1, 3, 12, 0
1503513675708,0, 1, -2, -1, -2, -2, -1, 4, 0
1503513675723,10, 8, -2, -5, -5, -2, 1, 2, 0
1503513675745,-1, -3, -3, -2, -1, -2, 1, 17, 0
1503513675769,-3, 3, 3, 0, -2, -1, 0, -9, 0
1503513675776,-6, 3, 2, 2, 0, -1, 0, -7, 0
1503513675798,-2, -2, -1, -3, -4, -2, -1, -2, 0
1503513675813,5, 6, 1, -1, -3, 0, 0, 2, 0
1503513675841,-1, -4, -2, -4, -3, -1, 1, -2, 0
1503513675858,0, 4, 4, 0, 1, 1, 0, -7, 0
1503513675873,5, -4, -3, 0, -1, -2, 1, 15, 0
1503513675896,7, 5, 1, -4, -1, -2, -2, 6, 0
1503513675918,-3, -5, -4, -2, -3, -1, -3, -8, 0
1503513675933,8, -2, -7, -2, 0, -1, 0, 2, 0
1503513675956,-12, 2, 5, 0, 1, 1, 0, -5, 0
1503513675979,-8, -8, -7, 0, 4, 1, -4, -16, 0
1503513675994,7, 5, 2, -1, -3, 0, 4, 15, 0
1503513676015,-1, 2, 3, 2, 0, 0, -4, 3, 0
1503513676038,-10, -2, -2, -2, 0, -2, -5, -29, 0
1503513676053,3, 0, 2, 0, -3, -3, -1, -13, 0
1503513676076,2, -8, -10, -2, -1, -2, 0, 6, 0
1503513676098,-10, -7, 1, 0, -4, 0, -1, -2, 0
1503513676113,-5, -6, -6, -1, -2, 0, 1, 1, 0
1503513676136,1, 3, 4, 4, 0, -1, -3, -3, 0
1503513676158,-2, 1, -5, -6, 1, 0, 1, 12, 0
1503513676173,0, -5, -5, -2, -2, 0, 1, 9, 0
1503513676196,0, 4, 4, 1, 0, -1, 1, -13, 0
1503513676218,4, 0, -6, 0, -1, -1, 0, 8, 0
1503513676241,-5, -1, 1, -3, -6, -2, 0, -4, 0
1503513676255,3, 1, 6, 2, 1, 0, 0, 7, 0
1503513676278,-9, -2, -3, -5, -5, -2, -4, -32, 0
1503513676301,1, 8, -1, -3, -1, -2, -1, 5, 0
1503513676316,-1, -6, -3, 2, -1, -2, -2, 8, 0
1503513676340,3, 0, 5, 5, 3, 1, 3, 4, 0
1503513676361,8, -6, -3, -4, -3, 1, 2, 17, 0
1503513676376,-3, -7, -5, -1, 2, -1, 1, 10, 0
1503513676398,1, -6, -7, -1, -2, -1, 0, -12, 0
1503513676421,-7, -1, 3, 1, 2, 1, -2, -3, 0
1503513676436,1, 4, 1, 0, 2, 1, -5, -18, 0
1503513676458,2, 2, 1, 0, -2, 1, 4, 7, 0
1503513676481,-3, 2, 4, 0, 1, -1, -3, -7, 0
1503513676496,5, 0, 1, 0, 1, -3, 0, 24, 0
1503513676519,1, 2, 0, -2, -3, -2, -3, -12, 0
1503513676542,2, 1, -1, -2, -1, -3, 0, 2, 0
1503513676556,-5, -14, -12, 0, 1, 2, 1, -3, 0
1503513676578,-3, 5, -1, -2, -2, 0, -6, 1, 0
1503513676600,-2, 2, 4, -1, -3, -2, -2, 2, 0
1503513676616,-1, -6, -6, 0, -2, 0, 0, -1, 0
1503513676638,3, 3, 1, 2, 1, 0, -2, -37, 0
1503513676660,-5, -1, 2, -1, -1, -2, 0, -5, 0
1503513676676,-2, 8, 10, 2, 1, 0, 0, 0, 0
1503513676698,-3, 1, 0, 0, 0, -2, 2, 7, 0
1503513676721,-1, -1, -3, -1, -1, -1, -2, 2, 0
1503513676736,-1, -2, -2, -2, -1, -1, 0, 5, 0
1503513676758,-20, -6, -1, -2, -2, -2, -3, -37, 0
1503513676782,2, -8, -5, -4, -4, -1, -3, 3, 0
1503513676796,5, 5, -2, -2, 0, 0, 0, 9, 0
1503513676819,7, -2, -2, -3, -2, -1, 3, 24, 0
1503513676840,3, -2, 0, 1, -2, -2, 0, 12, 0
1503513676857,11, 2, -3, -3, -2, 0, 1, 1, 0
1503513676878,-4, -8, -9, -1, 0, 1, 1, 5, 0
1503513676894,9, 3, 2, 1, -2, -1, -1, 13, 0
1503513676910,-1, -10, -7, -2, -1, -1, -5, -15, 0
1503513676937,-12, -2, -1, -4, -3, -2, -2, -3, 0
1503513676954,1, 0, -3, 0, 0, 0, 1, -1, 0
1503513676969,-1, -4, -1, -5, -3, -1, -1, 3, 0
1503513676991,-1, 5, 6, 4, 0, 0, 4, 12, 0
1503513677014,-5, -5, -1, -1, -1, 1, -2, 1, 0
1503513677029,-2, 0, -2, -4, -4, -1, 0, -4, 0
1503513677051,3, -2, -2, 1, 1, 0, 0, 10, 0
1503513677074,2, -4, 2, 1, -2, -1, -1, -2, 0
1503513677082,11, 2, 0, -1, 0, -2, -2, -6, 0
1503513677096,-7, 2, 4, 0, -1, -1, -3, -11, 0
1503513677118,-9, 7, -6, -2, -1, -1, -1, -47, 0
1503513677148,3, -5, 0, -3, -1, 0, -1, 7, 0
1503513677163,1, 1, 4, 0, -1, 0, -1, 14, 0
1503513677179,-1, -4, -3, 0, 0, -2, -3, 0, 0
1503513677200,-8, 3, 3, 3, 0, -1, -1, -3, 0
1503513677223,10, -1, -1, -2, -3, 1, 0, 15, 0
1503513677238,-5, -14, 1, 2, -1, 1, 1, -2, 0
1503513677261,-4, 1, -1, -2, 0, -1, -5, -9, 0
1503513677283,6, 3, -4, 2, 1, -1, 0, -7, 0
1503513677298,-4, 3, -1, 0, -1, -1, -1, 7, 0
1503513677321,4, -1, 0, 0, -1, -1, 0, 5, 0
1503513677343,7, -5, -6, -3, 0, 0, 4, 38, 0
1503513677358,-2, -5, -5, -1, 0, -2, 2, -11, 0
1503513677381,0, 6, -1, -1, 0, 2, -2, -10, 0
1503513677403,-4, -11, -6, -3, -5, -2, -4, -2, 0
1503513677418,-4, -3, -2, -2, -1, 1, 2, 8, 0
1503513677440,2, 1, -1, 0, 0, -2, 0, 12, 0
1503513677463,3, 16, 16, 3, -1, -2, -1, -5, 0
1503513677478,-6, 3, 5, -1, 0, 0, -1, -2, 0
1503513677500,5, -2, -2, -1, -1, -2, -5, -14, 0
1503513677527,-5, 2, -3, 3, 6, -1, 1, 9, 0
1503513677538,6, -1, -1, -2, -2, 0, -1, 24, 0
1503513677561,-1, -6, -6, -5, -3, -2, -2, -7, 0
1503513677588,-4, -5, 0, -6, -4, -1, 2, 2, 0
1503513677598,1, -4, -2, 1, -1, -1, -2, -30, 0
1503513677621,3, -2, -2, -2, -2, 2, -1, 1, 0
1503513677643,2, -2, 0, 2, 1, -1, 2, 16, 0
1503513677658,-5, 0, 1, 0, -2, -2, -6, -12, 0
1503513677686,1, 2, -2, -1, -1, -1, -2, -30, 0
1503513677689,-3, 3, 0, -3, -2, -1, -3, -13, 0
1503513677711,7, -2, -4, -6, -5, -1, 0, 12, 0
1503513677733,-2, 0, -4, -2, -1, -3, -9, -40, 0
1503513677750,-9, 5, 9, 2, -1, -2, 0, 7, 0
1503513677771,0, 1, 1, 0, -2, -1, 1, 7, 0
1503513677794,0, -2, -1, 4, 5, -1, 2, 3, 0
1503513677809,-4, -1, 1, 4, 1, 1, -4, -31, 0
1503513677831,5, 2, -1, -3, -2, 0, 3, 18, 0
1503513677854,-5, 1, -1, -4, -7, -1, 1, 2, 0
1503513677869,1, -6, -6, -12, -9, -1, 2, 26, 0
1503513677892,0, 1, -1, 2, 5, -1, -4, -9, 0
1503513677914,1, -7, -6, -5, -3, -1, 1, 12, 0
1503513677929,3, 11, 9, 5, 3, -1, -3, 10, 0
1503513677955,-26, -8, -4, 1, -1, -2, -6, -39, 0
1503513677974,-3, -6, -5, 0, 5, 13, -4, -24, 0
1503513677989,-2, -4, 0, 0, -1, 0, 1, 12, 0
1503513678011,5, -1, -6, -4, 0, -5, 2, 7, 0
1503513678034,17, 13, 9, 1, -2, -4, -2, 9, 1
1503513678049,4, -3, -5, 1, -2, -2, -2, -4, 1
1503513678071,-3, 5, 1, -1, 0, -3, 2, 10, 1
1503513678094,1, -5, -2, -5, -7, -3, -4, -3, 1
1503513678116,3, -1, 3, -2, -3, 0, 0, -5, 1
1503513678139,-18, -6, -1, 0, -2, -1, 0, -10, 1
1503513678154,4, 6, 7, 1, -2, -4, -3, 0, 1
1503513678175,-4, -4, -1, 6, 6, 2, 2, 5, 1
1503513678187,12, 6, -1, -1, -2, -7, -4, -13, 1
1503513678206,9, 1, 1, -2, -3, -5, 1, 4, 1
1503513678221,10, 7, 1, 2, 0, -6, 0, -7, 1
1503513678243,2, -1, -2, 5, 2, -3, -6, 4, 1
1503513678266,-7, 0, 2, -4, -5, -2, -2, 2, 1
1503513678274,-11, -3, -1, -2, 5, 3, 1, -5, 1
1503513678296,4, -3, -4, -7, -10, -2, -6, -10, 1
1503513678311,-7, 5, 9, 3, -3, -2, 2, 15, 1
1503513678334,9, 5, 4, 7, 9, 14, 6, 5, 1
1503513678341,-1, -3, -2, -4, -1, 2, -1, -6, 1
1503513678363,-9, -3, 1, 9, 17, 8, 3, -6, 1
1503513678387,-1, 0, 0, -9, -9, -2, -3, -19, 1
1503513678401,-9, -3, 1, -2, -7, -1, 2, -3, 1
1503513678424,-7, -5, -3, -4, 6, 4, 0, -15, 1
1503513678446,-9, -4, -4, -7, -6, -4, -2, 1, 1
1503513678461,5, 3, 5, 15, 6, -5, -8, -15, 1
1503513678483,16, 3, -7, -5, -13, 0, 2, 9, 1
1503513678506,-10, -4, -2, -4, -5, -3, 0, -7, 1
1503513678522,0, 1, 1, 1, -3, -1, 1, 11, 1
1503513678543,4, -11, -9, 0, 2, -4, -5, -2, 1
1503513678553,10, -2, -8, -2, 6, 2, 5, 8, 1
1503513678574,1, 2, 3, 0, -8, 4, 2, 3, 1
1503513678596,-1, 2, 2, 4, 4, 5, -2, 6, 1
1503513678611,5, 3, -2, -9, -10, -8, -4, -4, 1
1503513678633,-6, -8, -4, -4, 0, -4, -3, 10, 1
1503513678656,-5, -3, -4, -2, 0, -8, -1, 1, 1
1503513678664,-2, -3, -1, -4, 0, -7, -4, 10, 1
1503513678686,-2, -6, -7, -4, -4, -3, -5, 3, 1
1503513678700,5, -3, -9, 4, 3, 0, 2, -3, 1
1503513678724,-8, 0, 0, -4, -3, -2, 1, 2, 1
1503513678746,9, 1, 0, -3, -4, -3, 5, -11, 1
1503513678761,-7, 2, 4, 5, 2, -6, -7, -8, 1
1503513678783,-1, 3, 2, 0, -6, -10, -10, -10, 1
1503513678806,12, 12, 10, 2, 5, 7, 4, 9, 1
1503513678820,-3, -5, -2, 0, -5, -6, -7, -24, 1
1503513678843,-7, -13, -9, -6, -2, 0, 2, 30, 1
1503513678866,-2, -5, -5, -2, -1, 0, -1, -17, 1
1503513678880,4, 0, -2, -3, -4, 4, 3, 10, 1
1503513678896,-10, -13, -14, -2, -2, 5, 4, -18, 1
1503513678919,5, 0, -4, -5, -11, -9, 1, 12, 1
1503513678933,-3, -2, 1, 4, 9, 4, 1, 3, 1
1503513678940,-4, 5, 7, 3, 7, -3, -7, -4, 1
1503513678963,0, 4, 3, -5, -9, 1, 15, 15, 1
1503513678986,-19, -8, -3, -1, -2, -3, -3, 1, 1
1503513679007,-1, -1, 3, 9, 7, 4, 2, -7, 1
1503513679026,1, -1, -3, -2, -7, -4, -4, 2, 1
1503513679045,-7, -5, -4, -7, 5, 3, -2, -5, 1
1503513679068,-2, 2, -4, 11, 19, 5, -3, -24, 1
1503513679076,1, -2, -4, -6, 2, 5, 1, -3, 1
1503513679098,4, 2, 2, 4, 1, -3, -5, -3, 1
1503513679114,0, 1, -3, -6, -10, -2, -3, -6, 1
1503513679128,-10, -5, -7, -1, 4, -1, -4, -6, 1
1503513679143,0, -6, -4, -6, -5, -2, 0, -10, 1
1503513679166,2, -1, -6, -4, -7, -3, -6, -15, 1
1503513679187,-15, -6, 1, -1, -1, -1, -5, -8, 1
1503513679203,5, 2, -1, 5, 4, 1, 3, 2, 1
1503513679227,-7, -1, -1, -3, -5, -2, -2, -20, 1
1503513679247,11, 4, 2, -3, 5, -1, 0, -9, 1
1503513679263,-1, 2, 4, 23, 20, 3, -11, -17, 1
1503513679286,-2, 2, 4, -8, -8, -1, -1, -16, 1
1503513679307,-3, -5, -4, -7, -9, -2, 6, 21, 1
1503513679323,-6, -4, -2, -4, -4, -2, -1, 8, 1
1503513679345,2, 4, 1, -6, -6, -2, -1, -10, 1
1503513679367,10, 1, -8, -4, -5, -2, -3, 4, 1
1503513679390,9, 2, -7, -9, -10, -2, 0, 12, 1
1503513679412,-6, -5, 3, 4, 3, -2, 3, 0, 1
1503513679430,-5, -3, 2, 4, 4, -2, -3, 0, 1
1503513679443,-3, -3, -5, -4, -6, -4, -2, -15, 1
1503513679466,0, 1, 1, 1, 2, 0, 2, 9, 1
1503513679487,6, 2, 2, 3, 2, 1, 1, 15, 1
1503513679504,2, 0, -3, -1, 4, 2, 1, 4, 1
1503513679525,-10, -6, -8, -4, -4, -1, -4, -19, 1
1503513679547,9, -2, -1, 0, -2, 1, 4, 29, 1
1503513679564,1, -2, -4, -17, -27, -9, 2, 8, 1
1503513679586,-6, -7, -8, 0, -1, 0, -4, 2, 1
1503513679607,0, -5, 1, 0, 4, 1, 3, -3, 1
1503513679623,6, 8, 1, 0, 0, -2, -6, -6, 1
1503513679645,-8, -3, 2, 11, 9, 0, 2, -5, 1
1503513679667,11, 8, 7, 0, 2, 5, 7, 0, 1
1503513679683,-10, -4, -2, 8, 3, -1, 2, -2, 1
1503513679706,5, 9, 6, -1, 2, 0, -6, -9, 1
1503513679727,-3, 1, -1, -4, -6, -3, -4, -10, 1
1503513679743,13, 6, -5, -3, -3, -2, -1, 29, 1
1503513679766,7, 3, -1, -3, 5, 1, 1, -3, 1
1503513679787,-9, -5, 4, 0, -3, -2, 0, 4, 1
1503513679803,-6, -6, -6, -2, 0, 0, -4, 2, 1
1503513679825,-3, -2, 1, 9, 9, 1, -1, -12, 1
1503513679847,1, 0, 0, -5, -14, -3, -3, -17, 1
1503513679864,2, -3, -6, -4, -2, 0, 0, -4, 1
1503513679878,-11, 0, -3, -2, -1, -3, 0, -10, 1
1503513679893,-4, -7, -4, -5, -2, 0, 0, 4, 1
1503513679915,-2, 2, 3, 0, 1, 0, -2, 2, 1
1503513679938,1, 3, 2, 7, 2, -1, 3, 7, 1
1503513679969,2, -2, 2, 7, 11, 9, -6, -17, 1
1503513679990,7, 8, 1, 0, 1, 2, 3, 3, 1
1503513680007,-8, -5, -2, -6, -9, -2, -2, -2, 1
1503513680027,-1, -2, -4, 2, -3, -3, 1, 5, 1
1503513680050,-5, -7, -4, 2, 3, -1, 2, -4, 1
1503513680066,0, -9, -3, -5, -6, -3, -4, -12, 1
1503513680090,-5, -5, -2, 13, 21, 6, 5, 20, 1
1503513680110,-1, 1, 4, -2, -6, -3, 0, -1, 1
1503513680126,-5, 3, -2, -14, -13, -5, -2, -15, 1
1503513680147,2, -1, -6, -1, -2, 1, -1, -30, 1
1503513680170,-7, 3, 3, -4, -2, -2, -5, -8, 1
1503513680185,-1, -8, -8, -7, 1, 0, 5, 22, 1
1503513680201,0, -1, -1, -9, -9, -4, -8, -17, 1
1503513680215,-5, -3, -3, -1, 0, 0, 0, -10, 1
1503513680238,1, -3, 3, 2, -2, 1, 0, 1, 0
1503513680260,-5, 3, 3, 7, 7, 1, 0, 3, 0
1503513680277,1, -7, -10, -7, 0, -1, 3, 16, 0
1503513680298,2, -3, -2, -5, -12, -4, 3, 11, 0
1503513680323,-2, 2, 0, -5, -7, 0, -5, -25, 0
1503513680336,4, -3, 1, 3, 2, 1, -3, 9, 0
1503513680358,-1, -7, -11, -4, 1, -1, 0, -8, 0
1503513680381,1, 4, -1, -4, -4, -1, 0, -6, 0
1503513680396,-12, -3, -2, 1, 3, -1, -1, -15, 0
1503513680418,4, 0, -1, -3, -4, -1, -4, -3, 0
1503513680440,6, 4, -2, 10, 8, 2, -2, -11, 0
1503513680456,5, -3, -1, -4, -6, -4, 1, 11, 0
1503513680478,6, 8, 4, 1, -4, -2, 2, 5, 0
1503513680502,1, 10, 9, 3, 3, 1, 5, 26, 0
1503513680516,-4, -6, -4, -3, -3, -1, -7, -10, 0
1503513680538,-3, 0, -1, 8, 3, 2, 1, 1, 0
1503513680560,6, 4, 5, -2, -3, -3, -2, -2, 0
1503513680576,2, -2, -5, -7, 0, 1, 0, 13, 0
1503513680598,-9, 0, -3, 1, 2, 1, -2, -13, 0
1503513680620,-2, -5, -1, 2, 9, 2, 0, -1, 0
1503513680637,-3, -6, -2, -7, -4, -1, -2, -9, 0
1503513680658,3, -2, 0, -3, -3, -4, 2, 29, 0
1503513680681,0, 1, -2, -2, -8, -1, 2, -14, 0
1503513680696,5, 3, 1, 1, 2, 1, 3, 16, 0
1503513680718,-3, -9, -4, -3, 1, -1, 0, -15, 0
1503513680740,-6, -2, 0, -1, 0, -1, -6, -14, 0
1503513680756,1, -2, -1, -2, -4, -1, 4, 5, 0
1503513680778,7, 21, 14, 4, 1, -1, -5, 2, 0
1503513680801,-4, -3, -9, -3, -3, -2, -2, -8, 0
1503513680816,2, 1, 2, 2, 3, -1, 0, 2, 0
1503513680838,-3, -23, -9, 4, 4, 0, -2, -26, 0
1503513680860,-4, -6, 3, 3, 3, -2, -8, -6, 0
1503513680883,-3, 0, 3, 1, 0, -1, -5, -11, 0
1503513680898,-6, -3, -7, -11, -7, -2, -2, -10, 0
1503513680920,-2, 3, 4, -1, 0, 1, 1, -10, 0
1503513680943,0, -10, -16, -4, 0, -1, 5, 19, 0
1503513680958,9, 5, 4, 2, 0, -1, 4, 22, 0
1503513680981,-1, -3, -2, 3, 1, -1, -4, 4, 0
1503513681003,-4, 16, 9, 2, -1, 1, -5, -9, 0
1503513681018,-5, -5, -4, 3, 4, 2, 4, 16, 0
1503513681041,-4, -3, -4, -10, -10, -3, -7, -7, 0
1503513681063,-3, -1, 1, 0, 0, -3, -2, -6, 0
1503513681078,4, -14, -13, -5, -6, 0, 5, 2, 0
1503513681100,5, 5, 4, 4, 2, 0, 3, 21, 0
1503513681109,3, 7, 0, -5, -7, -2, 3, 12, 0
1503513681132,-1, 4, 3, 4, 0, -1, -3, -10, 0
1503513681152,-2, -11, -5, -2, -2, -2, -3, -8, 0
1503513681168,4, -8, -5, 3, 7, 4, 3, 6, 0
1503513681190,-1, 0, 0, 4, -2, -2, -1, -20, 0
1503513681212,-4, 4, 2, -1, -3, -2, 4, 9, 0
1503513681228,-1, 7, 10, 5, -2, 1, -1, 8, 0
1503513681250,-6, -4, 0, 1, -1, -4, -2, 9, 0
1503513681280,-5, -1, 4, 8, 5, 0, 3, 12, 0
1503513681303,-1, 4, 7, 2, 2, 0, -4, -20, 0
1503513681318,-4, 6, 9, 3, -1, -2, -10, -39, 0
1503513681344,-2, 2, -4, 0, 0, -3, -6, -12, 0
1503513681363,-2, -9, -9, -11, -7, -6, -3, 9, 0
1503513681378,5, 15, 5, 3, 1, 0, 5, 21, 0
1503513681400,-5, -11, -9, -4, 6, 0, -7, -21, 0
1503513681423,-3, -10, -7, -7, -11, -4, 1, -5, 0
1503513681438,0, 2, 3, 5, 5, 0, 0, -3, 0
1503513681461,0, 0, 3, 0, -4, -1, 0, 15, 0
1503513681484,1, 2, 1, 5, 3, 2, 3, -1, 0
1503513681498,5, 5, 5, 0, -3, -2, -5, -5, 0
1503513681520,-1, -7, -7, -3, -2, -1, 2, -11, 0
1503513681543,0, 10, 4, 2, 0, 0, -3, -7, 0
1503513681558,-1, -3, -8, 0, -1, 0, -1, 3, 0
1503513681580,0, -6, -8, -9, -2, -1, 0, -2, 0
1503513681603,-1, -7, -8, -3, -6, -1, -2, 14, 0
1503513681618,1, 0, 2, 4, 4, 1, 2, 25, 0
1503513681641,-4, 4, 9, 0, -1, 1, 2, -1, 0
1503513681663,-8, -5, -6, -5, -3, -5, -13, -26, 0
1503513681678,4, 7, 10, 1, 1, 2, 1, 3, 0
1503513681700,6, 10, 2, 1, 0, 0, 0, 3, 0
1503513681723,-7, -11, -7, -3, -2, -3, -4, -5, 0
1503513681739,1, 0, 7, 4, 0, 1, 5, -1, 0
1503513681760,-5, -7, -2, 3, 0, -1, -1, 0, 0
1503513681784,-4, 2, 5, -2, -3, -3, -2, -9, 0
1503513681805,2, -3, -7, -14, -16, -3, -1, -14, 0
1503513681820,1, -8, -9, 4, 4, 0, 2, 10, 0
1503513681846,-10, 0, 1, 3, 1, 1, -2, 2, 0
1503513681865,-5, -5, -3, 0, 3, 3, 4, 14, 0
1503513681881,0, -5, -5, 0, 7, -1, 1, -1, 0
1503513681903,38, 17, 11, 12, 5, -4, 0, 10, 0
1503513681925,-16, -11, -8, -10, 0, 1, -1, -3, 0
1503513681940,0, -7, -6, -3, -2, -1, 0, -8, 0
1503513681963,3, 12, 4, -3, -5, -1, 2, 14, 0
1503513681985,-2, -3, -1, 6, 5, 3, 0, 3, 0
1503513682000,-6, -2, -4, 2, 10, 3, -1, -4, 0
1503513682023,-4, 7, 4, -7, -6, 0, -1, -9, 0
1503513682048,1, 0, 1, -3, -5, -2, 1, 1, 0
1503513682060,-7, -13, -10, 2, 3, 1, 3, -1, 0
1503513682084,2, -2, 0, 0, -2, -4, -2, -4, 0
1503513682105,-2, -1, -1, -5, -7, -1, -3, 13, 0
1503513682115,-5, 13, 2, -2, -6, 0, 1, -9, 0
1503513682136,0, -12, -6, -1, 1, 1, 2, 6, 0
1503513682158,4, 1, 0, -5, -9, -4, -5, -8, 0
1503513682173,-5, -11, -5, -3, 2, 3, 1, 2, 0
1503513682196,1, -1, 3, -4, -6, -3, -2, 36, 0
1503513682219,-2, -10, -12, -4, 0, -1, 0, 0, 0
1503513682233,1, 5, -2, 4, 4, -3, -3, -13, 0
1503513682256,-11, -9, -1, 3, 1, -1, -4, -13, 0
1503513682278,1, 5, 9, 7, -2, -4, 0, -5, 0
1503513682293,6, 5, 4, -4, -6, -2, 1, -5, 0
1503513682316,4, -4, -2, -7, -6, -1, 1, 9, 0
1503513682338,-2, 0, 6, -2, 0, 0, 1, 8, 0
1503513682354,20, 8, 3, 3, 4, 1, 4, 11, 0
1503513682376,-4, -4, -10, -3, 4, 1, -2, 4, 0
1503513682391,15, 10, 4, -2, -7, -20, -3, 8, 0
1503513682416,7, 2, 6, 8, 7, 7, 1, 7, 0
1503513682436,-15, -6, -6, -3, -4, 2, -4, -26, 0
1503513682452,-10, 0, 1, -4, -1, -2, -10, -49, 0
1503513682473,5, -4, -2, 1, -2, 3, 4, 22, 0
1503513682496,-3, -8, -9, -4, 1, 3, 4, 4, 0
1503513682513,-12, 1, 5, 4, 2, 0, -8, -33, 0
1503513682533,-4, 5, 2, -2, -1, 0, 2, 12, 0
1503513682557,10, 5, 1, 0, 0, 2, 6, 49, 0
1503513682571,-7, -7, -8, -6, -2, -3, -4, -21, 0
1503513682593,-8, -6, -4, -5, -5, -1, -5, -14, 0
1503513682617,-21, -5, 0, -3, 0, -2, 3, 2, 0
1503513682638,1, -4, -4, 1, -4, -3, -3, 2, 0
1503513682654,11, -1, -2, 2, 5, 1, -1, -16, 0
1503513682676,-6, -5, 3, 4, 12, 6, 4, -13, 0
1503513682698,-6, -5, 1, 0, 2, 0, 3, 8, 0
1503513682713,-2, 7, 5, 0, -2, -1, -1, 4, 0
1503513682736,1, -8, -3, -3, -3, 0, -2, -20, 0
1503513682759,-6, -1, 1, -5, -16, -4, -6, -21, 0
1503513682774,5, 3, -1, 0, -1, -1, 0, 16, 0
1503513682796,-8, -3, 0, 0, 0, 0, -2, -13, 0
1503513682821,13, 8, 3, 3, 6, 0, -4, -12, 0
1503513682833,-2, 6, 0, -4, -6, -5, -1, 4, 0
1503513682856,-10, -3, -1, 5, 7, -2, -2, -10, 0
1503513682878,4, -5, -6, -8, -8, -2, -4, 1, 0
1503513682908,-2, -5, -5, -5, -3, -1, -1, 5, 0
1503513682923,1, -5, -3, 6, 10, 3, 4, 4, 0
1503513682939,2, 2, 4, -2, -4, 1, 0, 6, 0
1503513682954,19, 20, 14, 2, 1, -1, 6, 8, 0
1503513682976,10, 2, -1, 1, -1, -4, -2, 20, 0
1503513682998,-18, -15, -12, 0, 1, -1, -1, -21, 0
1503513683013,-2, -3, -1, 1, 0, -1, -1, -8, 0
1503513683036,0, 0, -2, -4, -3, -2, -7, 12, 0
1503513683058,-11, 1, 4, 7, 13, 4, 2, 9, 0
1503513683073,-6, -1, 0, -2, -4, -3, -2, -10, 0
1503513683097,-9, -14, -10, -7, -1, -4, 0, -2, 0
1503513683118,-8, 5, 2, 3, -4, -1, -4, -24, 0
1503513683134,13, 2, 0, 4, 2, -1, 0, 29, 0
1503513683156,-3, -7, -8, -7, -6, -1, 2, -3, 0
1503513683178,3, 0, 0, 1, 8, 2, -4, -15, 0
1503513683195,-3, -1, 1, 0, -3, -2, 4, 2, 0
1503513683216,13, 0, -11, -3, -4, -3, 3, 17, 0
1503513683239,-12, -8, -3, -3, -5, -1, -5, -21, 0
1503513683262,-7, 1, 1, -2, -4, -3, -3, -5, 0
1503513683276,4, 0, -1, 4, 10, -6, -3, -16, 0
1503513683298,5, -1, 3, 0, -3, 5, 5, 17, 0
1503513683314,2, 3, 0, 0, 1, 0, 0, 1, 0
1503513683336,24, 3, 0, 4, 1, 2, 5, 66, 0
1503513683358,-6, 0, 1, -4, -11, -4, -3, -17, 0
1503513683373,-6, 2, 0, -5, -4, 0, -5, -19, 0
1503513683396,2, 1, 2, -5, -5, -6, 4, 0, 0
1503513683418,-26, -12, -3, -3, 1, 3, -1, -20, 0
1503513683434,-7, -3, 6, 7, 4, 1, 2, 0, 0
1503513683457,4, 0, -6, -8, -4, -1, -6, -13, 0
1503513683478,4, 4, -1, 3, 2, -1, -1, 2, 0
1503513683494,2, -1, -4, -7, -7, -5, -3, 40, 0
1503513683516,4, -10, -9, -1, -1, 1, -5, -32, 0
1503513683538,-2, 1, 2, 0, -2, -1, 2, -5, 0
1503513683553,-2, 8, 6, 12, 14, 1, 2, -4, 0
1503513683576,-6, 0, -3, -7, -8, -4, -8, -28, 0
1503513683599,1, 5, 8, 2, 0, -2, -2, -1, 0
1503513683613,-12, -5, -2, 0, -1, 2, 3, 7, 0
1503513683636,0, -2, -3, -3, -3, -1, 1, -5, 0
1503513683658,21, 5, 0, 8, 1, 2, 3, 30, 0
1503513683680,-9, -6, -5, -3, -2, -2, -3, -6, 0
1503513683697,6, -4, -2, -4, -2, -1, 0, 31, 0
1503513683718,-7, 9, 3, -6, -2, -2, -3, -5, 0
1503513683740,-10, -2, -2, -6, -4, -3, -6, -31, 0
1503513683757,1, -3, 1, 8, 14, 4, 4, -1, 0
1503513683778,1, -12, -10, -4, -4, 1, 3, 21, 0
1503513683800,-12, -5, -1, -2, 1, -1, -7, -39, 0
1503513683816,6, 1, 1, 3, 2, 0, 0, 9, 0
1503513683838,-4, 0, -1, 2, -2, 0, -2, -1, 0
1503513683861,-1, 1, -1, -7, -4, -2, -3, -5, 0
1503513683876,-6, 3, 3, -3, -6, -4, -1, -9, 0
1503513683898,0, -7, -6, -8, -7, -3, -6, -19, 0
1503513683920,-3, -5, -2, -2, -5, -1, 1, 2, 0
1503513683943,3, -11, -5, -1, 2, -1, 4, 14, 0
1503513683960,1, 2, 4, 3, 4, 1, 4, 6, 0
1503513683980,-1, 0, -3, 1, 4, 0, 1, -3, 0
1503513683998,-3, 5, 1, -4, 9, 4, 1, -16, 0
1503513684018,-4, -3, -4, -3, -3, -2, -5, -11, 0
1503513684040,5, 7, 9, 1, -4, -3, -4, 3, 0
1503513684056,10, -2, -6, -2, -1, -2, 4, 22, 0
1503513684078,-4, 2, 0, 2, -2, 0, -3, -14, 0
1503513684101,2, 3, 1, -4, -7, -5, -2, 3, 0
1503513684116,1, -4, 2, 9, 14, 2, -5, -8, 0
1503513684144,5, 5, 0, -5, -7, -2, -2, -12, 0
1503513684161,-11, -4, 0, 2, 2, 0, 3, -3, 0
1503513684176,-7, 1, 0, -2, -1, 0, -4, -13, 0
1503513684198,7, 2, 1, 1, -1, -3, -4, -3, 0
1503513684220,-3, -9, -5, -2, -3, 0, 0, 7, 0
1503513684236,-6, -9, -8, -2, -2, -1, -4, 4, 0
1503513684251,-4, 5, -1, -4, -4, -1, 2, -5, 0
1503513684265,-2, -3, -1, -2, -5, -3, -5, -4, 0
1503513684288,5, 1, 0, -4, -5, -3, -4, -2, 0
1503513684311,3, 8, 2, -1, 1, -1, -5, -4, 0
1503513684325,-2, 7, 13, 4, 1, 2, 2, 13, 0
1503513684348,1, 2, 0, -1, 3, -1, -5, -11, 0
1503513684371,-1, 1, 0, 1, 1, -3, -6, -2, 0
1503513684386,-3, -1, -1, -4, -5, -1, -3, -42, 0
1503513684408,0, -8, -10, 0, 2, 3, 7, 26, 0
1503513684430,-1, -2, -1, -3, 0, 0, 3, 14, 0
1503513684446,-1, 4, 6, 2, 1, 2, 7, 17, 0
1503513684468,4, -1, 2, 4, 3, 0, 0, -1, 0
1503513684490,-16, -7, -6, -2, -4, -2, -4, 0, 0
1503513684521,-1, -6, -5, -5, -3, 0, -3, 3, 0
1503513684536,5, 3, 4, 1, -3, -2, 2, 32, 0
1503513684558,0, -2, -1, 1, 1, 1, 3, 8, 0
1503513684580,0, -4, -3, -4, -6, 1, 3, 7, 0
1503513684603,2, 0, 2, 0, 0, 0, 2, 3, 0
1503513684618,0, -1, -5, -3, -3, -4, -4, 6, 0
1503513684640,0, -3, -2, -4, -1, 1, 3, -18, 0
1503513684666,-1, 9, 3, -5, -4, 0, -3, -9, 0
1503513684678,-1, -4, -3, 3, 1, -1, 1, 7, 0
1503513684701,-1, 1, 2, 2, 1, -1, -3, -2, 0
1503513684723,-8, -4, -7, 0, 2, -1, -4, -23, 0
1503513684738,1, 6, 5, -1, 0, 0, 2, 19, 0
1503513684760,-3, -5, -2, -3, -3, -2, -10, -45, 0
1503513684790,0, 2, 2, 2, 0, -2, 0, 9, 0
1503513684801,-4, -9, -9, 0, 0, 1, -1, 6, 0
1503513684820,1, -3, -4, -6, -3, -2, 0, -2, 0
1503513684843,5, 2, 2, 2, 0, -1, 1, 11, 0
1503513684858,-2, -5, -1, 1, 1, 0, 2, 14, 0
1503513684880,4, 3, 0, -3, -2, 0, 2, 0, 0
1503513684903,-6, -4, 1, 1, -2, -2, 3, 17, 0
1503513684918,2, -4, -6, -4, -3, 2, 0, 5, 0
1503513684940,3, 3, 3, 1, 1, -3, -3, 4, 0
1503513684963,-3, -1, -4, 4, 7, -3, -3, -24, 0
1503513684978,0, -1, 3, 13, 10, 0, -2, 3, 0
1503513685000,-13, 0, -1, -4, -4, -3, -4, -35, 0
1503513685008,2, 1, 1, 2, -3, -2, 1, -9, 0
1503513685030,-2, 5, 4, -2, -3, 0, -1, -6, 0
1503513685052,2, -1, -3, -3, 0, 1, 3, 5, 0
1503513685068,-7, -1, -5, -7, -6, -1, -1, -25, 0
1503513685091,-2, -1, -2, 1, 0, -1, -1, -4, 0
1503513685112,-3, -1, 4, 5, 4, -1, -3, -7, 0
1503513685128,-2, -2, -2, 3, 1, 1, 0, 17, 0
1503513685150,-8, 2, 6, 6, 8, 0, -3, -12, 0
1503513685172,10, 8, 2, -2, -4, -1, 1, -2, 1
1503513685188,-5, 1, 4, -1, -4, -2, -1, -5, 1
1503513685210,-6, -2, -5, -5, -2, 0, -4, -7, 1
1503513685232,-6, -2, -3, -4, -5, -3, -5, -16, 1
1503513685248,4, 1, 1, 4, 4, 3, 10, 22, 1
1503513685271,-1, -4, -1, -5, -4, -3, -11, -13, 1
1503513685292,1, 5, 0, -1, 0, -2, 0, -9, 1
1503513685308,-3, -10, -6, -4, -1, 0, 0, -1, 1
1503513685331,3, 2, 1, 2, -1, 0, 2, 20, 1
1503513685359,4, 7, 5, -1, -3, -3, -5, -6, 1
1503513685369,-7, 9, 9, 4, 1, 0, 0, -9, 1
1503513685391,-8, 0, 6, 2, -4, -2, -1, -22, 1
1503513685412,1, -11, -8, -4, -1, -1, 3, 45, 1
1503513685428,3, -1, -2, -5, -5, -2, -5, 19, 1
1503513685451,2, -1, -1, -4, -2, 1, 3, -5, 1
1503513685475,-5, -3, -7, 0, -2, -1, 2, -11, 1
1503513685488,4, 0, 0, 11, 8, -1, -6, 0, 1
1503513685515,-1, -1, -5, -4, 2, 2, 1, -7, 1
1503513685532,-7, -2, -4, -6, -6, 0, 0, -12, 1
1503513685555,6, -12, -11, 0, 0, -5, 0, 18, 1
1503513685572,-5, -4, -2, 1, 0, 1, -5, -6, 1
1503513685592,0, 4, 3, -2, -4, -1, 1, -26, 1
1503513685615,0, -1, -1, -4, -2, -2, 0, -5, 1
1503513685631,0, 1, 2, 1, 0, -2, -3, -1, 1
1503513685652,-2, 0, 2, -4, -2, -1, -1, -3, 1
1503513685676,-7, -4, -2, 1, 2, 0, -2, -7, 1
1503513685690,3, 0, 2, 0, 1, 0, 1, 14, 1
1503513685715,3, -1, 1, 0, 0, -1, -3, 10, 1
1503513685735,-7, -3, -3, 0, 2, -2, -3, -1, 1
1503513685750,0, -6, -7, 0, 0, 1, 1, -2, 1
1503513685773,-2, 1, -2, -3, -5, -3, -5, -26, 1
1503513685795,0, 0, 2, 2, 1, -2, 0, 14, 1
1503513685817,-3, 3, 3, 2, 1, 10, 1, -5, 1
1503513685832,-3, 5, 2, 3, 1, 2, 1, -6, 1
1503513685855,-4, -3, 0, -6, -5, -8, -6, -15, 1
1503513685871,4, -3, -7, 0, 0, -2, -1, 1, 1
1503513685892,0, -6, -6, -5, -2, -1, 0, 12, 1
1503513685916,-3, -3, -3, -3, 2, -3, 4, 7, 1
1503513685933,-3, 0, -4, -5, -3, -2, -1, 4, 1
1503513685945,1, -7, -4, 6, 3, -1, 1, 24, 1
1503513685960,-5, -8, 0, -1, -5, -4, -1, 0, 1
1503513685983,-6, 0, 1, -1, 1, 0, -4, -14, 1
1503513686008,-7, -3, -5, -3, -3, -2, 4, -9, 1
1503513686024,7, 1, 3, 1, -3, 1, 4, 48, 1
1503513686043,3, -1, -1, 0, 3, 0, -2, -7, 1
1503513686066,-7, -11, -7, -7, -5, -3, -1, -10, 1
1503513686081,3, 7, 9, 2, 1, -2, -9, -16, 1
1503513686103,-3, -3, -6, -4, -2, 1, 4, 2, 1
1503513686125,0, 2, -4, -1, -1, -2, -1, -2, 1
1503513686143,-1, -3, 0, 0, -2, 1, 1, 0, 1
1503513686163,-1, 4, 5, 0, -2, 0, 1, 7, 1
1503513686186,-3, -1, -2, -5, -2, 1, 1, -5, 1
1503513686200,3, 18, 10, 0, -1, 0, 0, 2, 1
1503513686231,3, 3, 4, 3, 4, 1, 1, 6, 1
1503513686252,-6, -9, -2, 1, -1, 0, -4, -8, 1
1503513686277,1, -8, -7, 1, 2, 0, -4, 4, 1
1503513686290,7, -3, -5, -3, -3, 1, 5, 28, 1
1503513686313,-9, -7, -5, -1, -2, -3, -1, 0, 1
1503513686335,1, 11, 6, 2, -1, 0, 1, -14, 1
1503513686352,4, -5, -3, -2, -2, -2, 1, 4, 1
1503513686381,-2, -7, -2, 4, 1, 0, 0, 2, 1
1503513686403,0, -7, -6, 4, 6, -1, 1, -2, 1
1503513686425,6, -2, 0, -4, -3, -1, 2, 9, 1
1503513686440,-5, -7, -7, -4, -2, -1, -3, 0, 1
1503513686463,2, 5, 3, -1, -1, -1, 1, 0, 1
1503513686486,1, -1, -1, -4, -5, 1, 2, 7, 1
1503513686508,-4, -9, -5, -3, 3, 3, 6, -6, 1
1503513686523,-4, -10, -7, -3, -5, -3, -7, -4, 1
1503513686546,-5, 3, 5, 4, -1, -3, -6, -16, 1
1503513686568,1, 3, -2, -1, -2, 0, 1, -3, 1
1503513686583,3, 3, -3, -2, -2, -2, -3, 5, 1
1503513686605,4, 0, 2, 2, 5, -1, -2, 9, 1
1503513686628,-4, -1, 3, -1, -3, -2, 2, 0, 1
1503513686642,-1, 2, 5, 2, 3, 0, -2, -14, 1
1503513686665,1, 8, 7, 3, -1, 2, 0, -4, 1
1503513686688,-8, -4, -10, -4, -4, -1, -2, -18, 1
1503513686703,2, 9, 12, 0, -1, -1, 1, 10, 1
1503513686725,-10, 2, -3, -6, -6, 2, 2, -16, 1
1503513686748,4, -10, -7, -5, -6, -3, -1, 32, 1
1503513686762,-4, -10, -7, -5, -3, -3, -6, -11, 1
1503513686785,7, 21, 6, 0, 3, -1, -1, 5, 1
1503513686808,-3, -10, -12, -2, -2, 0, -3, -12, 1
1503513686823,0, -8, -7, 3, 2, 0, 1, -1, 1
1503513686847,8, 17, 14, 5, -1, -2, 1, 14, 1
1503513686868,-3, -4, 5, 4, -2, -3, -1, 2, 1
1503513686875,2, 10, 6, -2, -3, -1, 0, 0, 1
1503513686897,3, -13, -4, -3, -2, -1, 3, 30, 1
1503513686914,-7, -2, 1, 2, 2, -1, -5, -26, 1
1503513686934,2, 0, -4, -5, -5, -3, 1, 2, 1
1503513686957,-4, 0, -1, -1, 4, 0, 0, -19, 1
1503513686973,-3, -4, -3, -3, -3, -1, 0, -9, 1
1503513686995,-5, -10, -4, -2, -3, -4, -4, 4, 1
1503513687019,0, 8, 7, -2, -2, 1, 4, -3, 1
1503513687033,3, -6, -6, 0, 5, 2, 0, 7, 1
1503513687056,-6, -14, -11, -2, -3, -1, 0, -7, 1
1503513687078,1, 6, 3, 1, -1, 0, 2, 15, 1
1503513687101,-1, -2, -6, -6, -8, -2, -1, -12, 1
1503513687117,1, -4, -5, -5, -5, -2, 0, 4, 1
1503513687138,-8, -4, -1, -2, -2, 0, 3, 11, 1
1503513687161,-1, -2, 0, 0, 1, -1, -5, -4, 1
1503513687176,3, 14, 4, -2, -2, -3, -3, -8, 1
1503513687198,-1, -10, -8, 2, 1, 0, -2, -9, 1
1503513687221,0, 5, 1, 3, 7, 2, -1, 11, 1
1503513687236,-5, -2, -2, -3, -3, -3, -8, -4, 1
1503513687259,-1, 4, 3, 3, 1, -1, -2, -6, 1
1503513687284,0, 1, 1, 1, 1, -1, -1, -7, 1
1503513687296,-3, 1, 0, -3, -2, 0, -3, -5, 1
1503513687318,-9, -11, -4, -4, -2, -2, -3, -34, 1
1503513687341,3, 5, 3, 1, -2, -3, 3, 7, 1
1503513687356,4, 3, -2, -1, 0, 0, -1, 4, 1
1503513687378,-4, -3, 5, 2, 0, -1, -2, -3, 1
1503513687401,7, 11, 4, 0, -1, -1, -1, -1, 1
1503513687419,-1, -3, -3, -4, -7, -3, -3, 1, 1
1503513687438,-2, -5, -4, -1, -1, 0, 2, 8, 1
1503513687461,-2, 1, 3, 4, 7, 0, -7, -8, 1
1503513687476,6, 15, 5, 1, -2, 1, 1, 2, 1
1503513687500,0, 1, 3, -1, -2, 1, 0, 6, 1
1503513687521,3, -15, -10, 3, 0, 1, 6, 12, 1
1503513687536,-2, -2, -3, -1, 5, 0, -2, -2, 0
1503513687558,-2, -3, 1, 4, 2, -2, 2, 16, 0
1503513687581,3, -15, -9, -7, -6, -4, -2, 10, 0
1503513687596,-3, -2, 0, 0, -2, -2, 1, -7, 0
1503513687621,-3, 6, -2, -6, -3, 0, 4, -10, 0
1503513687641,0, 9, 9, 3, 0, -2, -4, -11, 0
1503513687656,4, -3, -4, -2, -2, 0, -1, 6, 0
1503513687678,-2, 5, 1, -3, -6, -2, -5, -13, 0
1503513687701,-2, -1, -3, 0, 5, 0, -1, -4, 0
1503513687716,-3, 3, -1, -3, -5, -1, -1, 0, 0
1503513687738,1, -11, 2, 0, 1, -1, 0, 13, 0
1503513687761,-2, -15, -13, -2, 2, -1, 0, -5, 0
1503513687776,-1, 0, -3, -1, 3, 1, -3, 0, 0
1503513687798,-2, 19, 12, 3, 1, 0, -4, -6, 0
1503513687821,-1, 7, 2, 1, 0, 1, 3, -4, 0
1503513687836,5, 10, 2, -7, -9, -5, -2, 4, 0
1503513687858,-3, -28, -11, 1, 1, -1, -1, -5, 0
1503513687881,-9, 1, 5, 2, 10, 2, -1, -23, 0
1503513687903,1, 1, -1, 0, -2, -1, 2, 17, 0
1503513687921,-2, 16, -2, 0, 0, -2, -10, -17, 0
1503513687927,-3, -20, -11, -3, -4, -3, -3, 8, 0
1503513687948,3, 9, 4, 2, 1, 1, 2, 6, 0
1503513687970,8, 4, 4, -1, 0, -3, 0, 16, 0
1503513687985,-6, 3, 3, -3, -2, -2, -1, -11, 0
1503513688008,4, -11, -9, -3, -1, -1, -1, 6, 0
1503513688031,0, 6, 5, 5, 2, 2, -1, -12, 0
1503513688045,0, -6, -6, -5, -4, 1, 4, 9, 0
1503513688068,2, 12, 12, 7, -2, -1, -4, -17, 0
1503513688091,-3, 2, 2, 2, 2, -1, -2, 6, 0
1503513688105,-3, -8, 0, -1, 0, -1, -4, -22, 0
1503513688143,11, 7, -1, 0, -1, 0, 2, 37, 0
1503513688159,-2, 5, -1, -1, -1, 0, 1, -7, 0
1503513688181,4, 14, 12, 8, 6, 0, -5, -15, 0
1503513688203,-6, 2, 1, 2, 0, -2, -2, -15, 0
1503513688218,0, -4, 0, 1, -2, 0, 1, 2, 0
1503513688241,-9, -5, 3, 8, 3, -4, -8, -50, 0
1503513688263,1, 14, 3, -3, -3, 1, 3, -2, 0
1503513688278,-2, -9, -6, -4, 0, -1, 0, 1, 0
1503513688300,0, -1, 3, -1, -7, -4, 4, 17, 0
1503513688307,-9, 12, 8, -1, -3, -1, -5, -58, 0
1503513688330,5, 5, -7, -1, -1, -1, 0, 1, 0
1503513688352,-2, 5, -1, 0, 0, -1, -1, -11, 0
1503513688369,-2, -8, -4, -3, -2, -1, -1, 15, 0
1503513688391,-9, -8, -2, 0, -2, 0, -2, 5, 0
1503513688412,-4, -5, -3, -2, 0, 0, 0, -1, 0
1503513688427,-5, -1, 1, 2, 5, 1, -4, -1, 0
1503513688443,-5, 0, 6, 2, -1, -2, 0, -2, 0
1503513688459,2, -11, -12, -4, 0, 1, 3, 8, 0
1503513688481,0, 7, 2, -1, -5, -5, -1, 22, 0
1503513688502,-5, 25, 9, 4, 3, -2, -8, -28, 0
1503513688518,-2, -17, -8, -3, 0, 0, -1, 3, 0
1503513688541,2, 11, 5, 2, 3, 0, 1, -7, 0
1503513688563,3, 2, 5, 0, -3, -2, -1, 6, 0
1503513688578,-4, -21, -10, -9, -6, 2, 4, -12, 0
1503513688602,5, -7, -3, 2, -4, -1, 1, 10, 0
1503513688622,4, 4, -3, -1, -3, -3, -1, 19, 0
1503513688638,-1, -11, -11, -5, -4, -2, 2, 22, 0
1503513688653,2, -6, -8, -6, -4, 1, -1, 0, 0
1503513688662,-5, -7, -3, 2, -1, -3, -6, -21, 0
1503513688683,-8, 3, 1, -1, -1, -2, -5, -46, 0
1503513688698,1, -1, 8, -3, -3, -1, -5, 14, 0
1503513688721,9, 5, -6, -4, 1, 2, 2, 6, 0
1503513688743,-4, 0, -2, 0, 0, -1, -6, -47, 0
1503513688760,-1, -14, -5, -4, -1, 0, 3, 6, 0
1503513688781,-5, -7, -4, -3, 4, 3, -1, 4, 0
1503513688804,6, 14, -3, 2, -1, 0, 0, 1, 0
1503513688818,2, -13, -5, -2, -4, -3, 4, 32, 0
1503513688841,1, -13, -3, -1, 1, 2, 4, 6, 0
1503513688863,-4, -7, -1, 7, 3, 0, -3, -2, 0
1503513688878,-3, 12, 8, -4, -3, -2, 2, 10, 0
1503513688900,-4, -6, -5, -8, -3, -3, 1, 22, 0
1503513688907,2, 0, -3, -4, -2, -1, -2, -10, 0
1503513688930,1, 21, 10, 4, 2, -1, -8, -5, 0
1503513688952,7, 5, 5, 2, 4, 0, -3, -2, 0
1503513688963,0, -2, 4, 2, -1, -2, 2, -6, 0
1503513688983,-1, 4, -3, -4, -5, -3, 2, -6, 0
1503513688998,-8, 3, -2, -4, -6, -5, -8, -36, 0
1503513689021,2, -4, -4, 0, -3, 1, -1, 8, 0
1503513689029,5, 7, -3, -3, -3, -1, 1, 0, 0
1503513689051,1, 1, 1, -2, -1, 1, 3, 4, 0
1503513689073,-1, 5, 3, 6, 4, -3, -3, 7, 0
1503513689088,-3, -3, -8, -15, -12, -6, -7, -16, 0
1503513689110,-4, -4, -5, -3, -3, -2, -3, -19, 0
1503513689136,2, -5, -8, -4, -2, -4, 1, 14, 0
1503513689156,-1, -4, 0, -2, -2, 0, -2, -8, 0
1503513689172,0, -1, 3, -1, -1, -3, -1, 4, 0
1503513689193,1, 3, 0, 4, 2, 1, 4, 19, 0
1503513689208,2, -6, -5, 2, 4, 0, 2, 10, 0
1503513689232,5, 6, 1, 0, 0, 0, -1, -7, 0
1503513689253,-8, -1, 3, 2, 0, 0, -3, 1, 0
1503513689275,-5, 7, -1, -3, -1, 0, -1, 2, 0
1503513689290,-1, 17, 11, 0, -3, 1, 0, -2, 0
1503513689312,-1, -4, -2, 3, 0, -2, -3, -14, 0
1503513689335,3, -2, -1, -2, 0, -1, -1, -6, 0
1503513689350,1, -1, 0, 3, 5, 1, 1, 12, 0
1503513689372,-5, 2, -2, -6, -7, -2, -2, -8, 0
1503513689380,-2, 1, 1, 2, 1, -1, 0, -5, 0
1503513689403,-1, 3, 1, 3, 2, 2, 2, 3, 0
1503513689425,-6, -4, -1, -1, 0, 1, -2, 0, 0
1503513689441,-2, 0, -3, -5, -6, -4, -5, -8, 0
1503513689465,4, 0, -2, -1, -2, -1, -3, 10, 0
1503513689485,2, -2, 2, -1, -2, -2, 1, 5, 0
1503513689501,1, 6, 5, 3, 2, -1, 1, 2, 0
1503513689523,1, 8, 2, 0, 1, 1, -3, 4, 0
1503513689545,7, 7, 1, 0, 1, 2, 6, 26, 0
1503513689561,-2, -10, -5, 4, 3, 0, 0, -3, 0
1503513689583,0, 1, 3, 4, 0, -2, -3, -6, 0
1503513689606,-7, -16, -14, -9, -3, -1, -2, -15, 0
1503513689613,2, 2, -3, -2, -1, -1, 4, 6, 0
1503513689636,-4, -2, -5, -2, -3, -1, -4, -11, 0
1503513689651,0, -2, -1, 2, 0, -1, -1, 0, 0
1503513689673,0, -4, -5, -4, -2, 0, -2, -4, 0
1503513689695,0, -4, -5, -1, 1, 1, -1, 1, 0
1503513689710,-1, 3, 5, 3, 0, -2, -4, -12, 0
1503513689733,-10, -4, -3, -5, -3, -1, 1, -15, 0
1503513689755,-1, -5, -4, -5, -3, -1, 0, 5, 0
1503513689771,2, -4, -3, 1, 1, 0, 0, 3, 0
1503513689793,2, 4, 2, -2, -3, -5, -2, 4, 0
1503513689815,4, 2, 1, -1, -1, -1, 3, 16, 0
1503513689830,-1, -12, -9, -6, -4, -2, -2, -3, 0
1503513689853,1, 2, 1, 0, -1, -1, 0, 0, 0
1503513689876,-3, -5, -1, 0, -1, -1, 0, 0, 0
1503513689890,1, 6, 3, 1, -2, -1, -2, -1, 0
1503513689913,2, 4, 1, 4, 1, 1, -1, 0, 0
1503513689935,-1, 3, -2, -2, -3, -1, -2, -2, 0
1503513689950,-2, 0, 0, -4, -2, -1, 0, 0, 0
1503513689973,0, -5, 1, 4, 2, 1, 0, 1, 0
1503513689995,-1, -3, -1, -1, -2, -1, 0, 5, 0
1503513690011,-4, 0, -4, -3, -1, -1, 0, 2, 0
1503513690032,-2, 1, 3, 2, 3, -1, -5, -7, 0
1503513690055,-2, 2, 6, 2, -1, 1, -2, 0, 0
1503513690073,0, -4, -6, -5, 3, 3, 3, 4, 0
1503513690092,-1, 2, 3, 4, 0, -1, -1, 2, 0
1503513690115,2, 6, 10, 10, 5, -2, -4, -4, 0
1503513690130,-2, -9, -7, -8, -4, 0, 3, -5, 0
1503513690152,0, 3, -3, -3, -2, -1, 0, 1, 0
1503513690175,1, -4, 1, 2, 1, -1, -2, -2, 0
1503513690197,-1, 1, 3, -2, -2, -1, -3, -4, 0
1503513690206,4, 4, 5, 4, 2, 0, -1, 19, 0
1503513690227,0, -3, -2, 2, 1, 0, 0, 14, 0
1503513690243,-3, -4, -4, -1, -2, -2, 3, -2, 0
1503513690265,0, 3, 2, 0, 0, -1, -1, -6, 0
1503513690287,-2, 2, 4, 4, 4, 0, -1, -3, 0
1503513690317,-1, -1, -3, 0, -1, -1, 0, 3, 0
1503513690332,-2, -1, -1, 1, 3, 0, -1, -7, 0
1503513690355,-1, 0, -2, -1, -2, -1, -1, -12, 0
1503513690377,2, -2, -2, -1, -3, 0, -4, 1, 0
1503513690392,-1, 2, 4, 4, 2, -1, -3, 2, 0
1503513690415,1, 2, 3, -1, -2, -1, 0, 1, 0
1503513690439,1, 0, 4, 3, 0, 0, -1, 3, 0
1503513690453,-2, -1, -3, -2, 2, 0, -2, 5, 0
1503513690475,-1, 0, 2, 1, -1, -2, -3, -2, 0
1503513690497,-1, -2, -5, -5, -4, -1, 4, 7, 0
1503513690513,-2, -1, -4, -1, 1, 0, 1, 12, 0
1503513690528,-1, -4, -3, 6, 4, 0, 0, -5, 0
1503513690544,0, 0, 0, -2, -1, -2, -1, -1, 0
1503513690565,-6, -1, 4, 1, 4, 0, -2, -24, 0
1503513690587,2, 1, -4, -2, -2, -1, -1, 2, 0
1503513690603,-1, -1, -3, -1, 0, -1, 0, 3, 0
1503513690625,0, 0, 5, 1, -2, -2, -1, -1, 0
1503513690648,2, 0, 2, 0, -1, -1, 0, 1, 0
1503513690663,0, -1, 4, 2, 2, -3, -4, -1, 0
1503513690686,0, -3, -5, -5, -3, 1, 0, -1, 0
1503513690708,-1, 2, 1, 0, -1, 0, 0, 1, 0
1503513690716,-5, -5, -2, 2, 1, -1, -3, -5, 0
1503513690737,1, 0, 2, 1, -1, -2, -2, 16, 0
1503513690753,-3, -6, -3, -5, -1, 1, 1, 2, 0
1503513690775,-3, -1, 0, 2, -2, 2, 3, -5, 0
1503513690798,6, 15, 12, 3, 3, 0, 1, 2, 0
1503513690812,-7, -3, -6, -2, 0, -1, -4, -34, 0
1503513690835,6, 0, 1, 5, 4, 0, -1, 15, 0
1503513690857,-2, -6, -6, -3, -1, -1, 1, 1, 0
1503513690875,-3, 1, -11, -6, -3, 0, -1, -2, 0
1503513690895,1, -5, 2, 2, -3, -2, -3, 11, 0
1503513690917,-1, -3, 1, -4, -3, -1, 0, 3, 0
1503513690932,-4, -4, -3, -5, -3, -2, -1, -12, 0
1503513690955,4, 5, 1, 5, 3, 1, 0, 0, 0
1503513690977,-3, -3, -2, 1, -1, -5, 0, -14, 0
1503513690992,-1, -3, 0, -1, -1, 0, 1, 8, 0
1503513691010,-3, 2, 5, 3, 0, -2, -1, -5, 0
1503513691023,-8, 1, 0, 2, 1, 0, -3, -35, 0
1503513691045,-3, 0, 2, -4, -2, -4, -4, 1, 0
1503513691067,-2, 1, -3, -1, 3, 1, 4, -3, 0
1503513691076,-3, -2, -4, -4, 0, -2, -3, 1, 0
1503513691097,-7, -9, -10, -2, -1, -1, -2, -11, 0
1503513691119,3, 2, 0, -1, 0, -2, -4, 0, 0
1503513691136,3, 5, 5, 11, 7, 0, -1, 0, 0
1503513691157,-1, -4, -1, -2, 0, 1, 1, 0, 0
1503513691182,5, 0, 2, -3, -4, -2, 1, 18, 0
1503513691195,-4, -5, -2, 0, -2, 0, 0, -7, 0
1503513691218,-4, -5, -3, 0, 3, 2, 0, -8, 0
1503513691225,-2, -1, 1, 8, 10, 0, -1, 5, 0
1503513691248,1, 2, -1, -4, -2, -2, 0, 0, 0
1503513691270,-2, 1, 3, 0, -4, -2, -7, -2, 0
1503513691286,-1, -5, -6, -2, -1, 1, 5, 18, 0
1503513691308,1, -1, -5, -3, -2, -2, -2, -5, 0
1503513691330,-2, 4, -1, -4, -5, -4, -2, -2, 0
1503513691345,-1, -3, 1, -2, -3, -2, -5, -7, 0
1503513691367,2, -1, 1, -2, -1, -1, -1, 13, 0
1503513691390,4, 0, -3, -3, -1, 0, -1, 7, 0
1503513691405,-4, -10, -4, -1, -2, -3, -2, -2, 0
1503513691427,-4, -3, -3, 2, 1, 1, 1, -4, 0
1503513691451,-2, -2, -3, 1, -1, -1, -3, -10, 0
1503513691465,-3, 0, -3, -4, 0, 1, 0, -7, 0
1503513691488,-8, 0, -4, 0, -2, 0, 1, -19, 0
1503513691513,1, -8, -5, -1, 0, 3, 2, 1, 0
1503513691517,1, 1, -1, 3, 4, -1, -3, 4, 0
1503513691539,-1, 2, 2, -1, 0, -1, -2, -5, 0
1503513691548,3, -1, 0, -7, -5, 0, -2, -1, 0
1503513691570,-1, -1, 0, -3, 1, -3, 1, 8, 0
1503513691585,-3, -6, -3, -2, -2, -4, -9, -4, 0
1503513691607,3, -8, -2, 2, 1, -1, 5, 3, 0
1503513691630,-4, -6, -8, -8, -6, 0, -1, -1, 0
1503513691647,1, 4, 2, -5, -5, 0, 0, -11, 0
1503513691667,6, 12, 11, 9, 7, 1, -1, 9, 0
1503513691690,1, 1, 0, -1, -1, -1, -3, -16, 0
1503513691705,0, -6, 2, 2, 0, 0, 0, 6, 0
1503513691727,-8, -3, -3, 0, 2, 0, -3, -7, 0
1503513691750,2, 1, -1, 3, 0, -2, -2, 9, 0
1503513691766,1, 1, 0, 3, 0, 1, 2, 4, 0
1503513691787,-1, 1, -2, -4, -3, 1, 1, 7, 0
1503513691811,5, 9, 1, -2, -2, -2, 1, 22, 0
1503513691825,2, 0, -1, -3, -4, 3, 8, 8, 0
1503513691848,-4, -4, -2, 6, 4, 0, -1, -14, 0
1503513691870,4, -4, -3, -2, -1, -2, -4, 21, 0
1503513691885,-3, -7, -3, -3, -2, -1, -1, -23, 0
1503513691907,-7, -5, -3, 5, 14, 4, 1, -8, 0
1503513691930,-2, -11, -7, -3, -2, -1, 2, 8, 0
1503513691945,5, 6, 6, 2, 1, -1, -2, -8, 0
1503513691967,-8, 1, 1, -5, -4, -1, -2, -25, 0
1503513691991,-5, 0, -1, -4, -6, -5, -1, -1, 0
1503513692006,-2, -13, -11, -5, -6, -2, -1, 0, 0
1503513692028,6, 1, -2, 2, 1, 0, 1, 5, 0
1503513692051,-2, -3, 1, -2, -1, -2, -4, 20, 0
1503513692073,3, -3, -6, -1, -3, -3, -4, 5, 0
1503513692088,0, 3, 5, 3, 0, 0, -3, -7, 0
1503513692110,9, 4, 4, -1, 0, 1, 2, 9, 0
1503513692132,-10, -3, -5, -1, -3, -3, 0, -2, 0
1503513692147,-7, -10, -6, -4, -3, 0, -2, -14, 0
1503513692170,11, 5, 7, 3, -1, -1, 0, 37, 0
1503513692192,-1, 9, 4, -3, -1, -1, -2, -8, 0
1503513692209,-2, 3, -4, 2, 4, 1, -5, 0, 0
1503513692232,0, 0, -3, 3, 3, 4, 7, -4, 0
1503513692254,-4, -3, -3, -8, -7, -4, 0, -9, 0
1503513692267,-13, -3, -2, -1, -4, -3, -4, -26, 0
1503513692297,-3, -1, -2, -1, -1, 1, 1, -12, 0
1503513692319,5, 7, 6, -1, 1, -1, -1, 2, 0
1503513692343,0, -1, -1, -7, -7, -2, 1, 3, 0
1503513692365,-25, -3, 0, -2, -2, -1, 5, -28, 0
1503513692381,3, -5, -6, -3, 2, 0, -4, 8, 0
1503513692390,-5, 3, 0, 0, 1, -1, -1, -6, 0
1503513692410,1, -6, -2, 3, 3, 0, 3, 10, 0
1503513692432,-2, -1, 2, -3, -2, 0, 2, -11, 0
1503513692447,6, -3, -1, 3, 3, 0, 0, 4, 0
1503513692470,-6, 0, 2, -3, -5, -3, -4, 2, 0
1503513692492,0, 3, 2, -2, -3, 0, 2, 11, 0
1503513692507,-6, -11, -5, 3, 6, 1, -4, -17, 0
1503513692530,8, -2, -4, -5, -5, -3, -4, -2, 0
1503513692553,-1, 1, 1, -4, -5, -3, -1, 12, 0
1503513692567,4, 9, 8, 2, -2, 1, 1, 1, 0
1503513692591,5, 14, 3, -3, -7, -4, -7, -7, 0
1503513692612,-7, -4, -1, -2, 1, -2, 0, 7, 0
1503513692627,-3, -7, -5, -3, 2, 0, 3, 1, 0
1503513692650,-1, -2, -4, -3, -1, 1, 1, -4, 0
1503513692672,1, -4, -2, -2, -4, 1, -2, 6, 0
1503513692687,-1, -4, -8, -7, -10, -1, 3, 1, 0
1503513692704,5, -1, -1, 2, 1, 1, 2, 34, 0
1503513692726,-3, 0, 5, 0, -6, -1, 1, -4, 0
1503513692740,-4, 9, 5, 4, 3, 3, 3, -5, 0
1503513692763,-6, -7, -5, -2, 1, -2, -3, -12, 0
1503513692787,-5, 4, 5, 13, 15, 4, 3, -13, 0
1503513692793,-1, -6, -7, -5, -7, -1, 0, -8, 0
1503513692815,-5, -6, -4, 2, -1, 0, -2, -9, 0
1503513692831,2, 11, 14, 3, -2, -2, -5, 3, 0
1503513692854,7, -5, -6, 2, 1, -1, 1, 24, 0
1503513692867,-7, -9, -4, -7, -7, 0, 1, 2, 0
1503513692890,4, -4, -6, 2, 7, 2, 8, 36, 0
1503513692913,-10, -10, -10, -2, 2, 0, -2, -19, 0
1503513692927,-10, -3, -5, -11, -12, -5, -9, -18, 0
1503513692950,-6, 6, 8, -3, -7, -3, -3, -28, 0
1503513692972,0, 3, 3, -3, -6, -3, -2, -5, 0
1503513692995,-5, -7, -3, -2, -1, -2, -2, -19, 0
1503513693010,5, -3, 2, 10, 12, 4, 1, 6, 0
1503513693032,0, -2, -4, -2, 6, 0, -7, -1, 0
1503513693057,-4, -4, -6, 2, -1, -3, -1, -4, 0
1503513693070,4, 0, 0, 1, -2, 0, 1, 1, 0
1503513693093,-3, -3, 0, 1, -1, -1, -2, -7, 0
1503513693115,-7, 1, -3, 4, 10, 0, -3, -8, 0
1503513693130,1, 1, -1, -5, -13, -4, 6, 10, 0
1503513693152,-3, 0, -1, 0, -3, -1, 0, -14, 0
1503513693175,1, -4, -6, -5, -2, -2, 2, 9, 0
1503513693192,-5, 0, 2, 1, 0, -3, -6, -3, 0
1503513693212,7, 8, 10, 0, -2, 1, 0, 5, 0
1503513693235,-4, 2, 2, 2, 4, 0, 3, 17, 0
1503513693250,5, -5, -6, 0, 4, 4, -2, 3, 0
1503513693272,-2, 0, -3, -5, -2, -3, -5, -17, 0
1503513693295,2, 14, 16, 6, 0, 0, -4, -9, 0
1503513693310,-3, -6, -9, -1, -2, -1, -1, -2, 0
1503513693332,18, 4, -3, -1, -3, -1, 7, 59, 0
1503513693355,-5, -15, -14, -10, -4, -1, 3, -4, 0
1503513693370,-6, 3, -4, -7, -5, -1, -2, -9, 0
1503513693394,-4, 2, 6, -1, -1, -3, 0, -16, 0
1503513693415,-1, 1, 0, -4, -4, -2, -8, -37, 0
1503513693432,-9, -2, 0, -5, -4, 1, 2, 4, 0
1503513693452,-4, -2, -3, -2, -5, -2, -3, -14, 0
1503513693475,4, 0, 8, 4, -1, 0, 4, 23, 0
1503513693494,-7, -4, -3, 0, 2, 0, -4, -1, 0
1503513693512,7, 1, -1, 4, 9, 4, 4, 16, 0
1503513693535,-3, -4, -3, -5, -6, -4, -2, -18, 0
1503513693550,-1, 0, 1, 2, -1, -1, 0, 3, 0
1503513693572,1, -3, -8, -1, 2, 1, -4, -27, 0
1503513693595,0, -5, -5, -5, -3, 0, -1, 5, 0
1503513693610,-2, 2, 2, 1, -4, -2, -3, -7, 0
1503513693632,1, 4, 2, 1, -1, -1, 0, -5, 0
1503513693640,-10, -6, -3, -2, -2, -5, -8, -35, 0
1503513693663,0, 2, 2, 9, 7, 1, 0, -3, 0
1503513693685,13, 8, 6, -1, -3, 1, 5, 24, 0
1503513693700,-9, -2, -4, -4, -4, -2, -2, -29, 0
1503513693723,1, 0, 1, 10, 18, 3, -3, -23, 0
1503513693745,2, -6, -3, -4, -7, -2, 0, 10, 0
1503513693765,-1, -9, -2, -3, -6, -2, 1, -8, 0
1503513693783,-12, -3, -2, -4, -2, -4, -7, -10, 0
1503513693805,-2, -2, -2, -4, -8, -4, -6, -18, 0
1503513693820,1, 1, -1, -2, -2, 1, 0, 12, 0
1503513693843,3, 0, -4, -4, -2, 0, 4, 18, 0
1503513693867,-13, -7, -3, -1, -3, -1, -6, -20, 0
1503513693880,-5, -4, -4, -1, 0, -2, -1, 14, 0
1503513693904,1, 7, 5, 4, 3, -2, 1, 15, 0
1503513693925,9, 2, -1, -1, -4, 1, 5, 19, 0
1503513693947,-11, 1, 0, 0, 0, 0, -3, -36, 0
1503513693964,3, -3, -1, -1, -1, -3, -7, -17, 0
1503513693986,11, -13, -14, -2, 1, 3, 4, 24, 0
1503513694007,-4, -7, -9, -2, -2, -3, -4, -4, 0
1503513694023,-7, 24, 27, 8, 7, 3, 2, -12, 0
1503513694045,-2, -10, -5, 0, 0, 1, 0, 3, 0
1503513694067,8, -3, -10, -4, -3, -1, 1, 29, 1
1503513694083,0, 7, 7, -2, -6, -5, -10, -29, 1
1503513694106,1, 18, 20, 5, 1, 2, 5, -2, 1
1503513694127,6, -7, -1, 2, 0, -2, -10, -47, 1
1503513694143,-2, 5, 9, 1, 1, 0, 5, -15, 1
1503513694169,-1, -10, -6, 1, 3, 1, 4, 2, 1
1503513694187,3, 8, -7, -3, -4, -1, 1, 35, 1
1503513694203,-1, 8, -3, -6, -6, -2, 3, 14, 1
1503513694225,-7, -15, -4, 1, 1, 1, -3, -3, 1
1503513694247,-4, -11, -5, -2, 2, 3, 5, -4, 1
1503513694267,-4, -4, 0, -3, -3, 0, 1, -2, 1
1503513694285,3, 6, 1, -6, -8, -3, -4, 13, 1
1503513694307,-5, -4, -4, -4, -2, -3, -4, -15, 1
1503513694323,5, -3, -2, 2, 2, -1, -4, 25, 1
1503513694345,-2, 24, 17, 6, 2, 0, 4, 6, 1
1503513694371,-11, 7, 4, 4, 5, -2, -1, -30, 1
1503513694383,3, -3, -4, -5, -3, -1, 0, 4, 1
1503513694400,0, -2, 1, 1, 0, -2, 0, 13, 1
1503513694412,-8, -11, -10, -6, -2, -1, 1, -24, 1
1503513694437,-2, -8, -2, -4, -4, -3, -1, 1, 1
1503513694457,1, -3, -1, -3, 0, 1, -2, 1, 1
1503513694472,-6, -6, -6, 2, 0, 2, 3, -19, 1
1503513694495,1, 1, -2, -3, -1, -4, -1, 8, 1
1503513694517,6, 9, 10, 8, 14, 2, 0, 0, 1
1503513694539,14, 0, 3, 0, 0, 1, 0, 2, 1
1503513694547,-4, 5, 6, 12, 10, 0, -6, -20, 1
1503513694563,-6, -5, -3, -6, -1, 2, 4, -7, 1
1503513694585,0, 7, 2, -4, -6, -3, 1, -11, 1
1503513694607,-2, -3, -4, -3, -3, 0, 1, -5, 1
1503513694623,1, -4, 1, -1, -3, -2, -2, 9, 1
1503513694645,-3, -16, -13, -3, -4, 0, 3, 11, 1
1503513694669,5, 4, 5, 3, 3, 0, 1, 9, 1
1503513694683,4, 1, 5, 0, -2, -3, -3, -4, 1
1503513694705,5, -1, -5, 3, 6, 0, 0, 11, 1
1503513694713,-10, -21, -18, -12, -12, -6, -9, -6, 1
1503513694737,-1, 15, 12, -2, -2, -1, -1, 15, 1
1503513694757,5, -9, -9, -1, 1, -1, 2, 11, 1
1503513694774,-6, -10, -8, 0, -1, 1, -4, -3, 1
1503513694795,5, -5, -3, -5, -6, 0, 1, -18, 1
1503513694817,-3, -5, -4, -1, -3, 0, 5, 3, 1
1503513694836,9, 7, -11, -8, -4, -1, -5, -17, 1
1503513694855,-4, -17, -10, 1, 0, -1, 0, 10, 1
1503513694877,-7, 1, 5, -3, -2, -1, 0, 3, 1
1503513694899,14, -7, -11, 2, 3, 4, 4, 17, 1
1503513694915,-1, 10, 6, -1, -2, -4, -6, -31, 1
1503513694938,2, -12, -2, 0, 0, -2, -1, 17, 1
1503513694959,6, 2, 6, 1, -2, -2, 0, 6, 1
1503513694975,-1, 12, 10, 5, 6, 2, 1, 28, 1
1503513694997,1, -4, -5, -1, -2, 1, 3, -20, 1
1503513695019,-1, -7, -9, -8, -5, -3, -2, -4, 1
1503513695036,-5, -4, -5, -3, 0, -1, -3, -3, 1
1503513695057,-10, 1, -1, -2, -3, 0, -11, -68, 1
1503513695079,7, 5, 2, 3, 7, 3, 6, -11, 1
1503513695095,-1, -4, 0, -2, -4, -2, 3, 14, 1
1503513695117,-2, 2, 6, 1, -4, -2, 0, 13, 1
1503513695139,8, 5, 3, -1, 0, 0, 2, 43, 1
1503513695155,6, -8, -5, 1, 2, -3, 1, 33, 1
1503513695177,7, 1, -5, -4, -1, -2, -4, -5, 1
1503513695185,-13, -14, -2, 0, -1, 1, -1, -15, 1
1503513695208,-7, 1, 1, -2, 0, -1, 8, 19, 1
1503513695230,2, 10, 11, 1, -8, -6, -6, -15, 1
1503513695245,0, -5, -7, -8, -6, -1, -4, 56, 1
1503513695267,10, -1, -5, -5, -5, -2, 4, 15, 1
1503513695290,2, -1, -2, 0, 0, 0, -5, 12, 1
1503513695307,-7, 2, 5, 1, 0, -2, -1, -27, 1
1503513695327,1, 2, 1, -2, 0, 0, 2, 17, 1
1503513695350,-4, -6, -4, -3, -1, -3, -10, -23, 1
1503513695365,-2, -9, -8, -3, 0, 1, 1, 1, 1
1503513695388,10, 5, -2, 0, 0, -1, 0, -7, 1
1503513695410,-1, 0, -2, -6, -4, 2, -2, -6, 1
1503513695425,-5, -3, 1, 1, -1, 0, 4, 10, 1
1503513695448,1, -2, 0, 3, 4, 1, 4, -9, 1
1503513695477,9, 14, 8, 5, 2, 0, 1, 45, 1
1503513695485,-3, 1, 2, 4, 0, 4, 7, 6, 1
1503513695520,-1, 3, 9, 3, 0, 1, 2, -2, 1
1503513695537,-3, 0, -4, -2, -1, -1, -1, -5, 1
1503513695559,10, 6, 2, 0, -2, 0, 2, 2, 1
1503513695575,-9, 0, 3, 3, 4, 3, 1, -10, 1
1503513695597,2, -9, -4, 0, -1, -1, 0, 12, 1
1503513695619,-9, -33, -14, -6, -4, -3, 1, -13, 1
1503513695635,-12, -11, -11, -5, -2, -3, -3, -5, 1
1503513695657,3, 11, 1, 2, -3, -4, -6, 5, 1
1503513695681,3, 7, 5, 0, 0, -2, -8, -2, 1
1503513695695,0, 4, -1, -1, 1, -2, -5, 5, 1
1503513695718,4, 0, -10, -1, -3, 1, 2, 0, 1
1503513695742,1, -1, -1, -2, 0, -1, 0, -10, 1
1503513695755,-4, 6, 5, -1, 0, -1, -4, -37, 1
1503513695778,3, 1, -9, -6, -6, 0, 2, 8, 1
1503513695799,0, -4, -2, 0, -2, -1, 1, 6, 1
1503513695822,0, -2, -2, -1, -4, 0, 2, 7, 1
1503513695844,-2, 0, 5, 3, 2, 0, -3, -7, 1
1503513695859,-5, -4, 2, 0, -1, 0, 2, -5, 1
1503513695882,4, 3, 0, -3, -1, -1, -1, 13, 1
1503513695897,-4, -1, -1, 2, 3, -1, 1, 3, 1
1503513695919,0, 3, 1, 0, -4, -1, -4, -8, 1
1503513695947,0, 1, 1, 4, 7, 2, 0, 2, 1
1503513695957,5, 0, 5, 1, 4, 3, 2, 3, 1
1503513695984,-9, -5, -3, -5, -3, -3, 0, -11, 1
1503513695988,2, -2, -1, 1, -2, 0, 1, 6, 1
1503513696013,0, 4, 3, 2, 3, -2, -2, 0, 1
1503513696032,0, 2, 3, -2, -2, -2, 0, 8, 1
1503513696049,6, 8, 8, -1, -4, -3, -1, 8, 1
1503513696070,-11, 7, 7, 1, -1, 0, -7, -30, 1
1503513696092,1, 7, -5, -2, -1, 0, -1, 7, 1
1503513696108,-3, -11, -7, -6, -3, -3, -3, -7, 1
1503513696130,0, 1, 3, 3, 2, -1, 0, 4, 1
1503513696153,-6, -7, -4, 2, 1, 3, 0, -24, 1
1503513696160,-5, -5, -11, -1, 5, 2, -2, 2, 1
1503513696182,-1, -6, -3, -4, -4, -2, -1, -2, 1
1503513696197,0, 7, 5, -2, -4, -2, -3, -7, 1
1503513696220,-2, -5, -6, -6, -6, -1, 0, -5, 1
1503513696241,-2, -12, -12, -3, -1, -1, 0, 15, 1
1503513696257,-5, -5, 0, -2, -3, -3, -10, -41, 1
1503513696280,2, 6, 5, 0, 0, 1, 1, 8, 1
1503513696302,5, 0, 2, 3, 3, 4, 3, 16, 1
1503513696317,3, -4, -7, 0, -4, -3, -1, 16, 1
1503513696340,0, -7, -2, -2, -2, -2, -4, 14, 1
1503513696362,-4, -1, -6, -2, -2, -1, 2, 3, 1
1503513696380,-2, 3, 1, 0, 2, 1, -2, 8, 1
1503513696399,-1, 7, 5, 3, 4, 1, 0, -2, 1
1503513696421,0, 0, 4, 9, 4, -1, 1, -12, 1
1503513696437,-8, -7, -4, -3, 0, 0, -3, -29, 1
1503513696460,2, -6, -7, -5, -1, -1, -1, 16, 1
1503513696482,1, 2, 2, -2, -5, -2, -1, 3, 1
1503513696497,-3, 0, 3, -5, -7, -2, -3, -21, 1
1503513696520,0, 15, 13, 1, -2, -1, -2, -24, 1
1503513696541,-9, -6, -4, -1, 6, -1, -1, 14, 1
1503513696566,3, -5, -4, -5, -3, -2, 1, 9, 1
1503513696580,2, -2, -5, 4, 1, -3, -1, 2, 1
1503513696601,2, 14, 8, 0, -3, 1, 1, -1, 1
1503513696617,-7, -11, -6, -4, 0, -1, -1, -18, 1
1503513696633,4, 5, -1, -5, -5, -1, -1, 14, 1
1503513696649,-3, -2, 1, -4, -3, -2, 2, -9, 1
1503513696669,1, -10, -2, 0, 1, -2, 0, 4, 1
1503513696677,5, -4, -1, -1, 1, -1, 1, 25, 1
1503513696700,-1, 0, -2, -1, -1, 1, 2, 0, 1
1503513696722,-3, -5, 0, 3, -3, 2, -1, 2, 1
1503513696744,-2, 3, 2, -5, -4, -1, 1, 2, 1
1503513696760,4, 22, 3, -2, -2, 0, 0, 3, 1
1503513696783,-1, -7, -1, -1, -3, -3, -6, -2, 1
1503513696804,-2, -1, 1, 5, 2, 1, 0, -7, 1
1503513696823,2, -2, 0, -3, -2, 0, 2, 6, 1
1503513696841,1, 8, 3, 1, 0, -1, 1, 0, 1
1503513696864,-4, -15, -7, -8, -7, 0, 0, -8, 1
1503513696880,0, 2, -2, -1, 1, 0, 3, -7, 1
1503513696901,0, -15, -7, 0, -1, 1, -1, 2, 1
1503513696925,-2, -13, -8, 4, 8, 0, 0, 9, 1
1503513696940,-4, -1, 1, -1, -1, -4, -11, -34, 1
1503513696961,0, 6, -1, -4, -4, -3, 0, 0, 1
1503513696984,-1, 0, -3, -6, -3, -2, 2, 16, 1
1503513697000,2, 5, 4, 2, -1, -1, -1, -5, 1
1503513697018,5, -3, -4, -2, -3, -1, -2, 9, 1
1503513697032,2, 2, 2, 1, 0, -1, -4, 3, 1
1503513697052,2, 0, 0, -2, -1, -2, -1, 11, 1
1503513697075,-9, -1, -2, -2, -1, -3, -5, -17, 1
1503513697090,-2, 3, 5, -1, -4, 0, 1, -2, 1
1503513697112,-5, 14, 9, 5, 2, 1, -4, -5, 1
1503513697121,-9, -4, -4, -3, 0, -3, -3, -17, 1
1503513697141,5, -7, -3, 1, 1, 0, -1, 18, 1
1503513697164,5, 1, 1, 0, -2, 0, 4, 6, 1
1503513697180,-6, 2, -1, -1, -3, -3, -2, -7, 1
1503513697202,-3, 0, -4, 0, 1, -2, -2, -5, 1
1503513697224,1, -6, -4, -3, 0, 1, 2, -1, 1
1503513697240,-1, -2, 1, 0, -3, -1, -3, -7, 1
1503513697261,4, 0, -1, -4, -4, -4, -7, 0, 1
1503513697289,-1, 3, 4, 4, 1, 0, -2, -6, 1
1503513697306,-1, 5, 8, 3, 3, 0, -7, -5, 1
1503513697330,-1, -6, -5, -2, -1, 0, 3, -2, 1
1503513697344,-2, 2, 2, -1, -1, -1, -3, -17, 1
1503513697357,1, -2, -5, -4, -2, -2, 7, -1, 1
1503513697375,0, -8, -4, -1, -3, -1, 2, 2, 1
1503513697392,-3, -1, 5, 2, 0, 0, -8, -5, 1
1503513697412,4, 1, -1, -3, -1, 0, 2, 10, 1
1503513697435,2, 1, 1, -2, -2, 0, 2, 22, 1
1503513697449,4, 35, 8, 5, 1, -1, -7, -4, 1
1503513697472,-1, -9, -1, -2, 0, -1, -1, -11, 1
1503513697495,2, 8, 5, 2, 1, 0, 0, -4, 1
1503513697516,2, -11, -7, 0, -1, 0, 3, 2, 1
1503513697532,0, -6, -2, 3, 5, 0, -2, -1, 1
1503513697556,-6, -5, -2, -5, -1, -3, -4, -14, 1
1503513697569,-1, 5, 3, 1, 0, 0, 2, 11, 1
1503513697592,1, -4, -4, -7, -10, -2, 0, 0, 1
1503513697615,-1, -4, -3, -5, -4, -3, -4, 5, 1
1503513697631,-9, -15, -7, -2, 1, -1, 4, -14, 1
1503513697652,1, -3, -1, 2, 0, 3, 2, 6, 1
1503513697675,1, 0, 0, 4, 5, -1, -5, -3, 1
1503513697697,-1, -6, -7, -2, -2, -1, 2, 7, 1
1503513697712,0, -4, -2, 3, 2, 0, -2, 8, 1
1503513697735,-1, -2, -4, -3, -2, -1, 0, 0, 1
1503513697757,5, 4, 3, 7, 3, 0, -2, 15, 0
1503513697772,-2, 1, 0, 2, 2, 0, -4, -7, 0
1503513697795,-1, -4, -4, -3, -3, -1, -4, 4, 0
1503513697817,-5, 5, 2, -4, -3, -3, -4, -9, 0
1503513697832,1, 1, 5, -1, -1, 0, 2, 0, 0
1503513697856,-4, 2, 7, 4, 1, -2, 0, -2, 0
1503513697877,-1, -6, -6, -2, 1, 2, -3, -6, 0
1503513697893,1, -1, -5, -2, -2, -1, 1, -5, 0
1503513697915,-1, -9, -6, -4, -4, -3, -9, 3, 0
1503513697937,-3, 0, -6, -4, -2, -1, -2, -9, 0
1503513697952,4, 8, 8, 0, 0, -1, 4, -1, 0
1503513697974,-4, 4, 0, -7, -8, -2, 0, 3, 0
1503513697997,-2, -4, -9, -4, -2, 0, 3, -3, 0
1503513698012,-1, 3, 5, 1, -1, 0, 3, 5, 0
1503513698035,-6, 8, 6, -1, 0, -1, -5, -26, 0
1503513698058,-2, -10, -11, -1, 1, 2, 0, 3, 0
1503513698072,3, -11, -5, 1, 0, -1, 1, 10, 0
1503513698095,1, 5, 3, 1, -4, 0, -1, 0, 0
1503513698117,0, 3, 2, 2, 7, 0, 2, 6, 0
1503513698133,-5, 10, 8, -6, -5, -1, 3, -4, 0
1503513698155,4, 0, 2, 6, 4, 1, -5, 0, 0
1503513698177,-3, -5, -5, -5, -1, 1, 2, -2, 0
1503513698194,-2, -8, -3, -1, -2, -1, -2, 1, 0
1503513698215,2, -1, 2, 5, -2, -2, 0, 13, 0
1503513698237,-5, -1, -1, -3, -6, 0, 1, -8, 0
1503513698252,5, 42, 20, -1, -2, -2, -4, -6, 0
1503513698275,-4, -16, -13, -3, 2, -2, -4, -22, 0
1503513698297,5, 7, -5, -2, 0, -1, 2, 14, 0
1503513698312,6, 0, 3, 1, 0, -1, 1, 28, 0
1503513698336,3, -11, -3, 2, 1, 0, 0, 8, 0
1503513698360,-1, -12, -2, 4, 5, 1, -2, -7, 0
1503513698372,-3, 20, 1, 0, 0, -2, -5, -13, 0
1503513698395,-6, -15, -17, -7, -6, -2, -2, -10, 0
1503513698417,-2, 3, 8, 0, -3, -3, -3, 4, 0
1503513698432,-1, 9, 4, 4, 0, -3, 0, -15, 0
1503513698455,-4, -10, -7, -6, -5, -3, -7, -16, 0
1503513698477,-1, -8, -1, -4, -4, 0, 2, 30, 0
1503513698496,0, -16, -5, 0, -2, 0, -1, 7, 0
1503513698515,-6, -14, -4, -2, 2, -1, -2, -14, 0
1503513698537,5, 4, 7, 4, 2, 0, 3, 10, 0
1503513698562,3, 12, 1, -1, 2, 4, 9, 26, 0
1503513698574,-1, -8, -4, -1, -2, -1, 1, -9, 0
1503513698597,-6, -4, -6, -1, 2, 0, -4, -14, 0
1503513698619,-6, -6, -3, -3, -2, -1, -3, -16, 0
1503513698630,-8, 3, -5, -5, 3, 1, -1, -26, 0
1503513698650,-2, 0, 2, -1, 1, 1, -1, 2, 0
1503513698665,2, -4, -7, 3, -2, -1, 0, 11, 0
1503513698688,-5, -1, 2, -2, -2, -3, -2, -2, 0
1503513698710,1, 0, -1, -5, -4, 0, 1, 2, 0
1503513698725,-1, -18, -5, 2, 2, -2, 3, 34, 0
1503513698748,1, 27, 13, 2, -2, -1, -2, -2, 0
1503513698771,-2, -1, -1, 1, 4, 0, 0, -10, 0
1503513698777,3, 8, 7, 3, -3, 0, -1, 11, 0
1503513698800,-1, 7, 3, -5, -5, -3, 3, 6, 0
1503513698815,2, -12, -15, -10, -8, 0, -1, -4, 0
1503513698837,3, 0, -5, -7, -3, 0, 3, 17, 0
1503513698860,-5, -12, -7, -6, -8, 0, 2, -6, 0
1503513698878,-1, 2, -8, -4, -3, -2, 1, -5, 0
1503513698898,5, 7, 10, 4, 2, 0, 2, 11, 0
1503513698920,1, 2, 4, 5, 5, 0, -1, 3, 0
1503513698935,-2, 5, -1, 0, -2, -1, 1, 0, 0
1503513698957,5, 6, 3, 2, 0, 0, 1, -5, 0
1503513698980,0, -9, -1, 0, 3, 0, 0, 18, 0
1503513698995,-6, -4, -6, -3, -3, -1, 3, 13, 0
1503513699017,3, 26, 8, 5, 5, -1, -6, -17, 0
1503513699040,-4, -9, 1, -2, -3, -1, 0, -1, 0
1503513699055,10, -1, -6, -2, -1, -3, -3, 7, 0
1503513699072,4, -9, -2, -2, -3, 1, 2, 29, 0
1503513699085,1, -7, -12, -2, -4, -2, -1, -7, 0
1503513699108,0, 15, 3, 1, -1, 0, -1, -10, 0
1503513699132,-3, 11, 15, 7, 4, -1, -1, 1, 0
1503513699145,0, 0, 2, 1, -2, 0, -10, -32, 0
1503513699168,-2, -4, -4, -4, -8, -1, 6, 28, 0
1503513699190,9, 21, 11, 9, 7, 1, 5, 10, 0
1503513699206,-11, -18, -7, -2, 0, 0, 2, 5, 0
1503513699228,-7, -7, -5, -4, 0, -1, -3, -57, 0
1503513699249,1, 5, 0, 0, 3, 2, 4, 11, 0
1503513699267,2, 7, 9, 5, 3, -2, -2, 1, 0
1503513699288,-5, -6, -6, -3, -3, -1, -2, 6, 0
1503513699310,0, -8, -4, -2, -1, 1, -4, -13, 0
1503513699325,1, -3, -3, -5, -3, -4, 1, 23, 0
1503513699348,5, -1, -4, -5, -4, 0, 1, 20, 0
1503513699371,0, 2, 3, 0, 2, -1, -4, -21, 0
1503513699385,4, 3, 4, 8, 2, -1, -3, 16, 0
1503513699409,-10, -4, -3, -3, -4, -2, 5, -8, 0
1503513699430,1, -3, 0, 3, 8, 4, 1, 7, 0
1503513699445,0, 0, 2, 1, -4, -1, 0, 0, 0
1503513699471,2, -2, -4, -5, 0, 1, -1, -2, 0
1503513699490,-4, -6, -3, -1, -1, -1, -6, -46, 0
1503513699505,0, -1, 0, 1, -2, -3, -5, 17, 0
1503513699528,1, 15, 14, 3, 1, 0, -1, 2, 0
1503513699550,-1, -2, -5, 0, -1, 0, 0, 8, 0
1503513699572,-4, 8, 0, -4, -5, -3, -3, 1, 0
1503513699588,-1, -10, -4, -1, 1, -1, 1, -5, 0
1503513699611,-4, -9, 0, 1, 1, -6, -7, -39, 0
1503513699632,-3, -11, -13, -9, -5, 0, 6, 11, 0
1503513699648,3, -5, -1, -5, -3, -2, 0, 18, 0
1503513699670,3, -2, -2, -1, -4, -2, 4, 17, 0
1503513699692,5, 36, 14, 1, 0, -2, -6, -8, 0
1503513699708,0, -3, -3, 4, 4, 2, 2, 11, 0
1503513699730,-2, 4, -5, -4, -4, -2, -4, -10, 0
1503513699752,1, -3, 1, -1, 0, 1, -1, 1, 0
1503513699770,2, -6, -3, -1, 1, 0, 2, 18, 0
1503513699790,-6, -12, -5, -2, -3, 0, 1, -14, 0
1503513699813,-2, 0, -1, 4, 5, 1, -3, 6, 0
1503513699820,4, 7, -3, -1, -2, -1, -1, -11, 0
1503513699842,-2, -5, -6, -1, -1, 0, -1, 11, 0
1503513699857,-1, -8, -3, -1, 0, 0, -4, 7, 0
1503513699880,-1, -9, -4, 0, -2, -3, -3, 4, 0
1503513699904,0, 5, 9, 6, 4, 0, -1, -8, 0
1503513699917,3, 5, 3, 2, 1, -1, 1, -2, 0
1503513699940,-7, 2, -1, -5, -1, -1, -1, -23, 0
1503513699962,1, 2, -1, -2, -3, -1, 2, 5, 0
1503513699977,3, 11, 7, 2, 1, 1, 3, -2, 0
1503513700000,2, 0, -4, 1, 2, -1, -1, 10, 0
1503513700022,-5, 18, 2, -4, -8, -3, -3, -13, 0
1503513700038,-7, -17, -6, 4, 5, 1, -4, -30, 0
1503513700060,3, -3, -2, -2, -1, -2, -1, 6, 0
1503513700082,5, -2, -3, -5, -3, 0, 0, 34, 0
1503513700106,-2, -2, -4, -5, -3, 0, -1, -5, 0
1503513700120,-2, -3, -3, 0, -3, -2, 2, 1, 0
1503513700142,-1, 0, 7, 6, 4, 3, -1, -5, 0
1503513700157,2, -2, -7, -10, -7, -4, -1, 16, 0
1503513700180,-4, -7, -4, -4, -7, -1, -1, -5, 0
1503513700202,-1, 1, 0, 3, 2, 1, -4, -5, 0
1503513700218,-2, 1, 3, -2, -5, -1, -3, -5, 0
1503513700242,-4, -3, -5, -4, -4, -3, -1, -7, 0
1503513700262,0, 3, 4, 2, 1, -1, -2, -3, 0
1503513700277,2, 5, 4, -1, 0, 0, 2, 2, 0
1503513700299,-1, -5, -5, -2, 0, 1, 4, 4, 0
1503513700322,-1, 0, -2, -5, -2, -2, -3, -23, 0
1503513700337,-2, -2, 1, 1, 1, -1, 4, -17, 0
1503513700359,-1, -7, -9, -4, -2, -3, -2, 3, 0
1503513700383,-2, -5, -6, -4, -1, 0, -1, 4, 0
1503513700397,1, 9, 8, 7, 2, -1, -3, 6, 0
1503513700420,0, -4, -2, -2, -2, 0, 0, -1, 0
1503513700443,-2, -6, -7, 0, 5, 3, -3, 6, 0
1503513700464,0, 21, 8, 4, -1, 0, 2, -2, 0
1503513700480,-1, -10, -3, 0, 1, 0, 0, 0, 0
1503513700502,-3, -4, 3, 6, 2, 0, -3, -8, 0
1503513700525,2, -6, 1, -1, -4, -4, -4, -6, 0
1503513700540,2, -1, 0, -2, -2, -2, -1, 8, 0
1503513700562,-1, -1, 0, -3, -2, 0, 0, -1, 0
1503513700584,2, 2, -1, -1, -2, 0, -2, 3, 0
1503513700599,-3, -1, 0, 2, 1, -3, -4, 5, 0
1503513700622,-4, -3, -4, -3, -1, -1, 2, -2, 0
1503513700644,-3, 6, 8, 1, -1, 2, 1, -18, 0
1503513700652,0, -6, -3, -1, 1, -3, 2, 23, 0
1503513700677,0, 6, 2, -2, -1, -1, 2, 3, 0
1503513700690,8, 4, 6, 5, 1, -1, -2, 4, 0
1503513700712,0, 2, 3, -1, -3, -3, -9, -4, 0
1503513700735,-3, 5, 0, -1, 0, 1, 2, -3, 0
1503513700745,1, 15, 2, 0, 0, 1, 4, 15, 0
1503513700764,-2, -7, -2, -2, -2, -2, 2, -4, 0
1503513700781,-1, 0, 2, -1, -1, -1, -9, -13, 0
1503513700802,-3, -7, -6, 2, -2, -3, -4, -39, 0
1503513700824,0, 1, 3, 4, 2, 3, 1, 0, 0
1503513700832,-2, -4, -5, -7, -7, -1, 1, -4, 0
1503513700855,2, 2, 3, -1, -1, -1, -1, 7, 0
1503513700870,-4, -4, -1, 1, 1, 1, -2, -8, 0
1503513700892,1, 2, 0, 1, 1, -3, -2, 4, 0
1503513700915,-8, -3, 3, -2, -1, -1, -2, -23, 0
1503513700930,1, 0, -5, -4, -1, -1, 1, 2, 0
1503513700953,1, 3, 1, 2, 0, -1, -8, -5, 0
1503513700974,4, -1, 0, 0, 0, 1, 4, 22, 0
1503513700990,-6, -3, -1, -4, -4, -2, -2, -20, 0
1503513701012,-2, -2, -4, 1, 1, -1, 2, 4, 0
1503513701035,-1, -6, -3, -4, -6, -1, 1, -2, 0
1503513701050,4, 5, 3, -1, 1, 0, 1, 12, 0
1503513701072,0, 4, 2, 0, 0, 2, 6, 18, 0
1503513701094,-3, -1, 0, -3, 0, -1, -1, -7, 0
1503513701114,-2, 6, 2, 0, 0, -2, -4, 2, 0
1503513701132,-3, -8, -8, -5, -6, -3, -1, -7, 0
1503513701155,2, -2, -3, -6, -5, -1, 0, 8, 0
1503513701170,1, 2, 1, 0, -1, -1, -4, -3, 0
1503513701192,3, 2, 4, 1, 1, 2, 3, -13, 0
1503513701215,-10, -16, -6, 0, 1, 0, 3, 5, 0
1503513701230,3, 4, 2, 4, 3, 2, -3, -1, 0
1503513701252,2, 3, 0, 0, -3, -4, -2, -3, 0
1503513701274,2, 3, 2, -1, 1, -2, 1, 4, 0
1503513701290,-3, 10, -1, -1, -3, -1, 0, -2, 0
1503513701315,2, 4, 2, 4, 2, 0, -2, -3, 0
1503513701320,-2, 0, 2, 3, 3, -3, -2, -1, 0
1503513701342,-3, 0, 2, -1, -1, 0, -1, -7, 0
1503513701364,0, -12, -7, -4, -2, -2, -4, 4, 0
1503513701386,-1, -3, 0, 2, -2, -6, -12, -17, 0
1503513701402,1, 11, 7, 1, 1, -2, -2, -3, 0
1503513701424,0, -5, -9, -3, -4, 0, 4, 4, 0
1503513701448,-1, -6, -5, -6, -3, -2, 4, 8, 0
1503513701455,-2, -8, -9, -3, -2, 0, 0, -4, 0
1503513701477,3, 14, 7, 3, 2, 0, -1, -1, 0
1503513701492,1, -4, -2, 0, -2, 1, 7, -1, 0
1503513701516,0, 2, 5, 1, 0, 1, -1, -1, 0
1503513701537,-3, -5, -4, -1, 0, -3, -6, -2, 0
1503513701552,-2, -2, -1, 0, -3, -1, 1, 0, 0
1503513701574,1, 9, 1, -1, -2, -1, 1, 2, 0
1503513701597,-2, -5, -6, -5, -4, 0, 1, 6, 0
1503513701612,-3, -6, -4, -1, -2, -1, 0, -14, 0
1503513701634,0, -1, 1, -1, -1, 0, 3, 6, 0
1503513701642,3, 14, 10, 5, 2, -2, -2, 3, 0
1503513701664,-1, 1, 0, -2, -5, -1, 2, 4, 0
1503513701686,1, -6, -5, -4, -2, -2, 0, -1, 0
1503513701702,-2, -5, -7, -4, 1, -2, 2, 6, 0
1503513701724,-2, -10, -5, -3, -4, -1, -8, -15, 0
1503513701746,5, -1, -1, -3, -1, -1, 4, 18, 0
1503513701762,-2, 2, 3, -2, -2, 0, -2, -3, 0
1503513701792,-1, -2, 3, 3, -4, -3, 0, 3, 0
1503513701806,-2, -1, -3, -3, -2, -3, -4, 21, 0
1503513701822,1, 0, -4, 0, -1, 0, 4, -19, 0
1503513701844,1, -1, 1, 3, 4, 3, 4, 2, 0
1503513701866,-4, -5, -4, -2, 2, 0, -5, -4, 0
1503513701884,-2, 1, 2, -1, 0, -2, -1, -1, 0
1503513701904,-3, -5, -7, -4, -3, -2, -1, -19, 0
1503513701927,-1, 1, 3, 2, 5, -1, -1, 4, 0
1503513701942,-2, -5, -1, 0, -2, -2, -4, 5, 0
1503513701965,3, -5, -4, -1, -2, 0, 2, 8, 0
1503513701987,0, 10, 3, -1, -4, -2, -2, -9, 0
1503513702002,-1, 2, 2, 0, 1, -2, -1, 0, 0
1503513702024,-2, 3, 1, 3, 1, 0, 1, -6, 0
1503513702046,-2, -6, -2, 1, -2, -2, -1, 3, 0
1503513702062,-2, -3, -3, -5, -6, -1, -2, -2, 0
1503513702086,-4, -2, -7, -2, -2, 0, 2, -6, 0
1503513702106,-1, -2, -2, 0, 1, 1, 3, 2, 0
1503513702122,0, 1, 1, 0, -2, 0, -3, -4, 0
1503513702144,3, 3, 2, 3, 3, -2, -2, 2, 0
1503513702166,3, 19, 10, 2, 2, -1, -2, 1, 0
1503513702182,-4, -11, -7, -5, -1, -1, -7, 2, 0
1503513702204,-1, -4, 1, 0, 0, 0, 3, 3, 0
1503513702226,2, 8, 8, 1, 0, 1, 2, 1, 0
1503513702242,0, -6, -3, 0, 0, 3, 1, -2, 0
1503513702264,-2, -4, -2, -1, 0, -1, 1, 0, 0
1503513702291,1, -2, -3, -3, -2, -2, -6, 0, 0
1503513702302,-4, -13, -12, -7, -3, -3, 4, 5, 0
1503513702327,-1, -7, -10, 0, -1, -1, -3, -7, 0
1503513702346,-1, 1, -2, -6, -7, 0, 2, 0, 0
1503513702356,0, 1, -1, -3, -1, 2, 3, 6, 0
1503513702378,2, 0, 0, 0, 0, -1, 1, 4, 0
1503513702400,1, -3, -4, -1, 1, -2, -5, 10, 0
1503513702415,5, 34, 17, 2, 0, 0, 1, 5, 0
1503513702437,-2, -8, 0, -1, 0, 0, 0, -2, 0
1503513702460,-4, -7, -4, -1, -5, -1, -3, -6, 0
1503513702474,0, -2, -3, 2, 1, -1, -1, 4, 0
1503513702498,-1, -3, -4, -1, 0, -1, 1, -11, 0
1503513702522,1, -1, 3, -4, -6, -2, 0, -6, 0
1503513702535,-1, 1, -3, -3, -3, -1, -2, 4, 0
1503513702557,1, -9, -7, -4, -2, -1, -1, 13, 0
1503513702579,-3, -4, -4, -1, 2, 2, 0, -5, 0
1503513702594,-3, -1, -2, 1, 0, -2, 3, -1, 0
1503513702618,-1, -4, 0, 0, 1, 0, -1, -4, 0
1503513702639,0, -3, -3, -2, 1, 0, -1, -3, 0
1503513702656,2, -2, -4, -2, -1, 0, 2, 9, 0
1503513702669,-8, -3, 0, 2, 1, 1, 1, -16, 0
1503513702684,2, 1, -3, -2, 0, 0, -3, 7, 0
1503513702706,-1, -1, 4, 1, 1, -2, -1, 1, 0
1503513702729,0, 0, 2, -4, -5, -2, -1, 5, 0
1503513702744,4, 0, -1, -1, 0, 1, 3, 14, 0
1503513702766,-2, -4, -7, -3, -2, -2, -3, -3, 0
1503513702792,6, -2, -3, -2, 0, 1, 1, 6, 0
1503513702804,-3, 3, 5, 3, 1, 0, 0, -1, 0
1503513702828,1, 2, 0, 2, 1, 0, 0, 3, 0
1503513702851,-5, -2, -6, -5, -6, -4, -2, -6, 0
1503513702873,4, 3, -1, 0, -1, 0, 1, 12, 0
1503513702887,4, 13, 2, -1, -4, -2, -3, -9, 0
1503513702910,-3, -8, -3, -6, -4, -4, -2, 1, 0
1503513702933,-3, -5, -5, -1, -1, 1, -2, -2, 0
1503513702948,4, -5, -2, 0, 2, 1, 3, 21, 0
1503513702955,-1, -2, -3, -6, -3, -2, -5, -2, 0
1503513702977,4, 6, 7, 0, 1, -2, -5, -3, 0
1503513702999,-4, -3, -3, -5, -3, -1, 0, 6, 0
1503513703015,0, -6, -6, 1, -1, 0, 0, 0, 0
1503513703037,1, 1, -2, -2, -3, -2, -3, 6, 0
1503513703061,-2, -1, -1, 0, -3, -1, -2, -9, 0
1503513703074,0, 0, 0, 1, 0, 0, 0, -2, 0
1503513703099,0, -6, -7, -4, -6, -5, 0, -8, 0
1503513703119,-1, 5, 3, -1, 0, -2, -4, -21, 0
1503513703136,-4, 3, 5, 2, 2, 1, 4, -12, 0
1503513703157,-3, -4, -7, -3, -1, -1, -8, 1, 0
1503513703187,-2, -8, -7, -3, -1, -2, -5, -5, 0
1503513703211,-1, 2, 1, 3, 2, 0, -1, -2, 0
1503513703233,2, -3, -4, -2, -3, -2, 2, 14, 0
1503513703248,-2, 4, 5, 1, 0, 0, 0, -1, 0
1503513703270,0, -5, -3, -4, -2, -3, -2, 0, 0
1503513703298,-3, -4, -4, 0, -1, -1, -3, -6, 0
1503513703307,1, 1, 2, 2, 0, 2, 4, 3, 0
1503513703334,-6, -4, -3, 1, 2, -3, -5, -22, 0
1503513703359,-3, -2, -4, -1, 1, 0, -3, -6, 0
1503513703375,5, 5, 0, -4, -3, -1, 3, 18, 0
1503513703390,-1, 0, 2, 0, -1, -1, -2, -9, 0
1503513703413,-1, 0, 5, 3, 0, 0, -2, -1, 0
1503513703430,0, -2, 0, 4, 4, -1, 1, 11, 0
1503513703450,-1, 0, 2, -1, 0, -1, 2, 8, 0
1503513703472,-4, -4, -3, -2, -3, -1, -4, -13, 0
1503513703487,-2, -1, 0, -1, -3, -2, -9, -4, 0
1503513703511,-2, 0, -4, -2, -2, -1, 2, -5, 0
1503513703533,4, 7, 1, 0, 2, 0, 1, -1, 0
1503513703547,0, -6, -4, -5, -5, -2, -1, -3, 0
1503513703572,-3, 0, -1, -2, 0, 0, 0, -1, 0
1503513703593,5, 2, 2, 0, 0, -2, 1, 2, 0
1503513703607,-2, 2, 3, -3, -2, 0, -2, -7, 0
1503513703631,0, -2, -1, 1, -1, -1, -2, 1, 0
1503513703652,-2, 0, 4, 1, -1, 0, -4, -8, 0
1503513703667,2, 5, 4, 1, 0, 0, -2, 5, 0
1503513703690,-2, -1, 3, 1, 1, 0, -3, -1, 0
1503513703712,-1, 4, -1, 2, 3, 0, -1, -1, 0
1503513703736,-1, -7, -7, -2, -4, 0, 4, 2, 0
1503513703743,-1, 1, 1, -3, -3, -4, -6, 4, 0
1503513703757,5, 11, 5, 1, -1, -1, 0, 12, 0
1503513703779,-8, 2, 1, 0, 1, 1, 2, 1, 0
1503513703802,-1, -1, -6, -5, -4, -3, -4, -12, 0
1503513703817,0, -8, -3, -1, 4, 1, 2, -4, 0
1503513703840,-3, -7, -3, -3, -4, -2, -3, -3, 0
1503513703862,8, 3, 1, 3, 0, -1, 0, 11, 0
1503513703877,-4, 1, 1, 3, 2, 0, -3, -11, 0
1503513703900,-1, 1, -4, -1, -3, 0, 2, 7, 0
1503513703922,0, -10, -5, 2, 1, -1, -2, -7, 0
1503513703937,0, -1, 2, -1, 1, 1, -1, -5, 0
1503513703959,-2, 4, 2, -1, 1, 3, 0, -2, 0
1503513703982,-3, 0, -2, -3, -5, 0, 3, 8, 0
1503513703997,2, 1, 3, 1, 0, -3, -3, 13, 0
1503513704013,0, -1, -2, 6, 3, 2, 2, 7, 0
1503513704027,-2, -4, -2, 2, 0, 0, -1, 10, 0
1503513704050,-8, -5, 1, -2, 0, -1, -1, -7, 0
1503513704072,1, -1, 0, -6, -4, -1, 1, 5, 0
1503513704087,0, 2, 2, 0, 1, -1, -3, -8, 0
1503513704110,4, 2, 1, -2, -3, -2, 0, 13, 0
1503513704133,-7, 5, 8, 4, 1, -4, -9, -32, 0
1503513704147,0, -1, -3, -5, 0, 0, 5, 18, 0
1503513704170,-3, -3, -6, -1, -1, 0, -5, 1, 0
1503513704192,1, 0, -5, -3, -3, -1, 1, 1, 0
1503513704214,-1, 0, 0, 0, -1, 0, 5, 9, 0
1503513704230,2, -1, -1, -2, -4, -3, -2, 17, 0
1503513704252,0, -2, 3, 11, 7, 3, 3, -4, 0
1503513704274,-1, -1, 0, 2, 1, 0, 2, -7, 0
1503513704290,4, -3, -3, -7, -5, -1, 3, 26, 0
1503513704312,1, 7, 1, -4, -6, -3, -2, 4, 0
1503513704335,1, -2, -1, 2, 2, 0, -3, -2, 0
1503513704350,-7, -3, 0, 0, -3, -1, -11, -19, 0
1503513704372,0, -2, -1, -5, -3, -2, -2, -17, 0
1503513704394,-2, -7, -4, -2, 4, 0, 0, 5, 0
1503513704411,-7, -4, -1, -2, -2, -1, -3, -10, 0
1503513704432,-4, -5, -5, -2, -1, 1, 4, -1, 0
1503513704454,-2, 4, 1, 5, 4, 2, 4, -3, 0
1503513704472,2, 4, 6, -1, -4, -1, 0, -3, 0
1503513704493,-2, 4, 1, -3, -6, -4, -4, -10, 0
1503513704515,5, -1, -4, -3, 0, -2, -3, 7, 0
1503513704530,-3, -4, -3, -2, 0, -1, -3, -24, 0
1503513704552,1, -1, -1, -1, -2, 2, 4, 26, 0
1503513704579,3, 3, 5, -6, -4, -1, -3, 1, 0
1503513704583,-2, 0, -1, -1, 3, -1, -1, 1, 0
1503513704604,1, -8, -9, -6, -3, -4, 0, -3, 0
1503513704614,-5, -8, -5, 2, 1, 1, 5, 12, 0
1503513704642,-2, -2, -2, -10, -8, -1, -1, -9, 0
1503513704664,-4, 0, 5, -1, 1, 1, -5, -10, 0
1503513704680,-16, -13, -11, 1, 2, 2, 6, 8, 0
1503513704710,-1, 2, 2, -2, -1, -4, -7, -8, 0
1503513704724,13, 8, 1, -7, -6, 0, 4, 11, 0
1503513704740,-3, -5, 3, 11, 7, 0, -3, 2, 0
1503513704762,2, -1, -3, -2, -3, -2, 0, 4, 0
1503513704784,-11, -5, -2, 2, 4, -4, -6, -34, 0
1503513704799,-8, -3, -4, -6, -12, -1, -8, -9, 0
1503513704822,14, 7, 5, 9, 3, -1, 2, 5, 0
1503513704845,-3, 2, 6, 0, -1, -7, 0, 20, 0
1503513704860,11, 4, -3, -3, 2, 2, 1, 5, 0
1503513704882,-5, 5, 5, -1, -5, 0, -4, -9, 0
1503513704905,3, -9, -7, -8, -10, -3, 2, 15, 0
1503513704919,-4, -12, -12, -7, -4, -2, -3, 10, 0
1503513704942,0, 5, 10, 3, 5, 3, 1, -9, 0
1503513704964,1, 0, -1, 2, -2, 1, -1, -3, 0
1503513704980,-3, 2, -2, 4, 10, 3, 2, -3, 0
1503513705002,-19, -15, -12, -6, -7, -3, -1, -16, 0
1503513705024,-1, -3, -2, -1, 3, 1, 3, 0, 0
1503513705040,1, -1, 2, 3, 4, -1, -7, -11, 0
1503513705062,-1, -9, -5, -1, 1, 3, 1, 4, 0
1503513705084,8, 9, 7, -4, -8, -3, 2, 4, 0
1503513705099,7, -1, 2, 11, 11, 1, -5, 4, 0
1503513705122,10, 4, -1, -8, -9, -5, -8, -17, 0
1503513705144,13, 4, -2, -4, -1, 1, 4, 2, 0
1503513705167,-13, -7, -3, -1, -4, -1, -4, -9, 0
1503513705183,-10, -3, 0, -6, -6, -1, 2, 14, 0
1503513705204,-4, -1, 5, 3, 2, 1, 6, 13, 0
1503513705227,2, -5, -9, -1, 1, 0, 4, 12, 0
1503513705242,-2, -3, 1, 0, -2, 0, 0, -7, 0
1503513705264,-1, -2, -3, -6, -4, 0, -1, -7, 0
1503513705287,-15, -4, 1, 3, 1, 2, -1, -2, 0
1503513705302,-2, 2, 10, 5, 4, -1, 4, -5, 0
1503513705324,9, 5, -6, -6, -4, -1, -4, 0, 0
1503513705347,-10, 0, -1, 0, 0, 1, 1, -5, 0
1503513705362,-5, 5, 7, -2, -4, -2, -5, -16, 0
1503513705384,11, 4, -2, 0, 3, -1, 1, 21, 0
1503513705406,-2, 2, -7, 1, 0, -5, -9, -6, 0
1503513705422,-1, -1, 1, 0, -7, 0, 0, -1, 0
1503513705444,7, 7, 1, -1, -1, -2, 0, -10, 0
1503513705466,-8, -10, -6, -4, -3, -2, -1, -11, 0
1503513705482,-1, -1, 0, 0, 0, 1, 0, 16, 0
1503513705504,-1, 6, 2, -2, 2, -2, -5, -8, 0
1503513705526,-14, -6, 0, -8, -10, -2, 0, -5, 0
1503513705545,2, 6, 0, 3, 5, 0, 0, 1, 0
1503513705564,2, -12, -9, 4, 8, 1, -3, -10, 0
1503513705586,0, 4, -5, -5, 11, 3, 1, -5, 0
1503513705602,0, -2, 1, 0, -3, -2, -2, 6, 0
1503513705624,-7, -5, 4, 3, -2, -1, -6, -9, 0
1503513705646,4, 2, 3, 2, 2, -2, -7, 2, 0
1503513705662,6, 3, -1, 2, -5, -2, 5, 9, 0
1503513705686,4, -5, -2, -7, -8, -3, 0, 12, 0
1503513705706,2, -3, -3, 4, -1, 0, -5, -6, 0
1503513705722,9, 7, 2, 4, 5, 3, 8, 26, 0
1503513705745,-4, -6, -10, -8, -4, -2, -2, -5, 0
1503513705766,-11, -3, 1, -13, -9, 3, 2, -5, 0
1503513705782,-6, -5, -3, -1, 3, -2, -6, -20, 0
1503513705805,0, 18, 14, 3, 2, -1, -4, -26, 0
1503513705826,14, -3, -6, -2, 4, -1, 6, 12, 0
1503513705842,-5, -4, -6, -4, -8, 3, 4, 6, 0
1503513705864,4, -9, -5, 9, 5, -2, 2, 8, 0
1503513705886,-4, -7, -5, -6, -1, -4, -1, -4, 1
1503513705902,12, 1, 4, 2, 0, 3, 7, 29, 1
1503513705924,-10, 3, 5, 3, 8, 6, 1, 1, 1
1503513705947,2, -1, -1, 12, 13, 7, -1, 1, 1
1503513705962,-15, -8, -6, -1, -3, -12, -11, -22, 1
1503513705984,-3, 5, -3, 3, 0, -1, -5, -6, 1
1503513706006,-2, -7, -1, -3, -4, -3, -3, -34, 1
1503513706022,-3, -3, 0, -5, -10, 4, 1, 22, 1
1503513706044,10, 1, -3, -7, -7, 0, -3, 10, 1
1503513706074,-1, 8, 5, -2, -3, -4, -1, 2, 1
1503513706089,-1, 2, -2, -3, -3, -3, 2, 12, 1
1503513706104,3, -4, 4, 5, 7, -6, 0, 9, 1
1503513706127,-3, -2, -2, -8, -6, 17, 4, -15, 1
1503513706150,-20, 2, 3, 2, -1, -4, 6, -16, 1
1503513706164,1, -2, 2, 4, 1, -1, 3, 1, 1
1503513706187,8, 5, -1, -18, -16, -11, -9, -6, 1
1503513706209,2, -7, -8, -6, -11, -3, 0, 2, 1
1503513706225,14, 29, 12, 2, 3, 0, 0, 39, 1
1503513706249,7, -10, -3, 4, 8, 5, -6, -26, 1
1503513706269,6, -8, -8, -4, -4, -1, 2, 2, 1
1503513706284,-4, -15, -8, 4, 6, -1, -3, 21, 1
1503513706307,14, 12, 5, 1, 0, -2, 4, 16, 1
1503513706329,-14, -6, -3, 4, 1, 0, 1, -35, 1
1503513706344,-3, -2, -6, 2, 1, -2, 4, 15, 1
1503513706367,0, -4, 1, -3, -2, -6, 4, 54, 1
1503513706390,-13, -5, -7, -1, -2, 0, -7, -48, 1
1503513706404,0, -5, 3, -1, -6, -13, -5, 19, 1
1503513706427,-13, -6, -3, -3, -1, 2, 1, -9, 1
1503513706450,5, 10, 0, 2, 4, 3, 2, -5, 1
1503513706464,-13, -5, -1, 3, 3, 1, -5, -26, 1
1503513706487,5, 4, 7, -3, -6, -4, 1, 23, 1
1503513706508,-9, -10, -7, -10, 2, 7, -7, -34, 1
1503513706525,-1, 6, 7, 0, -10, -12, -7, -1, 1
1503513706547,3, 8, 12, 0, -2, -2, -2, -26, 1
1503513706569,2, -2, -10, -3, -9, -4, -7, 35, 1
1503513706584,3, -9, 4, -6, -10, 0, 9, -2, 1
1503513706607,-6, -17, -16, -8, -2, -2, -2, -10, 1
1503513706629,-8, 2, 0, 10, 9, 4, 3, -11, 1
1503513706644,-3, -2, -2, -2, 5, -2, 1, 0, 1
1503513706667,-3, 3, 1, 2, 2, 1, 0, -4, 1
1503513706694,24, 4, -2, -2, 2, 0, 4, 63, 0
1503513706704,5, 2, -1, -3, -1, 1, -1, -7, 0
1503513706727,-1, 3, 3, 4, 6, 5, 3, -17, 0
1503513706748,1, 3, -1, -7, -7, -5, -5, 1, 0
1503513706764,-7, -3, 2, 11, -3, -1, -2, -6, 0
1503513706787,-7, -4, -1, 3, 2, -2, -2, -23, 0
1503513706808,2, 3, -2, 2, 6, 4, 2, -17, 0
1503513706824,0, 3, 7, 25, 26, 9, 0, 8, 0
1503513706847,-3, -9, -3, -8, -6, -2, -5, -16, 0
1503513706868,24, 15, 14, 14, 4, 4, 7, 38, 0
1503513706877,3, -15, -9, -4, 5, 4, 3, 8, 0
1503513706899,5, 12, 2, 1, 10, 0, 2, 3, 0
1503513706915,-4, -9, -3, 3, -3, 0, -6, -5, 0
1503513706937,0, 3, 0, -13, -15, -5, -1, 26, 0
1503513706959,16, -7, -8, -4, -4, 0, 0, -29, 0
1503513706982,2, 4, 2, 2, 0, 1, 2, 21, 0
1503513706997,3, -5, -1, -13, -12, -9, -1, -3, 0
1503513707020,-18, -6, 0, -1, -9, -4, -8, -24, 0
1503513707042,-1, 43, 10, -2, 0, 2, -3, -20, 0
1503513707057,19, -11, -16, 1, 3, 5, 5, 11, 0
1503513707079,1, -14, -5, 0, 3, 1, -6, 15, 0
1503513707102,-4, -6, 3, 4, 1, -1, 10, 7, 0
1503513707117,-2, -9, 5, 3, 1, 2, -2, 67, 0
1503513707139,-5, -3, -2, 0, -1, -1, 6, 15, 0
1503513707163,-15, -26, -23, -11, -8, -6, -6, -43, 0
1503513707177,14, -20, -9, -7, -7, 1, -1, 17, 0
1503513707199,-7, 0, 3, 1, 1, 2, -1, -32, 0
1503513707225,-12, 17, 16, 6, 5, 1, -5, -38, 0
1503513707237,-11, -13, -6, -13, -15, -5, -3, -27, 0
1503513707259,-2, 17, 17, 0, -5, 1, 5, -26, 0
1503513707282,-27, 14, 1, 10, 12, 1, -9, -86, 0
1503513707297,7, -3, -7, 4, 2, -1, 5, 82, 0
1503513707319,10, -2, 1, 0, -2, -3, 2, 25, 0
1503513707334,13, 5, 6, 4, 7, 3, 1, -14, 0
1503513707348,-27, -14, -5, -4, -5, -5, -6, -45, 0
1503513707371,6, 27, 17, 2, -4, -2, 2, 10, 0
1503513707387,6, 26, 22, 8, 5, 3, 2, 64, 0
1503513707408,0, -20, -14, 0, 0, 0, 2, -3, 0
1503513707434,-1, 0, 1, 5, 2, -2, 0, -23, 0
1503513707447,10, -3, -1, 27, 33, 4, -4, -31, 0
1503513707469,-3, 1, -3, -11, -10, 1, -1, -8, 0
1503513707492,12, -9, -9, -6, -7, -2, -3, -11, 0
1503513707507,-5, -7, -1, -3, 0, -1, -4, 10, 0
1503513707537,6, 3, -1, -13, -13, -5, -1, 28, 0
1503513707561,-2, 14, 7, -2, -2, -1, -2, -3, 0
1503513707582,1, 4, 4, -1, -5, -3, -3, -32, 0
1503513707611,-12, -11, -10, -8, -3, -1, -5, -14, 0
1503513707628,-3, 5, 7, 4, 1, 1, 3, -1, 0
1503513707648,1, 4, 9, 1, -2, -6, -13, -21, 0
1503513707671,-1, -5, 5, 2, -4, -1, -4, -14, 0
1503513707687,3, 1, 0, -6, -5, 0, 4, 42, 0
1503513707708,-2, 2, 0, 2, 2, 2, 2, -7, 0
1503513707731,-2, 7, 3, 9, 9, 1, 1, -10, 0
1503513707746,2, -3, -7, -8, -5, -4, -7, -12, 0
1503513707768,5, 23, 8, 7, 1, 2, 5, -2, 0
1503513707796,-8, -9, 1, 1, -5, -4, 1, -4, 0
1503513707806,-5, -4, 10, 4, -7, -3, 0, 7, 0
1503513707822,-2, 14, 5, -4, -6, 1, 0, -2, 0
1503513707837,-6, -20, -6, -7, -11, -2, 2, -22, 0
1503513707861,-2, -21, -5, 4, 2, -2, -4, -23, 0
1503513707882,0, -5, 2, 4, 3, -2, -5, 3, 0
1503513707897,2, 16, 2, -1, -2, -3, -5, 13, 0
1503513707919,-5, -6, -2, -2, -3, -3, -1, -1, 0
1503513707942,3, 12, 4, 0, 3, 1, 0, 26, 0
1503513707964,5, 9, 0, 2, 10, 4, 4, 5, 0
1503513707979,-3, -3, 7, 2, -2, 1, 5, 5, 0
1503513708003,-7, -14, -12, -7, -4, -7, -8, -35, 0
1503513708024,6, 1, -4, 1, 5, 0, -4, -20, 0
1503513708039,-1, -13, -10, -8, -8, -1, -2, -11, 0
1503513708062,-1, -6, -1, 9, 4, 0, -6, 8, 0
1503513708084,5, 33, 15, 8, 2, 4, 2, 7, 0
1503513708099,-5, 1, 9, 13, 14, 3, 4, 23, 0
1503513708122,3, 13, 2, -4, -6, -1, 3, -10, 0
1503513708144,-2, -32, -26, -7, -5, -1, 1, -2, 0
1503513708159,-2, -6, 5, 17, 11, 3, 0, 2, 0
1503513708181,-1, -6, -2, -4, 7, 4, 2, 3, 0
1503513708204,-5, 0, 3, 1, -6, -2, 5, 40, 0
1503513708219,-6, 4, 3, -2, -5, 1, 1, -31, 0
1503513708242,6, 9, 5, 2, 1, 1, 9, 36, 0
1503513708265,7, 9, -1, -10, -8, -1, -2, 9, 0
1503513708279,0, -20, -16, -7, -7, -4, -1, -7, 0
1503513708302,-13, 9, 8, -2, -3, -5, -10, -27, 0
1503513708324,2, 14, 7, -7, -14, -8, -7, -9, 0
1503513708339,6, -10, 0, -1, -1, 0, 5, 31, 0
1503513708364,3, 7, -2, -1, 0, -1, -8, -28, 0
1503513708384,-6, -15, 2, 5, 2, -1, 0, -16, 0
1503513708400,2, 75, 32, 3, -1, 1, -4, -18, 0
1503513708422,1, -25, -17, -9, -5, -1, -8, 12, 0
1503513708444,-12, -39, -15, 1, 1, -2, -6, -15, 0
1503513708460,-5, -13, -4, 0, 3, 0, 1, 22, 0
1503513708482,7, 8, -3, -6, -3, 1, 7, 38, 0
1503513708504,-9, -16, -19, -7, -2, -1, 3, -9, 0
1503513708519,8, 9, 10, 3, 3, -1, 1, 2, 0
1503513708542,9, -6, 0, 0, -2, 1, 1, 35, 0
1503513708567,-4, 2, 0, 4, 6, 4, 3, -24, 0
1503513708587,-7, -10, -5, -7, -10, 0, -8, -29, 0
1503513708603,0, -5, -6, -1, 6, 2, -3, -5, 0
1503513708624,-5, -6, -6, -3, -5, -7, -12, -40, 0
1503513708640,-6, 2, 6, 2, 0, -3, -2, -1, 0
1503513708662,-3, -28, -9, -4, -5, 1, 8, 4, 0
1503513708684,-2, -16, -13, -8, -4, -3, -6, -9, 0
1503513708700,-7, -6, -6, -6, -4, -3, 2, -8, 0
1503513708722,7, 18, 6, 14, 10, 1, 5, -5, 0
1503513708744,3, 22, 11, 11, 7, 0, -2, 11, 0
1503513708761,2, 2, 5, 4, 0, -1, 2, 13, 0
1503513708782,-2, 7, 5, 0, -1, 0, -1, 1, 0
1503513708804,0, 0, -1, -2, -3, 1, 2, 4, 0
1503513708819,-4, -10, -2, -1, 1, -2, -10, 16, 0
1503513708842,3, 16, 12, 7, 3, 0, 0, -1, 0
1503513708873,0, 18, 0, -5, -5, -2, -2, -28, 0
1503513708887,1, -1, -2, -5, -2, 0, 7, 39, 0
1503513708902,0, -7, -3, -6, -8, -3, 2, -17, 0
1503513708924,4, -4, -6, -6, -3, -4, -3, 10, 0
1503513708947,0, 5, -3, 6, 1, 2, 5, -3, 0
1503513708962,5, -5, -2, -3, -6, -3, -4, 25, 0
1503513708984,-8, -5, -1, -4, -5, 0, -1, -51, 0
1503513709007,-2, 2, -4, -7, -4, -3, -1, 7, 0
1503513709021,-1, -4, -1, 0, 3, 0, 2, 18, 0
1503513709038,0, 0, -2, 2, 1, 0, -3, -5, 0
1503513709052,4, 1, 0, 3, 3, -1, 0, 22, 0
1503513709075,-8, 2, 4, 3, 3, -2, -12, -52, 0
1503513709097,4, 6, 7, 3, 0, 0, 2, 7, 0
1503513709112,-5, -8, -6, -4, -3, -2, -6, -15, 0
1503513709141,0, 0, 3, 0, 0, 1, 4, 23, 0
1503513709157,6, 21, 9, -1, -1, -2, -8, -17, 0
1503513709173,0, -13, -11, -4, -3, -2, -1, 7, 0
1503513709195,0, 8, 8, 4, 3, 1, 2, -5, 0
1503513709217,-1, -7, -4, 4, 5, 3, 6, 7, 0
1503513709232,10, 26, 12, 2, -4, -1, 3, 32, 0
1503513709255,-6, -14, -14, -6, -3, -4, -3, -3, 0
1503513709278,-6, -24, -11, 1, 1, 0, 1, -6, 0
1503513709293,-3, -2, -1, -2, -1, 2, 0, -19, 0
1503513709315,-4, 3, 1, -6, -9, -4, -5, -18, 0
1503513709341,1, -3, -3, 9, 14, 4, -1, 20, 0
1503513709352,0, 15, 6, -4, -5, -1, -8, -16, 0
1503513709375,-5, -6, 1, -1, -1, -2, 0, -9, 0
1503513709382,2, -6, -5, -1, -1, 0, -1, 3, 0
1503513709405,2, 2, 0, -1, -1, 1, 1, 13, 0
1503513709427,0, -3, -1, 5, 5, -1, 2, 34, 0
1503513709442,0, -17, -10, -6, -4, 1, 1, 13, 0
1503513709464,-2, -6, -2, 0, 1, 0, 0, -5, 0
1503513709487,-1, 2, 6, 5, 0, -3, -1, -8, 0
1503513709504,6, 8, 1, -1, -1, -3, 0, 5, 0
1503513709524,5, 3, 1, -1, 0, 1, -2, 4, 0
1503513709547,-3, -2, 0, 3, 1, -1, 0, -3, 0
1503513709562,-2, -5, -3, -3, -2, -1, 1, -8, 0
1503513709584,-1, -5, -8, -8, -5, -1, 1, -8, 0
1503513709611,-3, 2, -3, -4, -3, -1, 1, -2, 0
1503513709622,-4, -3, -3, -3, -3, -3, -4, -4, 0
1503513709644,-3, 1, 2, -1, -1, -2, -1, 3, 0
1503513709667,-3, -1, 3, 6, 3, 1, 1, -1, 0
1503513709682,1, 0, -1, -3, -2, -1, -1, 2, 0
1503513709706,-5, -5, -4, -2, 1, -3, -3, -7, 0
1503513709713,-3, 0, 1, -1, -1, 0, -2, -5, 0
1503513709735,-1, 2, 0, 4, 2, 1, 0, 3, 0
1503513709757,-3, -1, 0, 1, 0, -2, -3, -11, 0
1503513709780,0, -3, 1, 0, -1, -1, -1, -9, 0
1503513709795,0, -6, -1, -3, -5, -1, -2, 19, 0
1503513709819,-7, -3, -3, -5, -5, -3, -2, -2, 0
1503513709840,4, 3, 1, 3, 2, -1, 0, 6, 0
1503513709848,-8, -3, 3, 3, 3, 0, -2, 0, 0
1503513709869,-1, -1, -6, -7, -4, -1, 1, -1, 0
1503513709884,1, -4, -5, 1, -1, 0, 4, 1, 0
1503513709908,-1, 3, -1, -4, 0, 1, 1, 0, 0
1503513709929,-5, -20, -10, -2, 0, 1, 1, -1, 0
1503513709945,0, 6, 5, 1, -2, -3, -4, -5, 0
1503513709966,2, 6, 1, -1, -2, 0, 2, 12, 0
1503513709989,-9, -8, -5, -4, -2, -4, -4, -8, 0
1503513710004,-2, -2, -4, 0, -3, -1, -1, -2, 0
1503513710026,-2, -6, -5, -2, -3, -2, 0, 0, 0
1503513710050,-4, -5, -5, -1, 0, -1, -3, -7, 0
1503513710064,0, 2, -1, -1, -2, -2, -4, 1, 0
1503513710087,4, 4, 2, -3, -2, 1, 0, 0, 0
1503513710109,1, 7, 2, 0, 0, -1, -1, -3, 0
1503513710124,-2, -1, -1, -2, 1, 0, -2, 1, 0
1503513710147,-1, 3, 3, -2, -1, 0, 0, -4, 0
1503513710169,1, 8, 7, 0, -1, 0, 2, 0, 0
1503513710184,-3, -6, -5, -3, -1, 1, -1, -7, 0
1503513710209,-4, -16, -6, -3, -4, -3, -1, -7, 0
1503513710229,-2, -16, -6, -1, -2, -1, -5, -7, 0
1503513710245,0, 3, 1, 0, -1, -1, 0, 3, 0
1503513710267,-1, -2, 0, 3, 0, -1, -1, -6, 0
1503513710289,0, 6, 7, 3, 2, -1, 0, 4, 0
1503513710304,-6, -5, -4, -3, 0, -1, -2, -9, 0
1503513710326,-1, -4, -2, 1, 0, -1, -3, -7, 0
1503513710335,-1, -5, -8, -4, -3, -2, 0, -3, 0
1503513710358,-7, -1, -1, 0, 1, 3, 3, -22, 0
1503513710380,5, 9, 6, 2, 0, -4, 0, 14, 0
1503513710395,-3, -16, -7, -2, 0, -3, -2, -1, 0
1503513710417,0, -9, -1, 0, -1, -1, 1, 8, 0
1503513710439,1, -3, -5, -3, -2, -2, -1, -5, 0
1503513710462,-4, 8, -10, -5, -1, -1, -2, -24, 0
1503513710479,-7, -21, -10, -8, -4, -1, 0, 6, 0
1503513710499,1, -11, -10, 1, -1, 0, 0, -8, 0
1503513710518,0, 3, 4, 1, 0, 1, 0, 1, 0
1503513710537,1, 1, -2, 0, -3, 0, 1, 5, 0
1503513710559,9, 12, 2, 2, 3, 2, 4, 37, 0
1503513710567,-1, 16, 5, 0, 1, 0, -2, 5, 0
1503513710589,-2, -15, -8, -1, -3, -2, -2, 7, 0
1503513710604,-2, -14, -7, 1, 0, 0, 1, -4, 0
1503513710626,2, 5, 0, -8, -4, -1, 0, 0, 0
1503513710649,5, 2, 6, 2, -1, -2, -2, 10, 0
1503513710671,-3, -4, 0, 3, 3, 1, 1, -1, 0
1503513710687,-5, -9, -5, -2, 0, -1, -3, -5, 0
1503513710709,3, -5, -4, -3, -1, 0, 6, 36, 0
1503513710731,6, 7, -2, 3, 2, 1, 3, 4, 0
1503513710747,2, 7, 4, 0, 1, -1, -2, 14, 0
1503513710769,-5, -9, -8, -4, -1, -2, -4, -14, 0
1503513710791,-4, -6, -2, -2, -2, -1, -2, -16, 0
1503513710807,0, 7, 5, -2, -4, -3, -3, -10, 0
1503513710830,-3, 6, -2, -4, -3, -1, 0, -3, 0
1503513710851,-2, -3, 1, 2, -1, 1, -1, -6, 0
1503513710866,3, 3, 4, 9, 10, 1, 0, 6, 0
1503513710889,-6, -19, -10, -5, -4, -1, 0, -5, 0
1503513710911,-2, -13, -11, -2, -4, 0, -5, -32, 0
1503513710927,3, -2, -3, -5, -5, 0, -1, 19, 0
1503513710949,-11, -9, -2, 2, 1, 1, 0, -1, 0
1503513710957,2, -6, -5, 2, 1, 1, 3, 12, 0
1503513710981,0, 1, 6, 1, -3, 0, 1, 0, 0
1503513711001,0, 1, 5, 6, 4, 2, 1, 11, 0
1503513711010,-7, -7, -1, 2, 1, 2, 2, 4, 0
1503513711031,6, 10, 6, -9, -14, -5, -1, -4, 0
1503513711048,-1, 2, 3, 8, 9, 2, 2, -14, 0
1503513711069,-11, 3, 7, 2, -2, 1, 2, 23, 0
1503513711091,-20, -8, -7, -6, -4, -1, -2, -22, 0
1503513711116,-4, 0, 3, 8, 19, 5, 2, -4, 0
1503513711130,1, -2, -1, -1, -6, -4, 0, 13, 0
1503513711151,-15, 1, 9, 1, 0, 1, -1, -3, 0
1503513711159,7, -2, -8, -4, -3, -1, -1, -9, 0
1503513711183,0, 5, 0, -2, -1, -1, -3, -5, 0
1503513711197,5, 5, 8, 24, 36, 16, 7, 5, 0
1503513711219,-3, -7, -5, -14, -22, -9, -5, 8, 0
1503513711241,-10, 5, 2, -5, -6, -1, 1, -10, 0
1503513711257,-8, -2, -2, 6, 11, 3, -6, -22, 0
1503513711271,9, 4, -2, -8, -12, -4, 0, 2, 0
1503513711288,-11, 3, 2, 2, 1, -3, -3, -3, 0
1503513711309,7, 11, 8, 0, 3, 0, -3, -22, 0
1503513711319,-9, -5, 4, 9, 5, 4, 0, -11, 0
1503513711346,-10, -7, -6, 0, 0, 4, 1, -11, 0
1503513711362,-3, -4, -4, 8, 3, 2, -2, -3, 0
1503513711385,1, -2, 2, -1, -6, 2, 6, 14, 0
1503513711406,-5, -9, -4, -5, -3, -2, 1, 10, 0
1503513711422,1, -3, -3, 0, 2, 1, -1, -5, 0
1503513711437,20, 7, 0, 8, 12, 6, -2, -1, 0
1503513711460,-10, -15, -8, -2, -1, -3, -3, 14, 0
1503513711482,1, 12, 11, 3, -2, -4, -9, -5, 0
1503513711497,5, 1, -2, 0, -5, -5, -3, 10, 0
1503513711520,1, 0, -10, -17, -30, -2, 5, -4, 0
1503513711541,-3, -15, -11, -10, 4, 2, 0, -22, 0
1503513711558,7, 10, 5, 3, 2, -2, 2, 2, 0
1503513711580,-7, -3, 0, 1, 3, 2, 0, 0, 0
1503513711602,-2, 1, 7, 6, 6, -1, -4, -9, 0
1503513711620,0, 3, -5, -13, -7, -2, -2, -6, 0
1503513711639,0, 15, 9, 3, -2, -3, 2, -7, 0
1503513711661,11, -7, -9, 3, 10, 2, -1, 17, 0
1503513711687,6, -10, 0, -1, -6, -3, -3, 14, 0
1503513711692,2, -4, -5, -16, -19, -8, -4, 6, 0
1503513711713,-3, 0, -2, -7, -4, 3, 2, 7, 0
1503513711729,-6, -3, 2, 3, 3, 2, 3, 9, 0
1503513711757,-13, -5, -6, 4, 8, 3, -1, -27, 0
1503513711773,-4, -4, 1, 3, 2, 1, 0, 8, 0
1503513711790,8, 4, 4, -10, -8, -6, -5, 9, 0
1503513711821,-18, -9, -7, -6, -4, -4, -3, 7, 0
1503513711841,-3, -1, -1, -4, -6, -10, -3, -10, 0
1503513711864,6, -4, -2, 9, 13, 7, 1, 5, 0
1503513711879,-11, 6, 5, -5, -10, 4, 4, -31, 0
1503513711902,-5, -5, -4, 0, -3, -7, -8, -13, 0
1503513711925,-6, -1, 4, -1, -2, -7, -9, -20, 0
1503513711940,-9, -6, -5, -2, -2, 0, 3, 19, 0
1503513711962,-18, -2, -5, -13, -4, -1, -2, -4, 0
1503513711984,25, 2, 2, -6, -7, 1, 9, 32, 0
1503513712000,-5, -4, -13, 0, 2, 4, 9, -7, 0
1503513712025,13, 4, 10, 8, 6, 8, -8, -23, 0
1503513712044,4, -2, 2, 3, -2, -19, 6, 65, 0
1503513712060,1, 9, 10, 11, 14, 11, -1, -9, 0
1503513712081,-2, 7, 3, -1, -4, 0, -3, 0, 0
1503513712104,18, 2, -7, -1, 2, 5, 8, 33, 0
1503513712119,25, -1, 6, 0, -3, -3, 1, 39, 0
1503513712133,2, 6, 2, 1, -1, -7, -3, -6, 0
1503513712151,3, -9, -5, -3, -4, -2, 0, 2, 0
1503513712171,6, -3, -7, -4, -5, -2, -2, -45, 0
1503513712193,9, 10, 7, 1, -2, 1, -5, -27, 0
1503513712209,9, -4, -18, -3, 4, 6, -6, -56, 0
1503513712232,5, -4, -5, -3, 0, -2, 1, 32, 0
1503513712253,6, -5, 2, 3, -1, -7, 1, 29, 0
1503513712269,7, 3, 2, -4, -3, -7, -4, 22, 0
1503513712291,-13, -14, 1, 1, 0, 3, 7, 2, 0
1503513712313,-9, -16, -9, -2, 1, 0, 2, 14, 0
1503513712329,-2, 4, 6, 2, 1, -5, -8, -33, 0
1503513712351,3, 15, 4, -15, -15, 2, 0, -23, 0
1503513712359,1, -8, -6, -7, -3, 0, 4, 13, 0
1503513712381,-10, -10, -5, -6, -8, -2, -3, -23, 0
1503513712404,6, 4, -5, -3, -7, -3, -5, -11, 0
1503513712412,-3, -8, -7, -4, -5, -3, -7, -35, 0
1503513712433,-5, 2, 4, -2, -9, -10, 2, 5, 0
1503513712449,-4, 1, 4, -2, -2, -5, -4, 0, 0
1503513712471,-12, 9, 3, 0, 3, 3, 2, -24, 0
1503513712494,5, 3, -2, 0, 0, 1, -9, -11, 0
1503513712509,0, -3, -3, -4, -4, 0, 2, 29, 0
1503513712532,-8, -2, -2, -7, -8, -9, -7, -31, 0
1503513712553,5, 1, -1, -1, -5, -2, -1, 46, 0
1503513712562,5, 5, -2, 0, 3, 0, 6, 26, 0
1503513712585,8, -19, -20, -7, -8, -1, 2, 30, 0
1503513712607,9, -1, 3, -5, -4, -2, -4, -3, 0
1503513712622,-15, 9, 8, -1, 2, 0, -7, -23, 0
1503513712644,8, -3, -5, -6, -8, 1, -3, -29, 0
1503513712668,2, 15, 14, -5, -12, -4, -14, -47, 0
1503513712682,-3, -10, -6, 3, 4, 2, 6, 20, 0
1503513712704,0, 4, 3, -4, -4, -5, -8, 15, 0
1503513712728,23, 6, 0, 0, -1, 1, 6, 46, 0
1503513712742,-9, 4, 6, 4, 3, 2, 9, -13, 0
1503513712764,-14, 18, 1, 0, 1, 0, -7, -43, 0
1503513712787,-3, -8, -9, -11, -10, -3, -2, 7, 1
1503513712797,1, 1, 12, 6, 5, 1, 6, 21, 1
1503513712816,4, -6, -8, -3, -3, -4, 1, 4, 1
1503513712832,0, 15, -4, -5, -5, -3, -1, 3, 1
1503513712853,6, -9, -7, -4, 1, 1, -2, 34, 1
1503513712876,-10, -1, 8, 8, 8, 3, 6, 4, 1
1503513712891,-6, -6, -6, -7, -10, -4, -2, 4, 1
1503513712913,-12, 2, 3, -6, 1, 0, -5, -11, 1
1503513712937,3, -6, -4, 8, 8, -1, -3, 5, 1
1503513712951,-7, -14, -7, -6, -11, -9, 4, 4, 1
1503513712974,2, -7, -3, -3, -2, 2, 3, 5, 0
1503513712996,7, 4, 1, -2, 1, 4, -3, 4, 0
1503513713011,-19, -8, -7, -12, 4, 1, 1, -27, 0
1503513713028,14, -5, -7, -7, -13, -19, -3, 32, 0
1503513713041,1, 7, 11, 5, 1, 5, 4, 17, 0
1503513713056,0, -9, 0, -6, -3, -1, -2, -16, 0
1503513713072,-3, 1, 3, 34, 28, 15, -6, -37, 0
1503513713097,12, 5, 2, -12, -15, -3, 5, 25, 0
1503513713116,-21, -3, -3, -11, -14, -5, 0, -26, 0
1503513713134,3, 6, 4, -2, -3, -1, -5, -16, 0
1503513713153,11, 7, 3, 24, 19, 4, 0, 10, 0
1503513713176,-46, -13, -6, -19, -24, -3, -1, -11, 0
1503513713191,18, 8, 1, -3, -4, -6, 3, 14, 0
1503513713213,-2, 3, -1, -12, -13, -7, -6, -21, 0
1503513713243,12, 4, 0, -10, -2, -1, -1, 7, 0
1503513713252,-4, -5, -7, -14, -7, -3, -4, 5, 0
1503513713275,2, 6, 7, 5, 5, 4, -5, -34, 0
1503513713282,-3, -10, -13, -8, -8, -10, -2, 29, 0
1503513713307,-5, 0, 5, 1, 0, 1, -2, -16, 0
1503513713326,6, -2, -3, -10, -12, -2, -2, -5, 0
1503513713341,8, 5, 0, -9, -5, 0, -4, -6, 0
1503513713357,-14, -21, -17, -6, -6, 0, -5, -12, 0
1503513713380,-10, -10, -9, -3, -5, -20, -1, -10, 0
1503513713390,8, -6, -4, -4, -5, -7, -6, -6, 0
1503513713402,-10, 8, 6, 5, 8, 6, 3, -7, 0
1503513713424,0, 1, 2, 9, 12, 4, 2, -9, 0
1503513713446,30, 4, -3, 1, -4, -7, 11, 53, 0
1503513713461,25, -7, -4, -6, -7, -5, 0, 61, 0
1503513713484,-3, 4, 6, -4, -7, 0, -10, -24, 0
1503513713507,15, 2, -6, -5, -8, -4, -1, -16, 0
1503513713529,-39, -3, 1, -5, -4, 1, -6, -94, 0
1503513713544,-13, -2, 7, 3, 0, 2, 1, 8, 0
1503513713560,7, 6, 3, -2, 0, -5, 3, -6, 0
1503513713575,1, 5, 4, 4, 0, 0, 0, 8, 0
1503513713597,6, 13, 21, 9, 4, 6, 3, -12, 0
1503513713620,-10, -10, -11, -7, -2, -1, -5, 7, 0
1503513713635,19, -4, -6, -5, -1, 13, 10, 37, 0
1503513713657,5, 0, 1, 1, -1, -5, 1, -5, 0
1503513713680,-7, -9, -5, 3, 0, 1, 5, -10, 0
1503513713695,-6, 0, -9, -6, -2, -5, -6, -34, 0
1503513713717,2, -11, 0, 1, 1, -8, -1, 69, 0
1503513713740,-1, 10, 2, -4, -6, -9, -9, -26, 0
1503513713762,-4, -5, -5, 10, 17, 7, -2, -28, 0
1503513713777,-6, 5, 4, -2, -6, -1, -5, -18, 0
1503513713801,16, -6, -3, 4, 1, 2, 9, 43, 0
1503513713821,-9, 0, 4, 14, 12, 1, -5, -28, 0
1503513713837,-2, 0, -4, -15, -13, -10, -4, -16, 0
1503513713860,-1, -17, -11, -7, -2, 1, -14, -77, 0
1503513713881,-19, -13, -9, 7, 11, -1, 2, -14, 0
1503513713897,-1, 5, 1, -10, -14, -10, -1, 25, 0
1503513713919,-3, 3, 1, -1, 0, 0, 2, 26, 0
1503513713942,-6, 3, -1, -1, 8, 5, 0, 13, 0
1503513713957,14, 8, 4, 9, 1, 0, -7, -39, 0
1503513713980,-2, -4, -2, -5, -7, -4, 0, 11, 0
1503513714003,4, -4, -9, -8, -6, 1, -1, -13, 0
1503513714017,15, 10, -1, -6, -10, -4, -1, 28, 0
1503513714039,-7, -21, -9, 1, 2, 2, 1, -27, 0
1503513714047,-4, 0, 5, 1, -2, -1, -1, 11, 0
1503513714072,-1, 5, 6, -5, -12, -3, 1, 2, 0
1503513714084,-11, -8, -16, -6, -3, -1, 5, -23, 0
1503513714108,-1, 5, 4, 2, 0, 2, 6, 43, 0
1503513714115,-5, 13, 9, -2, -1, -2, -6, -13, 0
1503513714139,-5, 5, -6, -13, -18, -7, -3, -13, 0
1503513714160,-21, 10, 13, 4, -1, 3, -5, -77, 0
1503513714175,7, -15, -9, 0, -2, 0, 2, 34, 0
1503513714197,2, -12, -6, 0, 5, 1, 4, 48, 0
1503513714226,4, 11, 8, 16, 15, -1, -1, -11, 0
1503513714234,6, -8, -13, -4, 4, 2, 4, 15, 0
1503513714257,7, -3, -11, -2, -5, 0, 5, -19, 0
1503513714280,4, 2, 3, -10, -8, -1, 2, -1, 0
1503513714305,-11, -6, -1, -2, -1, -5, -19, -56, 0
1503513714317,-4, -6, -3, 0, 0, -1, 3, 43, 0
1503513714332,-6, -16, -6, -1, -2, -3, 1, 26, 0
1503513714347,-3, -8, -2, -18, -17, -7, 0, -3, 0
1503513714370,-9, 3, 5, 11, 15, 3, -7, -27, 0
1503513714384,3, 11, 10, 6, -5, -1, 1, -1, 0
1503513714407,8, -1, -10, -1, -1, -3, -5, -5, 0
1503513714429,7, 5, -1, 0, 3, -1, 9, 65, 0
1503513714452,4, 4, 7, 5, 7, 1, -4, -61, 0
1503513714466,-2, -8, -5, 5, 5, 0, 5, -8, 0
1503513714489,-3, 2, 0, -4, -9, -5, 0, -20, 0
1503513714516,2, 12, 0, 1, 2, -1, -11, -30, 0
1503513714526,1, 5, 1, 0, -3, -2, -4, -40, 0
1503513714549,-7, -15, -6, -2, -1, 5, 7, 15, 0
