1503697313328,-2, 0, 0, -1, -1, 0, 0, -3
1503697313343,0, 0, -2, 0, -1, 0, -1, -2
1503697313365,-1, -1, 0, -1, -2, 0, -1, -1
1503697313388,-1, 0, -1, 0, -1, -2, -1, 0
1503697313403,-1, -1, -1, 0, 0, -2, -2, -1
1503697313426,-2, -1, -1, -1, -1, 1, 0, 0
1503697313448,1, -1, 1, 1, 0, 0, 0, 0
1503697313463,-1, -2, -1, -2, 0, -1, 0, -2
1503697313485,0, 0, -1, 0, 0, -2, 0, 0
1503697313494,-3, -2, -1, -1, -2, -1, -1, -2
1503697313516,2, 1, -2, -1, -1, 0, -1, -1
1503697313538,1, -1, -1, -2, 0, -2, -1, -1
1503697313553,-1, 0, -1, -1, -1, -1, 1, 0
1503697313576,1, 0, 1, -2, 0, 0, 0, 0
1503697313598,0, 0, -1, 0, 0, 0, -1, 0
1503697313613,-2, -1, -2, 0, -1, -1, 0, -1
1503697313644,-1, -1, -2, -1, -2, -1, 1, 0
1503697313665,-2, -1, 0, 0, -1, 0, -1, -2
1503697313688,-2, -1, 0, -1, 0, 0, 0, -1
1503697313711,1, -2, -1, 0, -1, -1, -1, -1
1503697313727,0, 1, -1, -1, 1, -1, 0, 0
1503697313748,0, -2, -1, 0, -1, -1, 0, 0
1503697313763,-2, 1, 0, 0, -1, -2, 0, 0
1503697313785,-1, -2, -1, -1, -1, 0, -2, 0
1503697313809,-2, -1, -1, 0, -1, -1, 0, -1
1503697313823,-1, -1, -1, 0, -1, -2, -1, 0
1503697313853,-1, -2, -1, -2, -2, -2, -1, 0
1503697313875,-1, -1, -2, 0, -2, -2, -1, 0
1503697313898,1, 0, 0, 1, -1, 0, -1, -1
1503697313913,0, 1, -1, 0, 0, -2, -2, -1
1503697313935,0, -1, -1, -1, -1, -1, -2, 0
1503697313958,-1, 1, -3, -1, -2, 0, -1, -1
1503697313975,0, 0, 2, -1, 0, 0, -1, -1
1503697313995,0, 0, -1, 0, -1, 0, 0, -3
1503697314017,-3, 0, -1, -1, 0, -2, 0, -2
1503697314033,-3, -2, -1, -1, 0, -1, -1, 0
1503697314055,-1, -2, -1, -2, -1, -1, -1, 1
1503697314077,-1, -1, 0, 0, 0, 0, 0, -1
1503697314106,-1, 0, -2, -3, 1, -1, 0, -1
1503697314128,0, -1, 0, -1, -1, -1, -3, -1
1503697314140,1, -2, -1, -1, -1, -1, 0, 0
1503697314160,-1, 0, 0, -1, -1, 0, 0, -1
1503697314178,-1, 0, -1, -1, -1, -1, -1, -2
1503697314197,-1, 0, 0, -1, 0, -1, -1, -2
1503697314220,0, 0, 0, 0, -2, 0, 0, 1
1503697314236,1, -2, -1, 0, -1, -3, 0, -2
1503697314257,-1, -2, -1, -2, 0, 0, -1, 0
1503697314280,-1, -2, -1, -2, -2, -1, 0, -1
1503697314295,-2, 0, -1, 1, -1, -2, -1, -1
1503697314317,-1, 0, -1, -2, -1, -2, -1, 0
1503697314341,0, 1, -1, -2, 0, -1, 0, -2
1503697314356,-1, 0, -1, 1, -1, 1, -1, -1
1503697314378,1, -1, -2, 0, 0, 1, -1, 0
1503697314413,0, 0, -2, -1, 0, -1, -1, -1
1503697314431,1, 0, 0, 1, -1, -2, -1, -1
1503697314446,1, 0, -2, -1, 0, -1, -1, 0
1503697314468,-1, -1, 0, -2, -2, 0, -1, 1
1503697314490,-2, -2, -2, 0, -2, 0, 0, -1
1503697314505,1, -1, -1, -1, 0, -1, 0, 1
1503697314528,1, -1, -2, -1, -1, -1, 0, 0
1503697314551,0, -2, -1, -4, 0, -1, -1, -1
1503697314570,-2, 0, 0, 0, -3, -1, -3, 0
1503697314588,0, -2, 1, -1, 0, 0, 0, -1
1503697314611,-1, 1, 0, -1, -1, -1, -1, -1
1503697314626,-1, 1, -2, 0, 0, -1, 0, -3
1503697314648,0, -2, -1, 0, -1, -1, -2, -1
1503697314670,0, -1, 0, 1, -1, -1, -1, -1
1503697314680,-1, -3, -2, -1, -2, 0, 0, -1
1503697314701,1, -1, -2, -2, 1, -3, -1, -1
1503697314723,-2, -3, 0, -1, -1, -1, -1, -2
1503697314738,2, 1, 0, -1, 1, 1, 0, -2
1503697314761,-1, -1, 0, 0, -2, -1, -1, 1
1503697314784,1, 1, -1, -1, -1, 0, 2, 1
1503697314800,0, 0, 0, -2, 2, -1, -2, 0
1503697314821,-1, -1, -1, 1, -2, -3, -1, -2
1503697314845,-2, -1, -1, 0, -1, -1, 1, -1
1503697314858,-2, -1, -3, -2, 1, -2, -1, -3
1503697314881,0, 0, -2, -1, -1, -1, -2, -2
1503697314903,0, -1, 0, 0, -1, -1, -1, 2
1503697314919,-1, 0, -1, -1, -1, -1, -1, -2
1503697314941,-3, -1, 0, 0, -1, 0, -1, 0
1503697314963,1, 0, -2, -2, -2, -1, 0, 2
1503697314980,1, -1, -1, -1, 1, 2, -2, -1
1503697315001,0, -2, -1, -2, 0, 0, -1, -1
1503697315023,-1, -2, -2, -2, -2, -3, 0, -2
1503697315038,0, 1, 0, 1, -1, -2, 0, -1
1503697315061,-3, -2, -2, -2, -1, 0, 0, -1
1503697315084,-1, 0, 0, 0, -1, -2, -1, 0
1503697315098,-1, 0, -2, -1, 0, 0, 0, -1
1503697315125,0, -2, 1, -1, 0, -2, 0, -1
1503697315148,0, 0, 0, 0, -2, 0, -1, -2
1503697315158,-2, 0, -1, -1, 0, -1, 0, 1
1503697315182,-1, 0, -2, 1, -1, -1, -3, -1
1503697315203,-1, -3, 0, -1, 1, -2, -1, -2
1503697315213,0, 0, 0, 0, 0, -1, 0, 0
1503697315233,-2, -1, 0, 0, -1, 0, -2, -2
1503697315249,0, 0, -1, -2, 0, 0, -1, 2
1503697315271,0, -1, 0, -1, -2, 0, 0, -1
1503697315293,0, 0, -1, -2, -1, 0, 0, 0
1503697315308,1, -1, -2, 0, -1, -2, 0, -1
1503697315331,0, 1, -1, -1, 0, -1, 0, 0
1503697315361,-1, -1, -2, -1, -1, -1, 0, -1
1503697315369,-3, -1, -2, -2, 0, -1, 0, -1
1503697315391,1, -1, 1, 0, -3, -2, -1, -1
1503697315415,-2, -1, -1, -2, -1, -2, -1, 0
1503697315428,0, -1, -1, -1, 0, -4, -2, 0
1503697315451,-2, -2, -1, 0, -1, -1, -1, 0
1503697315474,0, 0, 1, 0, 0, -1, -2, -2
1503697315488,-1, -1, -3, -1, -2, 1, -1, -1
1503697315511,-3, 0, -1, -2, -7, -1, 0, 0
1503697315534,-3, -2, -1, -1, 7, 0, 0, -2
1503697315549,1, -3, -1, 0, 2, -2, 0, 1
1503697315571,-1, 0, -1, -1, -2, -1, 0, 1
1503697315594,1, 1, -1, -1, -1, 0, -1, -3
1503697315608,0, 0, -1, -1, -2, 1, -1, -1
1503697315624,0, 0, -2, -1, -2, -1, -2, 0
1503697315639,0, 0, 1, -1, -2, -2, -1, -1
1503697315661,0, 0, -2, -2, -1, 0, -1, 0
1503697315693,-3, 0, 0, -1, -1, 1, -2, -2
1503697315713,-1, -1, 0, -1, -3, -3, -1, -1
1503697315728,1, 1, 0, -1, 0, 0, -3, 0
1503697315753,-1, -1, 0, 0, -1, -2, 1, -1
1503697315773,1, -3, -2, -1, -2, -1, -1, -1
1503697315788,-3, -3, -2, -1, -1, -1, -3, 0
1503697315811,0, -1, -1, 0, 0, 1, -1, -1
1503697315833,0, -1, -1, -1, 0, 0, 1, 0
1503697315848,-1, -1, -1, 0, 0, 0, 0, -2
1503697315870,-1, -1, 0, -1, 0, -2, -1, -1
1503697315893,1, 0, -1, -1, -2, -1, -2, 1
1503697315908,-3, 0, -1, -1, -2, -1, -1, 0
1503697315931,0, 0, -1, -2, 0, 0, -1, -1
1503697315953,1, -1, 0, 0, 1, -1, 0, 0
1503697315968,2, -1, 0, -1, -1, -1, -1, 0
1503697315991,-1, -1, 0, -1, -2, 0, 0, 1
1503697316014,0, -1, 0, 0, -1, 0, 0, -2
1503697316037,-1, -1, -1, 1, -1, -2, -3, -1
1503697316053,-1, 0, -1, -1, 1, 0, 0, -2
1503697316073,-1, 0, 0, -1, 0, -2, -1, -2
1503697316096,0, -1, -2, -1, -1, -1, 0, 0
1503697316111,-1, -1, -1, -1, -1, 0, -2, -2
1503697316133,-1, -3, -1, -1, -1, -2, 0, -1
1503697316155,-1, -2, -2, -1, -1, 1, 0, 1
1503697316163,1, 0, -2, 1, 0, -1, -1, -2
1503697316171,-2, -2, -2, 0, -1, -3, 0, -2
1503697316195,0, 0, -2, 0, -1, 1, 0, -3
1503697316217,-2, 0, -2, -1, -1, -1, -1, 1
1503697316230,-2, -1, 2, -1, -1, -2, -3, 0
1503697316255,-1, -1, 0, -3, 1, -2, -1, -1
1503697316276,-1, -1, -2, -1, -1, 0, -1, -1
1503697316291,-1, -1, -1, 0, -1, -1, 0, 0
1503697316306,-1, -1, -2, -1, 0, 0, -2, 0
1503697316338,-1, 2, 0, -1, 0, -1, -1, -1
1503697316344,-2, 0, -1, -1, -1, -1, -2, 0
1503697316365,0, -1, 0, -1, 0, -1, -1, -1
1503697316381,-2, -4, -2, -1, -1, -1, -1, 0
1503697316403,1, 0, -1, 0, -1, -2, -1, 0
1503697316426,-1, -2, -1, -1, -1, -3, 1, 0
1503697316441,1, 0, 0, -1, -1, -1, -1, -2
1503697316463,0, -1, 0, 0, -1, -2, 0, 1
1503697316491,-2, -2, -2, -2, -1, 0, 0, -3
1503697316501,0, 0, 0, -1, -2, 1, 0, -2
1503697316523,-1, 0, 0, 1, -2, 0, -1, -2
1503697316546,-1, 0, -2, -1, -2, 0, -2, -2
1503697316556,-1, 0, -1, -2, 0, 0, -1, 0
1503697316576,-1, 0, -1, 0, 1, -1, -2, -2
1503697316609,-1, -2, -2, 0, 1, -1, -2, 0
1503697316625,-2, 0, -1, -1, -1, 0, 1, -2
1503697316644,-1, -3, 1, -2, -1, 0, -1, -2
1503697316666,0, 1, -1, -3, 0, 0, -2, 0
1503697316674,-2, 0, 0, 0, -1, -1, 1, -1
1503697316696,1, -2, -1, -2, -1, -2, -1, 0
1503697316711,-1, 0, -1, 0, 0, -2, 0, -1
1503697316733,0, -1, 0, -2, 0, -1, -1, -1
1503697316757,-2, -1, -1, -2, -2, 0, -3, -2
1503697316770,-1, -1, -1, -2, 0, 0, -1, -1
1503697316797,-1, -1, 0, 0, -1, -1, 2, 1
1503697316816,-1, -2, 1, -1, 0, 0, -1, -1
1503697316830,1, -1, -2, 1, -1, -1, 0, -1
1503697316854,0, -1, -1, -1, -1, -1, -2, 0
1503697316884,-1, 0, -2, -2, -2, -1, -1, -2
1503697316905,0, -1, -2, 0, -2, -1, -2, -1
1503697316928,-2, -2, 0, 0, -1, 0, 0, 0
1503697316945,-1, -1, -1, -1, 0, 0, -2, -1
1503697316966,0, -2, -2, 0, 0, 0, 0, 1
1503697316989,-1, -1, -2, -1, 1, 0, -2, 0
1503697317004,0, 0, 0, -1, 1, -1, -1, -2
1503697317018,0, -3, -3, -1, 0, -3, 0, 0
1503697317027,-1, -1, 1, -1, 0, -1, 0, -1
1503697317050,-1, 1, 0, -1, 0, -2, 0, 0
1503697317064,-1, 1, -2, 0, -2, 0, 0, -1
1503697317085,1, -1, -2, -1, 0, -1, 0, -1
1503697317108,0, 0, 0, -2, -1, -1, -1, 0
1503697317123,-2, 0, -1, -1, -1, 0, 0, -1
1503697317137,-2, -1, -1, -1, -1, -2, -1, 0
1503697317153,1, -1, -2, 0, 0, -3, -2, 0
1503697317175,0, 0, -2, 1, 0, 1, -2, 0
1503697317198,-3, -2, -1, 0, -2, -1, -1, -1
1503697317213,-2, -3, -2, -2, -2, -1, 0, -1
1503697317236,-1, -1, -1, -1, -1, 0, 0, -1
1503697317257,-2, -1, 0, 0, 0, -1, 0, 0
1503697317273,-1, -1, 0, -2, 0, 0, -1, 0
1503697317296,0, 0, -1, -1, 0, 1, 0, -1
1503697317317,0, 0, -1, -1, 0, 1, -1, -2
1503697317333,0, -1, -1, -1, -1, -2, -1, -1
1503697317355,0, -2, 0, 1, -2, -1, -2, -3
1503697317377,-2, -1, -1, -2, -1, -2, -1, -1
1503697317395,-4, -1, 0, 0, 0, 1, -1, -2
1503697317415,0, -1, 0, -1, -2, -3, -2, -1
1503697317437,0, 0, -1, -1, 0, -1, 0, 0
1503697317446,0, 0, -3, -1, -2, 0, 0, 0
1503697317470,-1, -1, -1, 0, 0, 0, 0, -1
1503697317483,0, -1, 0, -1, 1, -1, -1, -1
1503697317505,0, 1, 0, 0, 0, -1, -2, 0
1503697317529,-1, -2, -2, -1, 1, -1, 0, -2
1503697317543,-2, -1, 0, -1, 0, -2, -1, -1
1503697317566,-2, 0, -2, -1, -2, 0, -3, 1
1503697317588,0, 1, 0, 0, -1, -1, -1, -2
1503697317604,-1, -1, -3, 0, -2, -2, -2, -1
1503697317617,0, -1, -3, -1, -1, 0, -2, -1
1503697317633,-1, -2, -1, -2, -1, 0, 0, 0
1503697317655,-2, 1, -1, -1, -1, -1, 0, -1
1503697317677,0, -1, 0, -1, -1, -1, 0, -2
1503697317693,-3, 2, -1, -1, 0, 0, 0, -1
1503697317715,0, -2, -1, 0, -2, 0, 0, -2
1503697317737,-3, -1, -2, -1, -2, -2, -1, -2
1503697317754,-1, -1, -2, -2, -2, -1, -1, 1
1503697317775,0, 0, -2, 0, -1, -2, -1, 0
1503697317784,0, 0, -1, 0, -2, 0, -1, -1
1503697317806,-2, -1, -1, -1, 0, -2, -2, -1
1503697317828,0, -4, -1, 0, 0, 0, -2, 0
1503697317836,-1, -2, -1, 0, -1, 0, 0, 0
1503697317857,0, 1, 0, -1, -1, -3, -1, -2
1503697317866,1, -1, 0, -1, -1, -1, 0, -1
1503697317889,-1, 0, -2, -1, 0, -1, 0, -1
1503697317896,1, -2, -1, -1, -1, -1, -2, -2
1503697317917,-2, -3, 0, -1, -1, 0, -2, -1
1503697317940,-2, 2, -1, 0, 0, -1, -2, -1
1503697317956,-1, 0, -1, 1, 0, 1, -1, -2
1503697317977,0, -2, -2, -2, -1, 0, -1, -2
1503697317999,-1, -1, 0, 1, -3, -2, -1, -1
1503697318008,-2, 0, -2, 0, -2, 1, -1, 0
1503697318033,-1, 0, 0, -1, -1, -2, -1, -2
1503697318046,-1, 0, -2, -3, -1, 0, -1, -1
1503697318068,-1, -1, -1, -1, 1, -2, 0, -2
1503697318090,-1, 0, -1, -3, 0, -1, 0, 0
1503697318100,0, 0, -2, -1, 1, -1, 0, -1
1503697318122,0, -1, -1, -1, -2, -2, 2, -1
1503697318135,-1, 0, -1, 0, -1, -2, 0, 0
1503697318157,1, -1, -2, 0, -1, -1, -1, 0
1503697318180,-1, -1, -1, -2, -2, -5, -3, 0
1503697318196,-1, -2, -2, -1, -2, 1, -1, -2
1503697318217,1, -2, 0, 0, -2, -1, 0, -1
1503697318240,-1, -1, -1, 0, -1, 1, -1, -1
1503697318255,-2, -1, -1, -1, 0, 0, -1, 0
1503697318279,0, -1, 0, -1, 0, 0, 0, 0
1503697318300,-1, -2, 0, -2, -1, -1, -1, -1
1503697318308,-4, -2, 0, 0, -2, 0, -1, -1
1503697318330,-1, -1, -1, 0, -2, -1, -1, 1
1503697318346,-4, -3, -1, -1, -1, 0, 0, -1
1503697318368,2, 0, -1, -3, -2, -1, -2, -1
1503697318390,-2, 1, -2, -1, -1, -1, -1, 0
1503697318407,-1, 0, 0, -1, 0, -2, -1, 0
1503697318428,0, -1, 0, -1, 0, -3, -2, 0
1503697318450,1, 1, -1, -1, -1, -1, 0, -1
1503697318466,-1, -2, -3, -2, -1, -2, -1, 1
1503697318488,1, 0, -1, -1, -1, -1, 0, -2
1503697318511,-1, -2, -1, -1, -1, -1, 1, -2
1503697318526,1, -1, -1, -1, -1, 0, -2, 1
1503697318548,0, 2, 0, 0, 0, -1, -1, -2
1503697318570,-1, -1, 0, -1, -1, -2, -1, -1
1503697318578,0, 0, -1, 1, 1, -1, 0, 0
1503697318599,0, -1, 1, -1, -1, 0, -1, 2
1503697318615,1, -1, -1, -2, 1, 0, -1, -2
1503697318638,-1, -1, -1, 0, 0, 0, 1, -2
1503697318660,0, -1, 0, 1, -1, 0, -1, -1
1503697318676,0, -1, -2, -1, -1, -3, -2, 0
1503697318698,0, 0, -1, -2, -1, -1, 0, -2
1503697318719,0, 1, 0, 1, -1, -1, -2, -2
1503697318736,0, -1, 0, -1, -1, -1, -2, 0
1503697318758,0, 1, 0, 1, -1, -3, -1, -1
1503697318780,2, -2, -2, -2, 0, -1, 0, -2
1503697318802,-1, 0, 0, -1, -2, -1, 0, 1
1503697318818,-2, -2, -1, -2, -2, -1, -1, -1
1503697318841,-1, -1, -2, -1, 1, -1, -1, -1
1503697318862,-2, -3, 0, 1, -2, -1, -1, -2
1503697318878,0, -1, 0, -1, -1, 0, -1, 0
1503697318899,-1, 0, -1, 0, 0, -1, 0, -1
1503697318922,1, 0, -2, -2, -1, 0, 0, -1
1503697318940,-1, 1, 0, -1, -1, 0, -2, 0
1503697318959,-1, -1, 0, -1, 0, -1, 0, 0
1503697318983,-2, -1, 0, -1, -2, -2, 0, -1
1503697318998,2, -1, 0, -2, -2, -1, -1, -1
1503697319020,0, 0, -1, 0, 0, -1, -2, -1
1503697319044,0, 0, 0, -1, -1, 1, 0, -2
1503697319058,-2, 0, 0, -1, -1, -2, -1, -1
1503697319079,-1, -1, -1, 0, 0, 0, -2, -1
1503697319102,-3, -2, -1, 1, 0, 0, 1, 1
1503697319118,0, -1, -1, 0, 0, 0, -1, -1
1503697319143,0, -3, -2, -1, -2, -1, -1, -1
1503697319162,0, 1, -2, -1, -1, -1, -1, -1
1503697319178,1, 0, 0, -1, -1, 0, -1, 1
1503697319199,-1, 1, -1, -1, 0, 0, 0, 0
1503697319222,0, -1, 0, -1, 0, -1, -2, -2
1503697319238,0, -1, 0, 1, 0, -2, -2, 0
1503697319259,-3, -4, -2, -1, -2, 0, 0, -2
1503697319283,1, 2, 0, -8, -2, -3, -4, -1
1503697319298,0, 2, -1, -3, -4, -1, -1, -1
1503697319319,-4, -6, 2, -2, -6, -2, -2, -3
1503697319342,-3, -2, -3, -3, -1, -2, -3, -4
1503697319358,1, 0, -1, 0, -3, -1, -1, 2
1503697319380,0, 0, -4, 8, -1, 0, 1, -2
1503697319402,-1, -5, -6, -10, -7, -3, -4, -1
1503697319410,-3, -5, -3, -17, -2, -4, -1, 0
1503697319433,-2, 2, 5, 20, 12, 4, 1, 2
1503697319448,-2, 2, 9, -11, -5, 0, 2, 0
1503697319470,2, 0, -4, -10, -4, -3, -3, 2
1503697319493,-2, 1, 8, 23, 6, -2, -6, -5
1503697319512,1, 4, 4, 25, 5, 2, 1, 2
1503697319530,-2, -5, -9, -21, -5, -4, -2, -1
1503697319553,0, -1, 22, -6, 4, -1, 1, 0
1503697319568,-3, -3, 5, 5, -1, -2, -2, -3
1503697319590,3, 0, -9, -13, -4, 3, 3, 1
1503697319613,1, -2, -13, -11, -5, -1, -2, -1
1503697319628,-5, -2, -6, -5, -2, -3, -5, -4
1503697319652,6, 10, 28, 13, 4, 4, 4, 5
1503697319673,1, 1, -13, -2, -3, -1, -2, 1
1503697319688,0, 2, 2, -1, -2, -2, 1, 1
1503697319711,-3, -1, -4, -3, -3, -2, 0, -3
1503697319733,2, 3, 6, -3, -3, 0, -1, 0
1503697319755,-3, -8, -9, -2, 4, -1, -2, -3
1503697319770,1, -2, -7, -2, -3, -3, -1, 0
1503697319793,-4, -5, -4, -4, -4, -2, -6, -5
1503697319816,1, -1, 5, 1, 6, 2, 3, 4
1503697319830,-3, -6, -11, 0, 12, 4, -2, -3
1503697319853,-2, -5, -11, -2, 0, 0, 1, 0
1503697319875,0, 2, -3, -2, -8, -4, -2, 0
1503697319890,1, -6, -11, -8, -5, 0, -1, 1
1503697319913,7, 14, 25, 5, -7, 4, 3, 3
1503697319935,-2, -5, -6, 1, -5, -5, -1, 0
1503697319950,3, 8, 5, 6, 12, 1, 2, -2
1503697319973,-6, -7, -5, -7, -8, -5, -3, -1
1503697319995,0, -11, -9, -4, 1, 3, 2, 3
1503697320010,2, 9, 1, 1, 12, 1, -10, -7
1503697320033,8, -22, 7, 1, -12, -11, -8, 12
1503697320055,10, -26, 5, -2, 1, -9, -1, 5
1503697320071,24, 67, 63, 29, -45, 16, 19, 17
1503697320093,16, -2, -3, 22, 86, 49, 39, 23
1503697320118,-15, 36, 13, -1, -44, 6, -1, -10
1503697320131,-47, -92, -41, -36, 5, -17, -19, -25
1503697320154,-6, 7, 10, 7, -7, -5, -2, -7
1503697320175,-6, -8, -42, -19, 1, -21, -13, -8
1503697320184,7, 29, -6, -12, 20, 6, 7, 7
1503697320206,-5, 3, 5, 3, 24, 4, -4, 0
1503697320228,-5, -8, -10, 3, 4, 2, 10, 1
1503697320243,0, 0, -2, 7, -8, -3, 1, -1
1503697320266,1, 0, -4, -10, -1, -4, 0, 0
1503697320288,-1, 3, 0, 0, 18, 19, 8, 3
1503697320303,-2, -2, -3, -5, -10, -24, -11, -3
1503697320326,-2, -2, -4, -2, -9, -2, 4, -3
1503697320350,2, -2, -1, 6, -9, -21, -4, -3
1503697320363,-8, 0, 2, 3, -6, -18, -34, -14
1503697320388,-1, 3, 4, 3, 6, -2, 9, -1
1503697320408,9, 2, 1, 4, 15, 10, 66, 5
1503697320424,5, 0, 1, 4, 2, 17, -12, 3
1503697320446,-6, -5, -6, -17, -1, 0, -1, 3
1503697320468,-4, 5, 4, -6, -4, 33, 0, 2
1503697320484,-1, -3, -2, -5, -4, -6, -10, -2
1503697320506,-7, 9, 7, -7, 1, -4, -6, -7
1503697320528,-7, -3, -8, 12, 20, -5, -19, -3
1503697320543,-2, 5, -6, -15, -23, -12, -7, 1
1503697320566,1, -8, -4, -7, -8, -10, 6, 12
1503697320588,-7, -9, -5, -7, 1, 6, -1, -11
1503697320603,-14, -10, -4, 9, 6, 6, 5, 0
1503697320626,-5, 2, 1, 1, -4, 8, 13, -4
1503697320648,18, 17, 20, 23, 5, -2, -1, 15
1503697320663,0, -8, -6, -7, -6, -3, -4, 16
1503697320688,13, -7, -9, -12, 10, 6, 0, 15
1503697320709,-3, 18, 14, -1, -4, -14, 7, 5
1503697320724,-2, -6, -6, 3, 1, 5, -9, -21
1503697320746,-8, 9, 11, 4, 5, -1, -14, 1
1503697320768,-6, -11, -5, -1, -3, -30, -13, 0
1503697320785,-14, -7, -2, -2, -7, -13, -3, -17
1503697320806,8, 0, 1, -1, -1, 24, 0, -5
1503697320829,-2, -3, -2, -2, 1, -1, -6, -15
1503697320843,12, 5, 7, -1, -1, 8, 12, -1
1503697320866,9, 2, 1, 1, -2, 3, 4, 5
1503697320888,8, -8, -14, -5, -5, -14, -4, 20
1503697320903,4, 3, 0, 0, 3, 1, 0, -2
1503697320920,4, -1, -2, 0, -2, -4, 4, -5
1503697320933,4, -1, -2, 0, -3, -1, 0, 2
1503697320955,-8, 1, 3, -3, -3, -4, -4, -13
1503697320978,7, 5, 1, 0, -5, -1, 0, 9
1503697320993,2, 3, 0, -3, -3, 2, -4, 10
1503697321015,-4, -5, 0, 1, 0, -3, 0, 5
1503697321038,15, 0, -18, -2, 1, 2, 5, 11
1503697321054,-12, -10, 3, -1, -2, -2, -7, -14
1503697321075,-2, -4, -4, -1, -1, -2, 1, 2
1503697321098,12, 3, 6, 1, 3, 0, 1, 1
1503697321113,-4, -7, -8, -5, -2, 0, -1, 0
1503697321135,-8, 4, 3, 2, -1, -1, -2, -6
1503697321158,-2, -5, 5, 2, -1, -4, -2, -1
1503697321173,-8, 6, 9, -2, 0, 2, 1, 0
1503697321196,-6, -18, -9, -4, -5, -3, -2, 0
1503697321218,-2, 6, 5, 1, 1, -1, -1, -2
1503697321233,-1, 2, 7, 7, 7, 1, 3, -2
1503697321256,0, 5, 0, 0, 0, -3, -2, -2
1503697321278,-2, 2, 17, 5, 0, 2, -1, -1
1503697321298,-19, -15, -9, -5, -3, 0, -2, -2
1503697321315,4, -21, -8, -2, -3, -3, -1, 0
1503697321338,9, 19, 0, 1, 1, 1, 3, 2
1503697321353,12, 8, -11, -6, -13, -4, -2, 0
1503697321375,20, 16, 2, -2, 1, -1, 1, 0
1503697321398,-11, -4, -9, 0, 0, -2, -5, -8
1503697321413,-43, -75, -7, -3, 2, 2, 1, -1
1503697321435,8, 12, 8, -2, -3, -4, -3, -3
1503697321458,-20, -11, -5, -1, -1, -2, -3, -4
1503697321473,23, 28, -1, -1, 9, 6, 3, 0
1503697321495,27, 75, 7, 2, -2, -1, 2, 10
1503697321518,5, 3, 0, 4, 1, 1, 1, 0
1503697321533,6, -21, -1, -2, 1, -3, 0, 2
1503697321557,-33, -56, -9, 0, 3, 4, 4, -8
1503697321578,7, 8, -5, -3, -3, -1, -2, 2
1503697321600,-4, 12, -5, -5, 0, 1, 0, -1
1503697321615,16, 35, 5, -1, -1, -3, -3, 0
1503697321638,-8, 1, 2, -1, -3, -1, -4, -2
1503697321660,4, -10, -3, 2, -1, -1, 3, 3
1503697321675,17, 34, 6, 2, -3, -1, -1, -1
1503697321698,-10, -39, -2, -4, -4, -2, -4, -5
1503697321720,8, 21, -4, 2, 1, 2, -1, -2
1503697321735,-7, -23, -5, -6, -4, -1, 1, 3
1503697321759,11, 19, -3, 5, -1, -1, -2, 5
1503697321780,-13, -34, 0, -4, 1, 0, -1, -3
1503697321796,1, 9, 4, 3, 0, -3, -7, -7
1503697321817,5, 14, 2, -3, -4, -3, -3, -4
1503697321827,15, 19, -3, -2, 2, 1, 5, 7
1503697321848,-16, -31, -2, -1, 0, 1, -1, -7
1503697321870,-2, -2, -3, -3, -3, -10, -6, -3
1503697321886,-26, -18, 2, 1, -3, 2, -6, -10
1503697321908,-13, 2, 8, 3, -2, 0, -3, -4
1503697321931,16, 18, 7, 5, 4, 5, 10, 10
1503697321946,-4, -13, -6, -2, 0, -1, -5, 0
1503697321969,-16, -4, 6, 4, 0, 0, -2, 15
1503697321990,23, 12, -2, 0, -3, 0, -3, -8
1503697322006,-18, -8, -1, -7, -1, 0, 1, 3
1503697322028,-13, -9, -3, -6, -10, -8, -1, 6
1503697322050,-8, -13, -5, -7, 2, 0, -11, -12
1503697322066,10, 14, 0, 2, -1, -7, -1, -4
1503697322088,7, -2, 1, 4, 3, 0, -1, -1
1503697322110,47, 20, 2, 8, 6, 9, 2, 7
1503697322128,-1, -3, -1, 3, 3, 15, 7, -2
1503697322148,-28, -17, -3, -5, -7, -9, -13, -13
1503697322170,-38, -5, 1, 1, 0, -3, 3, -8
1503697322185,10, -5, -1, -3, 0, 5, 14, 0
1503697322200,29, 7, -2, 1, 2, -2, 1, -5
1503697322215,-20, 0, 1, 1, -5, -4, -5, -11
1503697322238,-31, -13, -1, -6, -7, -1, 1, 1
1503697322262,24, 25, 9, 2, 0, -5, -3, -3
1503697322275,6, -5, -1, 6, 0, -4, -3, 10
1503697322298,12, 4, 1, 0, 0, 3, 0, -8
1503697322306,15, 2, -2, -4, -8, -5, -3, -2
1503697322329,23, 18, 3, 2, 2, -3, 2, 20
1503697322350,-40, -22, -1, -1, 6, 2, 1, -3
1503697322367,-2, 1, -5, -1, -6, -3, 5, -3
1503697322388,-10, -6, -2, -3, -10, -4, -2, 3
1503697322410,-29, 2, 1, 2, 1, -5, -2, -7
1503697322426,11, 13, 10, 0, 2, 1, 0, 12
1503697322448,13, 0, 1, 1, -2, -1, -2, 1
1503697322470,-7, -12, -5, 0, 0, -11, -9, -9
1503697322492,6, -1, 5, 3, 2, -1, -3, -9
1503697322508,26, 1, -4, -3, -3, 0, 0, 6
1503697322532,-20, -13, -5, -1, 4, 1, -13, -20
1503697322538,7, 6, 14, 2, -1, 5, 8, 19
1503697322560,4, -6, -2, 3, -3, -3, 1, 0
1503697322582,-1, 0, -3, -1, -7, 11, 0, -6
1503697322599,-6, -1, -4, -5, -1, -6, -5, -3
1503697322620,24, -6, -6, -3, 0, -2, -2, -6
1503697322642,8, 1, 5, 1, 3, 1, 0, 8
1503697322657,-38, -8, -9, -1, 2, -1, 0, -4
1503697322680,-3, 3, -4, -3, 1, 2, -1, -9
1503697322702,3, 1, -2, -1, 3, -4, -4, -16
1503697322717,1, -2, 0, -1, -4, 1, 5, 9
1503697322741,16, 1, 10, 2, 0, 0, 1, 8
1503697322762,1, 1, 3, -2, 4, 2, 2, 8
1503697322778,-23, 1, 0, 2, -5, 3, -1, -9
1503697322800,50, 27, 16, 0, -5, -2, -2, -1
1503697322822,1, -15, -7, -2, -6, -3, 2, 7
1503697322838,-8, -8, -8, 0, 1, -2, 3, -9
1503697322860,1, 4, -2, 0, -4, -5, -2, 3
1503697322882,-27, 0, -7, 1, -3, -3, -2, 6
1503697322899,0, -11, -9, -3, -3, -3, -1, 1
1503697322920,-1, -4, -7, -2, -4, -3, -3, -3
1503697322942,-28, -4, 0, 1, 2, 1, -4, -6
1503697322957,8, 4, 0, -3, -9, -1, -1, -1
1503697322973,2, 6, 2, 0, -9, -2, 0, -3
1503697322988,2, -2, 1, 2, -6, -1, -1, 4
1503697323010,-13, -8, -10, -3, 13, 2, -4, -4
1503697323035,53, 7, 2, 0, -7, -1, 1, 2
1503697323048,-10, -1, 2, -1, -7, -3, -1, 4
1503697323070,-20, -2, -2, 2, 3, -3, -4, -6
1503697323092,-27, -3, -1, -4, -7, -4, 2, -1
1503697323108,-24, -3, -2, 2, 4, 0, -1, -6
1503697323130,-56, -6, 4, 1, -1, 2, -1, -6
1503697323153,16, 4, 2, -2, 0, 0, 1, 11
1503697323169,-11, -5, -8, -5, -4, -2, 5, 1
1503697323190,-34, -3, 1, -1, -4, -1, 4, 1
1503697323212,28, 5, -5, -4, 0, -1, -8, -2
1503697323228,4, -7, 0, -1, 2, 2, 1, 3
1503697323250,7, 7, -8, -2, 0, -1, -2, -4
1503697323258,6, -2, -1, 1, -1, -5, -1, 0
1503697323280,-11, 2, -4, -3, -4, -4, 2, -2
1503697323303,-14, -6, -3, -1, 2, 1, -1, -1
1503697323317,9, 23, 11, 1, -7, -4, -1, 8
1503697323341,-29, -11, -7, -2, 6, -2, 1, 1
1503697323362,4, -4, -2, 0, 0, 2, 0, -7
1503697323378,22, 0, 2, 0, -2, 0, -1, 4
1503697323400,43, 20, 17, 3, 4, -1, -1, -8
1503697323410,14, 14, 3, -5, -4, -3, -2, -5
1503697323430,4, -8, 3, 1, 4, 0, 3, -4
1503697323453,-16, -21, -11, -5, -4, -4, -5, -3
1503697323475,-15, 0, 10, 1, -2, 0, 2, 4
1503697323490,-13, -16, -6, -2, -4, 0, 10, 6
1503697323513,-4, 0, 1, 0, 4, -2, -10, -17
1503697323536,22, 4, -2, -1, -1, -3, -6, -7
1503697323550,-8, 1, -3, -1, 1, 0, -4, -3
1503697323573,33, 5, 1, -1, -2, -1, 4, 22
1503697323595,-27, -3, -2, 1, 7, 6, 4, -1
1503697323610,13, 7, 4, -1, -11, -4, 0, 3
1503697323632,-35, -10, -12, -5, -3, -3, -3, 4
1503697323655,7, -1, -4, -3, -1, 1, 0, 11
1503697323673,36, 10, 4, 2, -2, 0, 4, 12
1503697323692,15, 18, 9, 1, -4, 1, -1, -2
1503697323715,-31, 4, 3, -1, -2, -3, -8, -16
1503697323730,-17, -13, -4, -1, 1, 0, 3, -5
1503697323753,-6, -4, -5, -1, 0, -3, -5, -12
1503697323775,-40, -8, -5, 1, 2, 2, 0, -1
1503697323790,-31, -9, -1, -1, -2, -4, -11, -37
1503697323813,26, -4, -4, 0, 3, 2, 2, 4
1503697323841,5, 4, -2, -2, -3, -3, 1, 9
1503697323852,6, 2, 4, -1, -3, 0, 3, 3
1503697323873,-4, 6, 3, 0, 5, 0, -2, 6
1503697323896,10, -5, 1, 0, -1, -2, 1, 3
1503697323911,-8, -9, -7, 0, -1, -1, -4, -9
1503697323933,2, -4, -2, -1, -1, -2, 2, 4
1503697323955,9, 2, 0, 0, -2, 0, -1, -1
1503697323971,-1, 4, -3, 0, 1, 3, 1, -2
1503697323992,22, 3, -3, -2, -5, 1, 0, 2
1503697324015,3, 13, -4, -2, 0, -2, -2, -2
1503697324022,2, 11, -2, 0, -1, 1, 1, 0
1503697324045,-5, -3, 1, 0, -2, -2, -2, -2
1503697324060,-4, -9, -5, 1, 1, 1, 1, 3
1503697324083,8, 0, 6, 1, 1, 0, 6, 2
1503697324104,17, 14, -2, -2, -2, -5, -3, -1
1503697324121,-4, -2, 3, 2, 0, -1, -1, -3
1503697324143,-1, -6, 1, -1, 2, 2, 0, 1
1503697324164,-7, -8, -17, -10, -1, 1, 0, -1
1503697324173,11, 8, 11, 1, -6, -2, 0, 3
1503697324195,8, -13, -10, -6, -1, -2, -2, -5
1503697324211,10, 25, -1, 0, -6, -6, -3, 0
1503697324233,-29, -13, -15, -4, 0, 1, 1, -7
1503697324255,12, 16, 3, 0, 7, 1, -1, 1
1503697324270,3, 2, 5, 2, -1, -1, -1, 0
1503697324285,-37, -14, -3, -1, -2, -2, -1, -1
1503697324300,-32, 6, -1, 0, -3, -4, -8, -12
1503697324323,34, 16, 7, -2, -2, 0, 2, 1
1503697324345,-33, -27, -12, -5, -6, -4, 0, 1
1503697324360,4, 16, -4, 0, 1, -5, -3, 2
1503697324382,0, -8, -8, -4, -6, 0, 0, -5
1503697324404,40, -1, -5, -1, 3, 1, 3, 0
1503697324427,-2, -6, -8, 1, 3, 2, -3, -13
1503697324445,-11, -26, -7, -2, 0, 2, 1, 8
1503697324464,-19, -15, -1, -3, 2, -1, -1, -5
1503697324487,-6, 1, 1, -1, -3, 0, 4, 6
1503697324502,-7, 10, 14, 4, 1, -1, -1, -3
1503697324524,41, 16, 2, 1, 0, 3, 2, 9
1503697324547,-16, -7, -2, -4, -3, 0, -2, 3
1503697324562,-6, -1, 4, 3, -8, -6, -1, -3
1503697324585,11, 6, 1, 0, -1, -3, -2, -1
1503697324607,17, 13, -17, -3, 2, 4, -4, -1
1503697324622,-24, -15, -5, -7, 0, -3, -7, -4
1503697324646,-1, -3, 7, 6, 4, 1, 5, -4
1503697324668,-2, 9, 10, -1, -3, -3, 0, 0
1503697324683,-7, -4, 7, 2, -1, 1, 1, 0
1503697324704,-10, -6, -8, -5, -7, -2, 3, 7
1503697324727,18, 14, -6, -1, -1, -2, -2, -1
1503697324742,2, -3, -5, -4, -7, -1, -5, -5
1503697324764,4, 3, -16, -6, 0, -2, -3, -6
1503697324788,-5, -16, -11, -4, 0, 1, 0, 6
1503697324803,-6, 6, 5, 6, 5, 1, -3, -5
1503697324824,-3, -3, 19, 6, 3, 2, 2, 6
1503697324848,-20, -12, 6, -2, 0, 1, 3, -3
1503697324862,18, -3, -5, -1, 1, 1, 6, 10
1503697324878,-14, -22, -25, -10, -7, -8, -8, -12
1503697324892,-9, 15, 8, 4, 4, 6, 1, -2
1503697324915,-27, 15, -1, -4, -6, -3, -1, -2
1503697324938,3, -3, 5, 1, 1, 2, 1, -1
1503697324953,61, 21, 8, 5, 0, -1, 0, 9
1503697324975,4, 5, 2, -7, -6, -3, -5, 2
1503697324998,-16, -21, -9, -1, -6, 3, 3, -3
1503697325014,-20, -6, 0, 0, 3, 5, 2, 0
1503697325035,-16, 1, 3, -1, -2, -7, -10, -12
1503697325058,24, 25, 2, 0, 1, -3, -1, 0
1503697325072,-16, -8, 6, 1, 1, 0, 2, -3
1503697325095,3, -5, -4, -2, -7, -3, -4, -5
1503697325117,-17, -8, -3, 5, 14, 1, 7, 5
1503697325132,10, -4, -9, -6, -4, 0, 2, 2
1503697325155,-13, -26, -6, -5, -3, 0, 4, 0
1503697325177,3, 11, 9, 5, -1, -3, -5, -3
1503697325193,14, -1, -3, 0, 3, 4, 4, 9
1503697325216,-2, 3, 0, 4, -5, -6, -8, -6
1503697325237,-10, -1, -4, -3, -3, 2, 3, 0
1503697325253,38, 15, 1, -8, -1, -1, -7, -5
1503697325275,-16, -5, -2, -1, 9, -4, -6, -4
1503697325297,-4, 6, 0, 0, -4, 4, 0, -1
1503697325320,-60, -15, -2, 2, 6, 1, 3, -4
1503697325335,-11, -5, -4, -5, -7, -2, 0, 13
1503697325357,-7, 27, 15, 2, -2, 3, 2, 5
1503697325380,-12, -26, -2, -2, -4, 0, 6, 2
1503697325395,-10, 12, -1, 3, 2, -4, -8, -10
1503697325418,22, -9, 7, 3, 6, 2, 7, 17
1503697325440,-6, -6, -22, -6, -8, -5, -4, -5
1503697325456,-14, -9, -5, -3, -1, 8, -3, -11
1503697325477,-9, 5, 3, -1, -7, -5, -4, -9
1503697325500,27, 16, -2, -2, 0, 0, 0, -7
1503697325515,13, -6, 0, 1, -4, -4, 1, 5
1503697325537,-11, -12, 1, 2, 3, 0, 1, -3
1503697325560,-6, -7, 3, -1, -3, -4, -7, -5
1503697325575,12, 0, -2, -1, 4, -1, 2, 2
1503697325597,-12, 0, 0, -3, -1, -1, 3, 1
1503697325621,-49, -2, -3, 0, -4, -4, -13, -38
1503697325635,16, 11, 3, 1, 0, 0, 2, 6
1503697325657,50, 8, 6, 2, 7, 6, 4, 14
1503697325680,22, -7, -9, -6, -2, -5, -7, 1
1503697325695,23, 3, -8, -4, -4, -3, -2, -1
1503697325726,13, 2, -4, 0, 1, -1, 2, 20
1503697325748,10, 22, 5, -2, 2, 2, -5, 0
1503697325757,-28, -7, -6, -2, -3, 1, 4, 7
1503697325779,-22, 14, 6, 1, 0, 0, 0, -8
1503697325800,5, 3, -1, 2, -2, -2, 2, 11
1503697325815,-12, -4, -1, -3, -1, 0, 0, 4
1503697325837,-35, -11, -4, -4, -4, -4, 4, -2
1503697325860,11, -9, -2, -1, -8, -1, -6, -16
1503697325875,22, -3, -2, -2, 2, 0, -2, -3
1503697325897,-12, -4, 1, -1, -1, -2, 0, 0
1503697325921,-13, 0, -6, -1, 16, 2, -4, -1
1503697325930,-17, 1, -4, -1, -9, -5, 0, -3
1503697325950,-11, -17, -2, 2, -1, -1, -1, -4
1503697325972,-4, -20, -4, -2, -1, -3, -3, -13
1503697325989,-21, 1, 7, 2, 1, 0, -1, -2
1503697326011,10, 3, 0, -4, 1, 11, 2, 1
1503697326032,4, 22, 9, -1, 2, -2, -1, 0
1503697326048,31, 8, -1, 0, 8, 1, 5, 6
1503697326070,-28, -14, -3, 0, -3, -4, -1, 5
1503697326093,27, 4, 5, 0, -3, -3, -5, -12
1503697326108,62, 15, 15, 2, 0, -3, 0, 8
1503697326131,-43, -17, -4, 3, 3, 1, -1, -3
1503697326153,-10, 9, -5, -3, -7, -2, 1, -6
1503697326168,-16, -5, -5, -1, 0, 0, -2, 3
1503697326192,-50, -8, -5, -5, -5, -5, -1, 3
1503697326213,19, -17, -9, -3, -4, -4, -5, -7
1503697326229,5, 0, -3, -2, 0, 1, 0, -1
1503697326250,1, 13, 8, -2, 1, 2, -7, -9
1503697326273,15, 7, 2, 0, -1, -5, -3, -8
1503697326292,27, 7, 6, 4, 0, -1, -1, 5
1503697326310,-44, -11, -10, -6, 1, -3, 3, -6
1503697326333,-2, -15, -7, -2, -4, 4, 1, 7
1503697326348,-11, -2, -1, 1, 1, -6, -7, -10
1503697326377,-1, -2, -2, -4, -2, 3, 8, -3
1503697326395,-19, 1, 1, 1, 0, -2, -6, 1
1503697326408,-11, -8, -8, -3, 1, -3, 5, 5
1503697326430,15, -5, -1, -1, 0, 4, 4, 3
1503697326452,25, -2, -5, -4, -4, -4, -7, 0
1503697326468,-72, 0, 2, 0, 5, -1, -6, -15
1503697326493,57, 15, 0, 0, 1, 3, 3, 6
1503697326513,20, 0, 6, 4, 4, 2, -1, -2
1503697326528,-52, -2, -1, 0, -1, 0, 0, 9
1503697326550,-22, 0, -1, 0, -1, 0, 3, 6
1503697326573,10, 7, 8, 0, 2, -1, 3, 3
1503697326588,23, 6, 1, 3, -4, 0, 1, 7
1503697326610,-11, -6, 1, -1, -14, -3, -4, -16
1503697326632,-9, -3, 0, 0, 9, -2, -9, -21
1503697326648,-40, 3, 3, -1, 4, 0, 4, 4
1503697326670,3, -1, 0, 2, 7, -1, -10, -10
1503697326694,22, 12, -7, -9, -22, -2, 6, 9
1503697326708,36, 0, -5, 0, -1, 0, 0, -1
1503697326731,-43, -11, -5, 0, -7, -2, -3, -10
1503697326753,3, -12, -6, 0, 4, -1, 3, 5
1503697326768,-20, -11, 3, 5, 1, 0, 1, 7
1503697326790,10, 13, 5, 0, 10, 2, 1, 9
1503697326813,19, -5, -5, -5, -6, -2, -3, -4
1503697326828,23, 3, -2, -1, 0, -3, -4, -5
1503697326850,-2, 1, 1, 2, 12, -1, 0, 0
1503697326873,25, 20, 8, 1, -6, -1, -1, 8
1503697326888,-4, -8, -5, -5, 0, 0, 1, 6
1503697326910,-17, -9, -2, -1, -7, 0, -2, -6
1503697326933,14, 12, 10, 1, -3, 0, 2, 1
1503697326948,-13, -6, -2, -2, -1, -2, -4, -5
1503697326970,-6, -19, -1, -2, -1, 0, -2, 2
1503697326977,4, -15, -13, 0, 2, 1, -5, -5
1503697327008,-3, -5, 1, 1, 1, -1, -2, -3
1503697327031,25, 19, 9, -2, -5, 3, 2, 7
1503697327053,-24, -5, -8, -4, -2, -2, -2, -4
1503697327068,3, -8, -9, 0, -1, 3, 0, 1
1503697327090,-14, -8, -6, -4, 0, -3, 0, -1
1503697327113,-1, -12, 15, 6, -1, 0, 1, 0
1503697327130,3, 3, 11, -1, 11, -3, -3, -4
1503697327150,19, 14, -4, -2, -2, -2, -1, 0
1503697327173,-3, -12, -11, -4, -5, -1, -2, -4
1503697327196,12, 2, 11, 4, 16, -1, 0, 3
1503697327211,-15, -23, -7, -3, -15, -3, -2, -3
1503697327233,0, 0, 2, -2, -4, -2, 0, 2
1503697327255,32, 8, -3, 1, 4, -1, 0, 1
1503697327272,-3, -4, -12, -2, 7, 0, 6, 3
1503697327293,-21, -6, -8, -3, -14, 2, 0, -3
1503697327315,-45, -10, 2, 1, 4, 1, -1, -3
1503697327332,27, 34, 0, 2, 4, 0, 3, 1
1503697327353,-7, -1, 4, -2, -7, -2, -4, -4
1503697327375,-12, -25, -15, -4, -16, -1, -5, -1
1503697327390,2, 8, -2, -2, 2, -2, -2, -1
1503697327420,0, -37, -9, -3, -3, -1, -2, -1
1503697327442,1, -4, -1, 1, 6, -1, -1, -2
1503697327465,-20, -9, 3, 0, -2, 0, 0, 3
1503697327480,-20, -27, -4, -5, -11, -2, -4, -5
1503697327502,22, 21, 5, 4, 9, 1, 8, 6
1503697327525,16, 2, -12, -2, -8, -4, -8, -3
1503697327541,-8, -4, -3, -1, 3, -1, 2, 5
1503697327562,-80, -26, -6, -3, -4, -3, -3, -12
1503697327585,44, 42, 1, 0, 10, -1, -1, -1
1503697327600,25, 35, -5, 1, 3, -2, 1, 9
1503697327622,18, 1, -4, -4, -8, 2, 1, 4
1503697327645,6, -27, 0, 1, -1, -1, -2, -12
1503697327662,-20, -33, 0, -2, -3, -1, -7, -6
1503697327682,21, 1, 5, -2, -1, 2, -1, 3
1503697327705,-21, -25, 4, 1, 7, 3, 1, 1
1503697327720,26, -2, 0, -1, -3, 10, 7, 1
1503697327742,11, 16, -4, -4, -8, 1, 5, 4
1503697327769,-31, -4, -3, -4, 0, -4, 0, -3
1503697327780,-37, -10, -1, -1, -3, -8, 0, 3
1503697327802,33, 11, -1, 0, -16, -5, -4, -7
1503697327825,12, 12, 6, 4, 8, 5, 15, 12
1503697327840,-23, -31, -7, -1, 2, -10, -20, -15
1503697327862,10, 6, -4, -1, 3, -4, -4, 0
1503697327885,-9, 12, 4, -1, -1, -12, -4, -10
1503697327901,-8, 6, 4, 7, -5, 3, -6, -5
1503697327922,-33, -18, -6, -1, 5, -3, -5, -16
1503697327945,12, -4, -8, -6, -1, -3, -3, 0
1503697327960,50, 30, -5, 3, -4, 3, 2, 6
1503697327982,-12, -18, -5, -4, 2, -15, -10, -3
1503697328005,-17, 2, 8, 6, 27, 30, 12, 8
1503697328020,6, 22, 3, 3, -13, -9, -7, -5
1503697328042,-12, -16, -9, 0, 12, 7, 13, 12
1503697328065,18, 0, 6, -6, -8, 0, -1, -5
1503697328080,-26, 23, 4, 1, -10, -7, -12, -20
1503697328097,-10, 10, 9, 1, 3, 17, 12, -9
1503697328124,-36, -6, 4, -2, -5, -8, -6, -2
1503697328133,23, 7, -4, 1, 4, -1, -3, 3
1503697328155,-32, 10, 11, 3, 7, 5, 19, 16
1503697328178,-46, -25, -11, 0, -10, -9, -7, 1
1503697328193,28, 19, -3, -1, 1, 2, 2, 6
1503697328215,-5, -2, 1, 2, 5, 0, 3, -1
1503697328237,-19, 3, 6, -6, -24, 4, -3, -12
1503697328253,8, 22, 14, 4, 11, -2, 0, 25
1503697328275,17, 6, -16, -3, 3, -1, -3, 2
1503697328297,-26, -18, -7, -6, 2, -5, -6, -8
1503697328313,32, 14, 13, 2, -3, -4, -7, -5
1503697328335,-3, 0, 3, 1, -5, 6, 9, 17
1503697328357,-69, -22, -4, 0, -11, -1, -3, -21
1503697328373,1, -22, -2, -2, 11, -3, -4, -11
1503697328395,12, 3, -7, 0, -7, 1, -4, 2
1503697328417,-51, -3, -12, 2, -1, -1, -5, -9
1503697328433,15, -9, -1, -2, -7, -8, -4, -1
1503697328455,20, 0, -5, -8, 13, -11, -3, -12
1503697328478,10, 6, 13, 1, -4, -2, -3, 5
1503697328493,-28, -18, -10, -5, 0, 2, -3, -1
1503697328515,-11, -2, -1, 0, -4, 4, -2, -6
1503697328539,61, 27, 1, 1, 9, 6, 5, 7
1503697328553,-3, -4, -9, -2, 22, -7, 0, -5
1503697328567,-19, 1, 1, 0, 7, 3, -1, 0
1503697328582,-9, -1, 6, 2, 2, -1, -3, -6
1503697328606,-4, -5, 3, -3, -18, -3, -2, -5
1503697328627,6, 7, -1, -1, 4, 0, -3, -2
1503697328643,-8, 9, -2, -3, -4, -2, -1, -2
1503697328665,25, 2, -7, 2, 8, 2, 2, 1
1503697328687,-10, -7, -9, -4, -3, 0, 2, 0
1503697328702,9, -5, -8, -3, 1, 1, -1, 4
1503697328725,12, -1, -3, -2, 2, -1, 0, 3
1503697328747,4, 13, 21, 1, 9, -1, 2, 1
1503697328762,-5, -17, -7, -2, -31, -1, 4, 2
1503697328785,-10, -2, -2, 0, 2, -1, -2, -4
1503697328809,13, 0, -4, -1, 15, 4, 2, 0
1503697328822,20, 6, 0, 3, 1, 1, 2, 2
1503697328845,-18, 6, 6, 1, -2, -1, -1, 1
1503697328867,1, -2, -12, 0, -1, 2, -1, -4
1503697328883,14, -5, 5, 1, -1, -3, -2, -3
1503697328905,-9, -3, -6, 0, 1, -6, -7, -2
1503697328927,14, -4, -5, -2, -8, -5, -7, -4
1503697328942,-11, -2, 3, 0, -3, -1, 0, -4
1503697328965,13, -2, 1, 2, 18, 1, -2, 0
1503697328986,-22, -2, -2, -2, -2, 2, 3, 3
1503697328995,31, 4, 14, 0, -8, 2, 4, 8
1503697329018,3, -7, 3, 1, -5, -6, -5, -7
1503697329033,6, 8, -6, -1, 6, 2, 1, 4
1503697329055,-19, -5, -6, -4, -1, -2, -2, -5
1503697329077,-47, -9, 0, 1, 5, -3, -8, -14
1503697329100,0, -6, 1, -2, -7, -2, 1, 6
1503697329115,-5, 1, -3, 2, 1, 0, -2, -3
1503697329137,15, -1, 3, 1, -1, -1, 2, 5
1503697329160,3, -16, -7, -1, -6, -2, 0, 1
1503697329177,-27, -5, -7, -6, -6, -1, -4, -7
1503697329197,-3, 2, 2, -2, 0, 1, 3, 1
1503697329220,-18, -8, -7, -1, 3, 3, 2, -4
1503697329235,22, 8, 2, 1, 5, 2, 7, 8
1503697329257,20, 4, 2, 1, -7, -3, -3, -3
1503697329280,24, -1, 0, 0, 1, -2, -2, 1
1503697329295,34, 5, -3, -4, -6, -5, 1, 5
1503697329317,-6, 1, 2, -2, 3, 0, 2, -1
1503697329340,10, -1, 3, 0, -3, -3, -4, 0
1503697329355,-35, -9, -5, 1, 4, 1, 4, 7
1503697329379,-20, -2, 3, 2, 3, 5, 3, -10
1503697329400,-13, 0, -2, -1, 1, 1, -1, -1
1503697329415,-11, -6, 1, -1, -4, -3, -1, 12
1503697329437,15, 0, 0, -2, 1, -2, -4, -5
1503697329460,-12, -12, -10, 0, 2, -1, -3, 8
1503697329475,31, 13, 0, -1, 3, 0, -3, 0
1503697329497,8, 6, 1, 1, -5, -5, -10, -7
1503697329520,16, -1, -4, 0, 1, -2, 1, -14
1503697329535,-44, 3, -6, -3, -3, -2, -4, -5
1503697329557,42, 0, 4, 0, 2, 2, 5, 6
1503697329580,14, 8, 2, 0, -1, -2, -2, -8
1503697329595,-17, 2, 4, -3, -6, 1, -4, 3
1503697329617,-43, -13, -2, 0, -1, -3, 3, 0
1503697329640,27, 2, 1, -1, -1, 1, -2, 4
1503697329655,-18, -2, 0, -1, 6, -1, 3, 6
1503697329677,-4, -2, -2, -4, -6, -1, 2, -2
1503697329700,0, -8, -2, 0, -1, 3, 4, -10
1503697329717,15, -2, -1, 1, -2, -1, -3, -2
1503697329737,-28, -11, -7, -3, -7, -4, -1, -3
1503697329761,-7, 1, 3, -1, 2, 0, -6, -11
1503697329776,37, 13, 9, 4, 15, -1, -4, -3
1503697329798,-16, -13, -9, -3, -4, 1, -1, 5
1503697329822,-14, -3, -1, -2, -1, -2, 2, -1
1503697329835,39, 11, 2, 0, -19, -1, 3, 9
1503697329857,11, 10, 5, 2, 6, -2, -4, -1
1503697329882,-3, 8, 8, 0, -4, 1, 0, 4
1503697329898,26, 8, 0, -1, -4, 2, 5, 10
1503697329917,-29, -4, 3, -1, 7, 1, -1, -3
1503697329940,25, 12, 15, 1, 1, 1, 3, 3
1503697329956,-21, -8, -1, 0, 9, -2, -2, -4
1503697330027,3, 2, -3, 0, -7, -1, 0, 3
1503697330040,-20, -10, -6, -1, 2, 1, -3, -4
1503697330060,12, -10, -7, -2, -2, -5, -3, -4
1503697330084,-11, -14, -13, -5, -3, -3, -4, -5
1503697330099,1, 7, -9, -1, 3, 1, -1, 0
1503697330120,-20, -15, -7, -5, 3, -5, -6, -10
1503697330143,-23, 3, -2, 0, 1, 1, 2, -1
1503697330172,38, 4, 5, -1, -5, -1, 1, 3
1503697330188,-5, 2, -7, -2, -2, -1, 0, -2
1503697330211,-17, -1, 0, -1, -3, -2, -1, -3
1503697330231,9, 7, 7, 0, -2, 0, -2, -2
1503697330248,-10, 5, 0, -1, -1, 1, -2, 2
1503697330269,19, 1, -5, -2, -1, -1, -3, -1
1503697330292,-5, -6, -3, 0, 0, -2, 0, 2
1503697330307,-12, 5, 4, 0, -1, 0, -2, -2
1503697330329,19, -8, -3, 0, 0, 0, -1, 3
1503697330357,-31, -8, -3, -2, -3, 1, 0, -3
1503697330373,5, -5, -4, -1, 6, -1, -6, 1
1503697330389,-32, -12, -5, -1, -4, -3, -4, -7
1503697330412,4, -3, -5, 0, 3, -1, 4, -1
1503697330428,8, 7, 2, 1, 2, -1, -2, -2
1503697330442,-41, -15, -3, -1, 4, -3, -4, -7
1503697330457,33, 26, 2, -4, 7, -3, -1, 0
1503697330480,-16, -9, -3, -1, -6, 0, 2, -2
1503697330502,18, -13, 2, -2, -5, 2, -1, 6
1503697330517,20, 7, 9, 5, -6, -1, -4, -2
1503697330542,-1, 7, 0, 2, -2, 0, 0, -1
1503697330562,-24, -13, -10, 0, -4, 0, 2, -2
1503697330577,-25, -17, -3, -2, 4, -1, -3, -5
1503697330600,3, 2, -2, -2, 9, 1, 1, 1
1503697330622,-5, -2, -9, -2, -4, 1, 1, -1
1503697330630,-1, -6, -1, -2, 0, -2, -2, 3
1503697330656,-4, 7, 0, -1, 1, -1, -3, -1
1503697330675,5, -1, -1, -4, -6, -2, 2, 4
1503697330690,-13, -9, 1, 2, 2, 0, 0, -2
1503697330699,4, -4, 2, 1, 0, 0, -1, -1
1503697330723,9, 20, 9, 0, -2, -1, 3, 0
1503697330748,8, -3, -8, 0, -1, 0, -2, 4
1503697330761,15, -4, -3, -5, -3, -2, -5, -6
1503697330780,13, -1, 3, -2, -1, 1, -2, 3
1503697330802,-38, -2, 6, 0, -2, -3, -5, -5
1503697330817,26, 2, 0, 0, 2, 0, 0, 1
1503697330840,-2, -6, -8, -2, -5, -2, -2, 1
1503697330862,-12, 12, 6, 4, -1, 2, 6, 3
1503697330877,9, 3, 1, -4, -6, -4, -3, 0
1503697330900,-29, -6, -1, 3, 7, 1, 3, 0
1503697330924,-27, -11, -6, -4, -3, -3, -1, -5
1503697330945,19, -1, -3, -3, -1, 0, 2, 4
1503697330961,-30, -6, -3, 3, 2, -2, -4, -5
1503697330984,-25, -15, -4, -1, 0, 0, -10, -11
1503697330995,-1, 2, -1, 0, -3, -8, -3, 2
1503697331013,-15, -5, -2, -3, -7, -5, 2, -1
1503697331035,-12, -10, -6, 2, 11, -5, 2, -3
1503697331042,-2, 3, -1, -5, -12, -2, -5, -5
1503697331066,-3, 3, 2, 0, -2, 0, 3, 2
1503697331080,-16, -3, 7, 2, -1, -14, -4, -1
1503697331105,8, 5, -3, 1, 1, 5, 5, -2
1503697331125,-3, -1, -5, -3, -5, -8, -4, -6
1503697331141,-3, 17, -2, -1, -6, -8, 1, 7
1503697331163,23, 0, 1, 0, 12, 5, -2, -3
1503697331185,-10, -13, -3, 0, -6, 4, -4, -2
1503697331201,72, 12, -1, -2, 2, -4, 8, 14
1503697331231,-42, -5, 3, -1, -4, 0, -3, -4
1503697331245,-3, -2, -6, 2, 0, 2, -3, -7
1503697331261,-16, -5, -4, -1, 1, 9, -2, -6
1503697331282,54, 11, 0, 0, -2, -3, -8, -1
1503697331305,-12, 20, 1, 0, 0, -3, -1, -5
1503697331339,-5, 0, 10, 1, 4, 3, 3, 5
1503697331351,-21, -1, -4, -4, -4, -6, -6, -9
1503697331373,-32, 8, 1, 2, -2, 1, 0, 3
1503697331396,18, -1, -4, -2, -2, 6, 0, 2
1503697331411,11, 11, 0, 0, -1, -4, 2, 3
1503697331433,40, 4, 2, 1, -3, 0, 2, 8
1503697331441,13, -8, -5, -2, -3, -6, -9, -2
1503697331463,13, -4, -5, -3, -3, 0, 5, 0
1503697331485,-21, 4, -6, -8, 0, -8, 1, -1
1503697331504,23, -7, 0, 2, -7, 3, -2, 4
1503697331522,57, 23, 2, 0, 0, 2, 6, 9
1503697331545,3, -6, 4, 0, 2, 4, -2, 1
1503697331560,-5, 1, 1, 1, 0, 0, -1, 5
1503697331582,-26, -6, 0, -1, -2, -1, 2, -6
1503697331605,-31, -8, -9, -2, -5, -5, -5, -5
1503697331641,-15, 0, 3, 1, 1, -1, 1, 1
1503697331646,-16, -16, -6, -1, -3, -1, 0, -4
1503697331665,-25, 2, 4, 4, 14, 3, 1, -1
1503697331680,25, 2, 0, -2, -20, -12, -10, -1
1503697331703,1, -1, -1, -1, 1, -5, -6, -8
1503697331725,-66, -23, -3, 0, 3, 2, 2, -6
1503697331734,-14, -2, 4, 2, 3, 3, -3, -1
1503697331756,27, 6, 2, -4, 2, -3, -2, -1
1503697331771,29, 7, 8, 0, -6, -5, -4, -2
1503697331796,14, 4, -1, 2, -4, -1, 0, 1
1503697331815,-13, -1, -2, -1, -7, 0, 3, 2
1503697331830,38, 10, -2, 1, 6, -4, -3, -1
1503697331853,-33, -12, -6, -5, -9, -3, 1, 1
1503697331869,-11, 0, -2, -3, -4, -9, -5, -3
1503697331884,-14, -5, 5, -3, -4, 2, -2, -2
1503697331905,10, 17, 5, -1, 0, -3, -2, 3
1503697331913,1, -1, -2, 0, -1, 1, 1, 1
1503697331935,-15, -13, -8, 0, -2, 2, -3, 0
1503697331964,-1, 6, 0, -1, -11, -4, -1, -6
1503697331973,4, -5, 1, 3, 0, -8, 0, 1
1503697331989,9, 5, 5, 0, 2, 2, 1, -1
1503697332002,10, 0, 0, 0, 2, 0, 0, -3
1503697332025,-5, -5, -3, -2, 0, 0, -2, -5
1503697332048,17, 4, -8, -1, 4, -1, -3, 1
1503697332077,-15, 1, -3, -1, 1, 1, -1, -1
1503697332093,9, -3, -4, -3, 0, -1, -3, -3
1503697332126,-16, -11, -3, -2, -1, -2, 0, 0
1503697332145,11, -6, -1, -2, -9, 1, -2, -3
1503697332167,28, 5, -1, -1, -1, -1, 0, 4
1503697332182,4, 4, 5, 1, 2, 0, -4, -4
1503697332208,-26, -7, -2, -1, 1, 2, 3, 0
1503697332228,-6, -7, -1, 1, 1, -2, 3, 0
1503697332247,-39, -11, -10, -7, 2, 0, -4, -10
1503697332266,-13, 1, 1, 3, -2, 1, -2, -3
1503697332289,17, 9, 3, 0, 0, -1, -1, 3
1503697332317,10, 4, 9, 1, 1, 3, 2, 0
1503697332335,-2, -2, 3, -1, -3, -7, -3, 2
1503697332369,25, 3, -1, -1, -3, 0, -1, -2
1503697332385,24, 1, 0, 0, 0, 3, 0, 0
1503697332410,-7, -3, 3, 0, 4, 2, 4, 2
1503697332423,-21, 4, -2, 4, 1, 0, 5, 5
1503697332445,50, 7, -5, -5, -2, 10, -5, 3
1503697332468,-23, -4, 1, 1, 0, -5, 0, 1
1503697332482,18, 11, 3, -1, -8, -5, -6, -3
1503697332512,10, 1, -1, 0, 0, 1, 0, 0
1503697332527,33, -2, -5, 2, 8, -3, -1, -2
1503697332542,-20, -8, -2, -2, -2, -1, 2, 0
1503697332565,-11, 1, 0, -2, -3, -4, 1, 4
1503697332587,23, -3, -3, -3, -4, -1, -7, 6
1503697332603,-20, -6, -3, 0, 2, 0, -6, -7
1503697332625,-16, 1, 4, 1, -1, -3, -2, -8
1503697332647,-39, -6, -2, 0, -21, 8, -3, -7
1503697332662,-13, -5, 2, -3, -3, -11, -4, -10
1503697332684,-28, 1, -1, 1, 1, -1, 5, 1
1503697332707,-34, -7, -1, 0, 6, 3, -2, -3
1503697332722,37, 4, -4, -2, 1, 1, 2, 1
1503697332745,-15, -1, 3, 5, 3, 0, 8, 3
1503697332770,-4, 0, -3, -4, 4, 3, 0, 5
1503697332789,4, -2, 0, 1, 3, -1, -3, -12
1503697332820,-16, -1, 0, 1, -9, 1, 6, 6
1503697332838,-19, 1, -5, -2, -6, -2, -1, -1
1503697332859,57, 11, 2, 0, 4, 0, 2, 1
1503697332887,28, 13, 4, 1, 10, -5, 2, 9
1503697332941,9, 0, 0, 0, 2, 1, 1, 1
1503697332957,-28, -4, -2, -2, -1, -4, -3, -9
1503697332978,4, 0, -2, -3, -3, -1, -3, 2
1503697333004,24, -1, -1, 0, 1, 1, 1, 1
1503697333016,26, 1, -3, 2, 1, 0, 3, 2
1503697333040,-13, 6, 6, 1, -2, 1, -2, 9
1503697333063,-72, -11, -1, 1, 4, 1, -3, -7
1503697333075,14, -2, 1, 1, -3, 2, 8, 4
1503697333100,-8, -2, -1, -2, -1, 0, -5, -5
1503697333120,-3, 0, 0, 0, -9, -1, 2, 1
1503697333138,-27, -8, -2, 0, -2, -4, -6, -8
1503697333158,-70, -5, 3, 1, 1, -2, -6, -14
1503697333181,35, 7, 1, 0, -21, 2, 1, 4
1503697333195,12, 2, -7, -3, 1, -2, -2, 2
1503697333218,11, -6, -7, -5, 9, -2, -1, 1
1503697333241,2, -6, -3, -2, -12, -2, 6, 6
1503697333257,26, 2, 0, -3, 18, 2, 0, -2
1503697333279,5, -2, 4, 1, -25, 1, -1, -4
1503697333299,-9, -2, 1, 0, -5, 1, 6, 2
1503697333308,1, -2, 0, 0, 8, 4, 7, 8
1503697333330,23, 0, -1, -2, -30, -1, -3, -4
1503697333345,-11, -5, -3, -3, 0, -5, -2, -2
1503697333367,8, -1, -1, 1, 3, -1, 0, -1
1503697333390,23, 1, 1, -2, 9, 1, 3, 9
1503697333407,13, 6, 0, 2, -4, 3, 2, 7
1503697333420,-31, 1, -1, 1, -3, 0, -2, -5
1503697333435,-2, 4, 1, -2, -17, -2, -3, -4
1503697333458,3, 1, 2, 0, 6, -2, -2, -1
1503697333485,-48, -10, -9, -3, -7, -1, 0, -14
1503697333495,12, 3, 0, 0, 15, 0, 1, 5
1503697333517,32, 7, -2, -2, -20, -2, -1, 6
1503697333525,8, 7, -2, -1, -9, -4, 1, 3
1503697333547,-23, -3, -2, -2, -18, -2, -1, -3
1503697333570,12, -8, -3, 0, 15, 1, -3, -2
1503697333587,21, -1, 1, 2, -12, 0, -1, 3
1503697333611,-6, 2, 1, -1, -2, -1, -2, 1
1503697333630,-5, 1, 0, 1, 4, 2, 2, -1
1503697333650,-8, -6, -1, -2, 4, -1, -1, 0
1503697333667,-2, 1, -1, 0, 17, 2, -2, -5
1503697333693,-13, -8, -1, 0, -4, -3, -3, -4
1503697333711,2, -2, -3, -2, -5, 0, -1, 2
1503697333720,-7, -4, 0, -3, -9, -4, -5, -3
1503697333743,-19, -6, -5, 0, -3, -1, 1, -1
1503697333758,-4, 0, -5, -2, -4, -1, -3, -2
1503697333780,3, 6, 9, 1, 7, 1, -1, -2
1503697333802,14, 4, -1, 3, 4, -1, -3, -1
1503697333819,25, -5, -5, -2, 13, 3, 0, 2
1503697333843,15, 0, -4, -3, -29, 0, 0, -2
1503697333862,-12, 7, 5, 0, 2, 0, -1, -2
1503697333878,-21, -12, -5, -4, -4, -1, -1, -3
1503697333900,-19, -2, -2, -1, -5, -1, -1, -3
1503697333922,-8, 2, -2, 1, 13, 1, 0, 0
1503697333938,-8, -5, -5, -2, 3, 1, 2, -3
1503697333960,13, 4, -1, -1, 3, -2, -1, 2
1503697334010,13, -3, -11, -6, -14, -1, 1, 1
1503697334021,-2, 2, -1, -2, 1, -3, -2, -2
1503697334049,-15, -7, 0, 1, -16, -1, 0, -1
1503697334058,-26, -5, 2, -1, -3, 1, 1, 4
1503697334080,0, 5, 4, -1, 1, 0, -2, -1
1503697334102,-11, -9, -6, -1, -6, -2, -2, -2
1503697334121,19, 2, 1, 0, 12, -1, -4, -1
1503697334152,-7, 0, 1, 4, 0, -1, 1, 0
1503697334170,-5, -14, -3, 0, -3, -1, -5, -3
1503697334191,11, 1, 3, 1, -3, 1, 1, 2
1503697334208,-22, -22, -12, -6, -3, -4, 0, -5
1503697334230,1, -2, 0, -1, 4, -1, 1, -4
1503697334251,-19, 12, 3, 5, -1, -2, -2, -1
1503697334267,9, 16, 1, -4, -4, -4, -6, 1
1503697334289,10, 1, -2, -3, -1, 0, 0, 1
1503697334319,-7, 3, -11, -3, 2, -2, -3, 2
1503697334322,11, 1, -1, -2, 7, -1, -1, -4
1503697334342,18, 11, -6, -4, 2, -3, 0, 5
1503697334357,-37, -18, 0, 7, -18, 1, 2, -3
1503697334384,4, 1, 2, 1, 6, -1, 4, -1
1503697334417,13, 11, 4, 0, 3, 2, 2, 4
1503697334431,-12, -8, -1, -1, 3, -2, -3, -1
1503697334457,8, -4, -1, -3, -4, -2, -2, -2
1503697334470,14, -2, -2, -3, -7, -4, -3, -3
1503697334491,-11, 1, 0, 1, 4, 4, 6, 2
1503697334507,27, 10, 2, -4, 2, 0, -1, 1
1503697334529,-41, -13, -2, 0, 0, 0, -1, -3
1503697334537,17, 7, 1, 0, -1, -1, -2, 2
1503697334560,1, 7, -2, -2, -2, 7, -4, -10
1503697334583,-4, -4, -9, -7, -5, -7, 3, 1
1503697334598,1, -19, 1, -2, -7, 0, -4, 2
1503697334620,-9, -3, -1, -1, -3, -4, -3, -2
1503697334643,-24, -14, -3, -4, 1, -2, 1, -4
1503697334650,1, 0, -4, -8, -3, -4, -1, 3
1503697334671,25, 10, 4, -1, -7, 4, 3, 1
1503697334694,5, 3, 1, 0, 2, -1, -3, 1
1503697334710,-27, -15, -6, -8, -5, 2, -8, -12
1503697334731,33, 9, 3, 5, -2, 1, 1, 2
1503697334755,-11, -20, -10, -1, 1, 4, -7, -8
1503697334770,-26, -4, -5, -3, 7, -6, 1, 0
1503697334791,-29, 2, 0, 3, 0, -5, 4, -6
1503697334816,-24, -6, 1, -2, -3, -1, -1, -13
1503697334835,15, 6, -1, 2, -1, 2, 2, 9
1503697334851,26, 37, -2, 0, -6, 0, 0, 5
1503697334874,-1, -12, -4, -3, -1, -1, -1, 4
1503697334890,28, 13, 6, 4, 1, 11, 5, 5
1503697334911,-4, -6, 0, -5, 2, -5, -4, 6
1503697334934,2, 2, -2, -1, -1, -5, -5, -9
1503697334951,16, 5, -2, 0, 3, -2, -3, 3
1503697334972,0, -8, 5, 2, -5, -3, 0, 3
1503697334994,-17, -26, -5, -1, 4, 8, 5, 1
1503697335010,12, 4, -1, 2, -4, -4, -7, -9
1503697335032,3, -12, 1, 1, 1, -5, -4, 1
1503697335054,-15, -1, 1, 0, -2, 0, 2, -1
1503697335069,-7, -11, -9, -3, -1, -4, -2, -3
1503697335091,7, 2, 2, 0, 0, -4, -1, 0
1503697335114,-16, 0, -1, -3, -6, -3, -4, -5
1503697335123,19, 4, 0, 0, 0, 2, 2, 2
1503697335145,-24, -9, -6, -1, -7, -1, -2, -5
1503697335160,-28, -9, -5, -2, 0, 1, 1, -3
1503697335182,-15, -10, -2, -4, -2, 1, -4, -7
1503697335205,14, 10, 0, 1, 2, 0, 0, 1
1503697335221,-24, -12, -3, -1, 0, 0, -4, -4
1503697335242,30, -1, 2, 1, -3, -5, -3, 1
1503697335265,11, 4, -5, -5, 6, -3, -2, -3
1503697335280,-5, -2, 3, 0, -5, 0, 1, -4
1503697335302,-9, -13, -4, 0, -2, -6, -4, -1
1503697335326,29, 14, 1, -1, -5, -4, 3, 3
1503697335339,13, 1, -2, -1, -1, 0, 0, 1
1503697335355,4, 0, 4, 0, -2, 1, 1, 4
1503697335369,-40, -10, -6, -2, -4, -1, 2, -1
1503697335391,-27, -1, -1, 1, 4, 4, 0, -1
1503697335414,-19, -7, -3, -2, -2, -6, -4, -2
1503697335430,10, 2, -6, -2, -1, -2, -4, -3
1503697335445,-6, -8, -1, 0, 5, 2, 1, 5
1503697335460,-29, -8, -4, -4, -8, -1, -2, -3
1503697335482,10, 3, 2, 1, 8, 3, 1, 2
1503697335505,-22, -11, -4, -3, -9, -1, 0, -5
1503697335520,11, 4, 0, -2, -6, -3, 0, -1
1503697335542,-7, 1, 1, 1, 0, 1, 4, 1
1503697335564,5, -1, -5, -2, 0, -2, -2, -2
1503697335572,17, -7, 1, 2, 2, 4, 5, 2
1503697335594,8, -8, -2, 1, -2, 0, 2, -3
1503697335616,-9, -1, -1, -2, -2, 0, -2, -5
1503697335632,4, 3, 1, -1, 1, 0, -1, 2
1503697335657,-10, -5, 0, -1, 1, -2, 0, -3
1503697335662,20, 9, 0, -1, 6, 1, 0, 0
1503697335684,2, -5, -4, -2, 0, -2, 0, 4
1503697335735,1, -2, 1, -1, 0, 0, 0, 1
1503697335756,29, 4, -3, 0, 1, -2, -2, 4
1503697335780,1, -1, 0, -3, -7, -2, -2, 1
1503697335783,-32, -9, 0, -1, -4, -3, -1, -3
1503697335807,-6, -4, -7, -1, -1, 2, 1, -2
1503697335827,-5, 2, 4, 0, -2, -2, -2, -3
1503697335842,-20, -9, -4, -4, 0, -2, -2, -2
1503697335866,12, 1, -3, -3, -5, -2, 0, 3
1503697335887,24, 7, 2, 0, 1, 1, -1, -2
1503697335902,-11, 1, 3, 2, -5, -2, 0, -1
1503697335934,16, 1, -7, -3, -3, 7, -3, -1
1503697335948,-5, -4, 1, 0, -1, -6, -5, -8
1503697335962,-2, -5, 0, 0, 1, 1, 4, -1
1503697335985,-10, 1, 0, -2, 0, 0, -2, 1
1503697336007,6, -1, 0, 1, 2, 0, -1, 3
1503697336022,22, 5, 0, -2, 1, -3, 0, 0
1503697336044,-23, -3, 2, 0, -1, -1, -1, -5
1503697336067,6, -1, 0, 2, 5, 0, 1, 4
1503697336083,-17, -5, -3, 0, 0, 0, 0, -2
1503697336104,41, 6, -2, -1, -6, -3, -4, 2
1503697336128,15, 5, 4, 1, -2, -3, -1, -3
1503697336142,-43, -6, -1, 0, -6, -2, 1, 3
1503697336164,7, -2, 1, 0, -1, 0, 1, 1
1503697336185,4, 1, -4, -2, 5, -2, 3, 0
1503697336198,-23, -7, -4, -1, -6, 6, 0, -2
1503697336219,27, 5, 5, -1, -7, -7, -4, 1
1503697336240,-17, -6, -2, -2, -3, -3, -4, -5
1503697336255,16, 3, -4, -1, -2, -3, -3, -2
1503697336277,-31, -7, 0, 0, 1, -3, -7, -10
1503697336300,5, 0, 0, 1, -3, 1, 0, 1
1503697336315,-27, -4, -3, 1, 9, 1, 4, -1
1503697336339,19, -1, -4, 0, -4, -2, -4, 2
1503697336362,6, -1, -2, -1, -2, 1, -1, 0
1503697336375,-38, -9, -4, -1, 0, -2, 1, 1
1503697336398,8, 0, -5, -6, -4, -7, -6, -4
1503697336420,-23, -5, 1, -3, -3, 1, -1, -5
1503697336435,27, 8, 7, 2, 2, 2, 2, 1
1503697336457,9, 0, 0, 1, 4, 3, 2, 0
1503697336480,1, 2, -3, -2, 0, -2, -2, 2
1503697336496,-15, 3, 4, 2, -16, -4, 0, -2
1503697336517,-5, -1, 4, 0, -6, 1, -5, -11
1503697336540,-23, -3, -2, -2, 2, -4, -5, 2
1503697336555,-13, 4, -3, -1, 3, -2, 0, -1
1503697336577,20, -11, -4, 1, 22, 3, 3, 3
1503697336602,25, -2, -10, -4, -9, -3, -2, 0
1503697336623,35, 7, 1, -1, 0, -2, 3, -1
1503697336644,-35, -1, -1, -3, -5, -1, -1, -12
1503697336663,-3, -8, -4, -1, 0, 3, 4, 8
1503697336675,24, -6, -4, -1, -2, -1, 5, 7
1503697336697,2, 6, 4, 1, -5, -4, -5, 0
1503697336720,-47, -5, -7, -3, 2, 0, -6, -6
1503697336736,49, 10, 6, 1, 3, -2, -4, -5
1503697336758,-19, -10, -8, -3, 0, -3, 0, 1
1503697336780,-13, 7, 4, 3, 0, 0, 0, -5
1503697336798,-7, -10, 1, 1, -2, 3, 11, 4
1503697336817,37, 1, 2, -2, -2, -2, -10, -9
1503697336840,-3, 6, 4, 0, 0, -2, 0, -1
1503697336855,-9, -4, -5, -3, -3, -2, 4, -8
1503697336878,-19, -3, 1, -2, -5, 2, -3, 1
1503697336901,18, -9, -1, -3, 0, -1, -1, 4
1503697336915,3, 3, -2, 0, -4, -1, -5, -6
1503697336938,18, 1, -5, -1, 0, 0, 0, 18
1503697336960,18, -3, -4, -1, 2, 5, 6, 13
1503697336975,-16, 6, 2, -4, -2, -2, 4, -1
1503697337001,-16, -7, -3, 1, 8, 1, 3, -8
1503697337020,11, -1, -1, 0, -7, -6, -1, 10
1503697337035,-12, 0, -3, -2, 15, 0, -1, -7
1503697337057,6, -1, -1, 1, -11, -1, -9, -9
1503697337080,-10, -2, 0, -1, -10, 1, -3, 1
1503697337095,-9, 6, -3, -1, 4, 0, 0, 2
1503697337117,-4, -2, 0, -1, -4, -2, -5, -9
1503697337125,-21, -4, -5, -2, 0, 0, 3, 5
1503697337147,-17, -6, -8, -2, 0, -2, -1, 7
1503697337170,-38, -5, -3, -1, 3, -2, -1, -2
1503697337184,0, -15, -9, -2, -7, -3, -2, -7
1503697337208,2, 5, -1, -2, 0, 0, -2, 1
1503697337229,-45, -2, -3, 2, 1, -5, -7, -11
1503697337244,-2, -1, 2, 2, -1, 2, -3, -6
1503697337275,-34, -1, -3, -1, -5, 0, 1, -1
1503697337301,25, -3, -8, -2, -1, 1, -3, -3
1503697337320,-11, -8, 1, -2, -6, 0, -3, -4
1503697337327,-18, -5, -5, -2, -4, -3, -4, -11
1503697337349,60, 12, 6, 3, -11, 1, 4, 7
1503697337364,-6, -4, -2, -2, 1, -1, 0, 2
1503697337388,-16, 1, -6, -3, -5, -3, -2, 1
1503697337410,-3, -1, -1, -1, -2, 0, 2, 1
1503697337424,8, -2, -2, -1, 1, 0, 2, 3
1503697337447,16, 19, 9, 0, -9, 2, -1, 2
1503697337471,39, 0, 2, 2, 3, 0, 0, 10
1503697337479,37, 7, 6, 2, 0, 2, 3, 5
1503697337502,40, 6, -4, -1, -2, 0, 2, 6
1503697337522,-19, 2, -4, -3, -3, -4, -4, -7
1503697337538,-3, 6, 6, -1, 1, -2, -4, -6
1503697337560,-20, 0, -1, 1, -2, -3, -6, -8
1503697337582,-4, -5, -1, -1, 2, 2, 2, -2
1503697337597,-9, -7, -6, -3, -5, -4, -4, 3
1503697337620,-11, -4, 2, 0, -3, 3, 0, 1
1503697337642,-19, -5, -5, -2, 0, -1, -1, -7
1503697337658,19, 14, 0, 2, -1, 0, 3, 1
1503697337680,-26, -9, -4, -5, -4, -3, -3, -5
1503697337703,1, 9, -2, -1, -1, -3, 1, 4
1503697337717,-27, -19, -4, 0, -3, -3, 0, -1
1503697337740,28, 7, 3, -1, 0, -2, -3, -1
1503697337762,24, 6, 0, -2, 1, 3, 0, 3
1503697337777,-19, -12, -10, 0, 0, 1, 0, 1
1503697337800,2, -4, 8, 1, -1, -1, -2, -1
1503697337822,-11, -5, 2, -1, -1, -1, -2, -2
1503697337838,-24, -3, -4, -5, -1, -2, -4, -9
1503697337860,6, -3, 3, 0, 5, 1, 2, -1
1503697337889,-26, 1, 1, -1, -12, -1, -2, -3
1503697337897,2, -7, 1, 0, -2, -1, -2, 1
1503697337920,-22, 5, 8, 0, 1, -2, 2, -2
1503697337942,-3, -3, -10, -1, 0, 0, 1, -2
1503697337957,11, 11, 19, 4, 1, -2, -1, 0
1503697337980,27, 8, -4, -1, -1, 0, -1, -1
1503697338002,24, 2, 5, 1, 1, 2, 4, 8
1503697338017,0, 1, -7, -1, 6, -3, -3, 2
1503697338042,-13, -14, -5, -1, -3, 0, -1, -4
1503697338062,29, 11, 5, 0, 1, -1, 0, -2
1503697338078,-5, -9, -15, -3, -4, 1, 1, 1
1503697338100,-46, -18, -6, -1, 1, 0, 0, 4
1503697338122,8, -8, -7, -1, 13, 0, 0, -1
1503697338139,-6, 16, 1, -3, -6, 0, -1, -2
1503697338160,10, 19, 2, -2, -8, -1, -1, -5
1503697338182,1, 13, 11, 2, 0, -1, -3, -2
1503697338197,-6, -15, -6, -2, 0, 0, -4, -4
1503697338220,9, -2, 2, 1, 0, -1, -1, 1
1503697338242,-21, -10, -2, 0, -2, -2, -1, -2
1503697338258,-25, -4, -6, -3, -2, -1, 0, -1
1503697338281,-31, -8, -14, -4, -2, -2, -2, -4
1503697338302,-9, -10, -6, 0, 0, -1, -1, -9
1503697338317,-11, -5, -1, -3, -1, -2, -4, -1
1503697338341,-5, -9, 6, 1, -3, 1, -2, 0
1503697338362,34, 14, -5, -1, -2, 3, 3, 4
1503697338384,55, 3, 4, 0, 0, 1, 1, 4
1503697338400,41, 28, 1, 1, 0, 2, -2, 1
1503697338422,-5, -6, -3, 0, 0, -4, 5, 6
1503697338444,-31, -7, -1, -1, -3, -2, -6, -12
1503697338460,-6, -5, 7, 1, 0, -1, 0, 0
1503697338482,-42, -8, -1, 1, 0, -1, -5, -15
1503697338504,3, 5, -8, -3, -1, -1, 1, 2
1503697338520,8, 0, -6, -2, -2, 0, 4, 7
1503697338542,15, -3, 4, -1, 0, 3, 5, 2
1503697338564,25, 2, 2, 1, 1, 0, 2, 5
1503697338580,45, 15, 9, 4, 1, 0, 0, 4
1503697338594,28, 2, -7, -2, 0, 1, 0, 15
1503697338610,-30, 0, 1, 0, 2, 0, -1, -4
1503697338632,-13, 12, -2, 1, -1, 8, 0, 2
1503697338654,25, 6, -5, -1, 4, -2, -3, -6
1503697338669,-4, -1, -3, -1, 0, -3, 1, 3
1503697338692,-15, -5, -1, -2, -1, -1, 0, -4
1503697338714,-4, -7, 2, -2, -3, 0, 2, 16
1503697338729,21, 1, 2, 1, -3, -2, 0, -1
1503697338753,-24, -5, -4, 0, 1, -2, -4, -12
1503697338774,-22, -12, -2, -3, -4, -1, 3, 0
1503697338789,-34, 1, -1, -1, -1, -3, -6, -9
1503697338812,1, 2, -4, 0, -2, -3, 3, 1
1503697338834,-6, 4, 1, 1, 1, -3, 0, -1
1503697338849,-29, -10, -5, -3, -3, -9, -15, -5
1503697338872,28, 6, -1, -3, -1, 2, 7, 6
1503697338894,-8, -8, 2, 0, -1, 8, 3, 2
1503697338911,12, 0, 2, 2, 2, 5, -3, -8
1503697338924,-37, 7, 18, 1, -4, -1, -1, -8
1503697338940,20, -4, -10, -5, -3, 0, -1, 4
1503697338962,64, 7, -4, -1, 1, 7, 4, 5
1503697338984,-55, -21, 0, -1, -1, -4, -6, -6
1503697339000,53, 4, -2, 0, 2, 3, 1, 8
1503697339022,2, 2, -2, -2, -1, -1, 3, 5
1503697339047,-7, -2, 0, -1, 2, 7, -1, 12
1503697339060,18, 4, -3, -4, -4, -8, -2, -12
1503697339082,23, 7, 4, 5, 1, 3, 0, 1
1503697339104,-32, -11, -5, -1, -1, -1, -3, 0
1503697339121,-1, -6, -7, -1, 7, 1, 1, 3
1503697339142,39, 3, -2, -1, -5, 0, 7, 41
1503697339165,43, 8, -3, -3, -4, -5, -1, -6
1503697339172,38, 6, -7, 1, 0, 0, -2, 0
1503697339193,31, 9, 2, -1, 0, 1, 2, 14
1503697339209,-6, 12, 5, 3, -2, 1, -2, 20
1503697339232,50, 4, 4, 1, 0, -6, -10, -16
1503697339254,23, 6, 0, 1, -2, 0, -3, 3
1503697339263,-33, -11, -6, 1, -1, 0, -3, -8
1503697339285,-1, 6, -1, 2, -2, -4, -1, 1
1503697339307,-52, -5, -1, 1, 2, 2, -1, 0
1503697339322,-60, -9, -1, -2, -3, -3, 6, -12
1503697339344,21, 5, 2, 1, -4, -4, -6, -12
1503697339367,-28, -5, -4, 0, 0, 7, -2, 0
1503697339383,-16, -2, -1, -2, -1, -7, -7, -10
1503697339405,-11, -10, 5, -1, 1, -1, 2, 5
1503697339428,5, 5, -3, -5, -1, -1, 0, -3
1503697339442,22, 10, 4, 1, -2, 2, 7, -3
1503697339464,61, 12, 1, -1, -6, 7, 0, 3
1503697339487,-12, 2, 12, 1, -2, -6, -5, -9
1503697339502,-34, -14, -13, -3, -1, -6, -7, -10
1503697339524,-17, -11, -6, 0, 5, -1, -4, -1
1503697339549,-16, -3, 0, -2, -3, -4, 2, 2
1503697339562,4, 0, -1, -2, -2, 0, 0, -1
1503697339585,-13, 4, 10, -1, -3, -7, -4, -4
1503697339607,11, -13, -8, -4, -3, -3, 2, 5
1503697339622,31, 5, 4, 1, 0, -1, 5, 6
1503697339644,6, 0, -5, 1, 3, 5, -2, 2
1503697339667,51, 16, 0, -1, -6, -5, -4, -3
1503697339684,-29, -14, -8, 1, 7, 2, 4, -1
1503697339704,-5, -7, 0, 1, -2, 1, -1, -4
1503697339727,-11, 4, 11, 4, 0, 2, 0, 0
1503697339742,1, -5, -5, -3, -2, -1, -1, 3
1503697339764,-1, 0, -3, 0, 0, 0, 1, -5
1503697339787,12, 11, -2, -3, -6, -2, -8, -2
1503697339802,6, -3, -1, -1, 2, -2, 0, 1
1503697339824,-4, 0, -4, -2, -4, 3, 4, 2
1503697339847,-17, 5, 8, 1, 0, -1, -1, -1
1503697339862,-26, -3, 2, -1, -4, -2, 1, 3
1503697339888,18, 5, 3, 1, 0, -2, 5, -4
1503697339907,-23, 4, -3, 1, 9, 5, -1, -4
1503697339922,44, 8, -1, -2, 0, -3, -5, 5
1503697339944,-3, 5, 5, 1, 2, 0, 0, 2
1503697339967,-28, -13, -6, 1, 0, 0, 5, 2
1503697339982,13, -3, -3, -5, -7, -2, -6, -1
1503697340004,9, 5, -5, -3, 0, -4, -5, -4
1503697340027,-42, -14, -6, -2, 0, -2, -5, -10
1503697340042,67, 9, 0, 0, -7, 1, 6, 9
1503697340064,16, 7, 0, 1, 0, 1, 0, 4
1503697340087,6, -1, -5, -4, 0, 0, -2, -2
1503697340102,-71, -23, -2, -1, -3, -6, -4, -11
1503697340119,7, 11, 16, -2, -1, 2, 1, -3
1503697340132,-26, -13, -10, -3, 4, -3, -2, -6
1503697340155,20, -3, -7, 1, 5, 3, 0, 3
1503697340176,-21, -8, -7, -7, 1, -5, -3, -7
1503697340192,15, 14, 14, 5, -8, 0, 0, 1
1503697340214,11, 10, 0, -2, -9, 0, -4, -3
1503697340236,-4, -5, -8, -4, 1, -1, 2, 4
1503697340259,1, 3, 3, 4, -9, -5, -9, -8
1503697340274,-27, -11, -2, -5, -4, -2, -2, -6
1503697340296,26, 8, 1, -1, 1, 0, -1, 2
1503697340322,-8, -2, -3, -2, 4, 10, 7, 4
1503697340334,1, 2, -11, -4, -1, -4, 0, 1
1503697340359,-24, 0, 5, 4, -3, 3, 2, 2
1503697340379,5, 4, 2, -4, -4, -4, -3, 2
1503697340401,-4, -9, -1, 0, 7, -1, -4, -4
1503697340416,-18, -9, -7, -3, -1, -5, 2, -2
1503697340439,-34, -3, 1, 1, 0, -4, -5, -8
1503697340461,-23, -2, 8, 3, 6, 0, 0, 0
1503697340483,-14, -3, 5, 2, 0, -4, -7, -1
1503697340485,-21, -1, -4, 0, 0, 1, 1, -3
1503697340507,7, 16, 8, -1, -3, -1, -3, 3
1503697340529,-32, -5, 2, 1, 3, 0, -2, -5
1503697340544,25, 2, -2, -3, -10, 0, 2, 0
1503697340559,-25, -6, -2, 3, 1, -3, -3, -3
1503697340574,23, 4, 0, 1, 2, -2, 1, 1
1503697340590,6, -11, -4, -2, -1, -5, -4, -4
1503697340604,-1, -1, 0, 0, 0, -3, 0, 0
1503697340627,-22, -5, -1, 2, 12, 2, 1, 2
1503697340649,-26, -6, -2, -2, -4, -1, 1, 0
1503697340665,17, 3, -2, -2, -3, -1, -3, 1
1503697340687,-20, -9, 2, 1, -2, -1, -3, -8
1503697340709,1, 0, -4, -1, 0, 1, 1, -5
1503697340724,49, 11, 2, -3, -2, 0, 9, 11
1503697340747,58, 23, 18, 1, 5, 8, 1, -1
1503697340769,3, -6, -11, -4, 1, -2, -1, 4
1503697340784,-32, 2, 4, -1, -4, -4, -2, -4
1503697340807,-44, -12, -1, 2, -1, -1, -5, -5
1503697340829,6, 4, -1, 0, 1, -4, -6, -2
1503697340845,-21, -9, -5, -2, -8, -5, -1, -4
1503697340867,-2, -1, 6, 2, 0, -2, 1, -2
1503697340889,26, 8, 2, -1, -6, -6, -3, -2
1503697340904,1, 2, 2, 1, 1, 1, -1, 4
1503697340919,39, -2, 0, -1, -4, 0, 1, 1
1503697340934,25, 9, 1, 2, 2, -1, -2, 1
1503697340956,-38, -5, 0, 1, 6, -4, -1, -10
1503697340978,4, 3, 1, -2, -10, 0, -2, -2
1503697340995,18, -1, -6, -3, -5, -6, -2, -2
1503697341016,-2, -9, -7, -2, 0, 0, -1, 0
1503697341038,10, -3, -4, -1, 1, 0, 1, 3
1503697341047,26, 3, -2, -5, 1, -5, -6, -2
1503697341069,-8, 1, 0, 1, 4, 4, 5, -2
1503697341084,9, -1, -2, -1, -4, -1, 0, 3
1503697341108,48, 2, -1, -1, -2, 0, 0, 5
1503697341131,-2, -8, -2, -1, -9, -2, -1, 5
1503697341144,-11, -2, -1, 1, -4, -4, -3, -7
1503697341167,28, 1, 0, -4, -6, -5, -11, -5
1503697341189,-8, -9, -4, 0, 2, -1, -3, -9
1503697341212,-16, 3, 7, 4, 17, 2, -1, -5
1503697341228,-4, 3, 2, -1, -9, 0, 8, 10
1503697341249,-32, -8, -2, 0, 0, 1, -7, -9
1503697341272,31, 1, 0, 2, 0, 0, 6, 0
1503697341287,-13, -4, -6, -6, -4, -4, -5, -3
1503697341309,-2, -1, -3, 0, 3, 4, 3, 0
1503697341332,-9, 1, 0, -1, 2, 2, -4, 2
1503697341347,1, 1, -3, -2, -1, -1, 2, -2
1503697341370,3, 0, 2, 3, -1, -1, -3, 5
1503697341392,0, 0, 0, 0, 2, 1, 2, -4
1503697341407,-4, 4, 0, -3, -5, -3, 2, 3
1503697341429,-14, 0, 5, 1, -2, -2, -2, -2
1503697341452,17, -2, -4, -2, 6, 0, -3, -1
1503697341467,-4, -2, -2, -1, -7, 2, 6, 2
1503697341489,9, 3, 0, 0, 1, -3, -7, -5
1503697341512,30, -2, -4, -4, -3, -4, -1, 3
1503697341526,24, 7, 4, 1, 1, 0, -4, 0
1503697341549,-1, -6, -1, -1, 1, 2, -2, -6
1503697341566,7, -1, -1, -1, -1, -3, 0, -2
1503697341580,-20, -2, 0, 0, -2, 3, 6, -1
1503697341602,9, -1, -1, -3, 1, 0, -4, 3
1503697341625,-4, -8, -2, -1, 3, -1, 2, -1
1503697341640,29, 0, -2, -1, -1, 1, 3, 1
1503697341666,2, 3, 3, 1, -2, -1, -1, 2
1503697341685,-1, 5, 3, 1, 4, 0, -1, 0
1503697341703,3, 13, 4, 0, -3, -4, -4, -3
1503697341722,10, 2, -2, -1, -2, -2, -4, 1
1503697341745,-45, -17, -2, -1, -4, -1, -3, -2
1503697341760,-59, -10, -5, 0, 0, -4, 0, -7
1503697341782,-3, -7, -10, -2, -2, -1, -2, -7
1503697341805,-18, -4, -1, 0, -2, 0, -2, -2
1503697341820,-19, 2, 6, -1, 1, 0, -2, -4
1503697341842,10, 2, -6, -4, -1, -2, 2, -4
1503697341866,19, 6, -2, -3, -2, 0, 0, 7
1503697341880,14, 3, -4, 1, 5, 2, 1, 9
1503697341902,2, -1, -3, -2, 5, -2, -2, -1
1503697341925,24, 2, 1, -1, -2, 0, -1, 0
1503697341940,10, 3, 7, -2, -2, 2, 4, 3
1503697341962,-2, 0, -1, -1, -11, -2, -6, 12
1503697341985,-8, -7, -3, -3, -7, -3, -4, -11
1503697342000,1, -2, -2, 0, 2, -1, -3, -6
1503697342022,24, 2, 2, 1, 1, -2, -7, -8
1503697342045,-3, -4, -1, 1, 3, -1, -2, -3
1503697342060,16, 7, -1, -2, -3, -2, 5, 7
1503697342068,19, 5, 8, 1, 2, 2, 5, 7
1503697342089,11, 0, -1, -1, 4, 1, 5, 4
1503697342112,37, 12, 4, 0, 8, -2, -4, -3
1503697342139,-10, -4, -5, 1, -4, -2, -3, -5
1503697342149,-19, -8, -8, -3, -2, -3, -3, -4
1503697342167,-21, 0, 2, -1, 2, 4, 3, -1
1503697342180,18, 2, 0, -3, -1, -1, 2, -1
1503697342202,24, 11, 12, 0, -1, -2, -5, -3
1503697342225,-3, -7, -5, 0, 0, 0, -1, -1
1503697342240,10, -3, -6, -3, -3, -1, 0, -3
1503697342262,-25, -8, -7, -1, -2, -1, 0, -7
1503697342285,-6, -4, -2, -3, -2, -1, 1, 0
1503697342292,-4, 1, 4, 1, -2, -2, -3, -1
1503697342314,8, 2, -4, -3, -2, 0, 3, 4
1503697342329,-51, -5, 4, -1, 0, 0, -3, -4
1503697342352,0, -4, -5, -1, 1, 1, -1, 1
1503697342374,-6, -8, -3, -1, -2, -2, -2, -4
1503697342389,16, 12, 7, 0, -1, 1, 1, 2
1503697342412,-1, -6, -9, -2, -2, -2, -4, -4
1503697342436,17, -3, 0, -1, 0, -1, 1, 3
1503697342449,18, 3, -5, 1, 0, -1, 1, -1
1503697342472,3, -4, -2, -2, -3, -3, -2, -3
1503697342495,0, -1, -3, -2, -2, 1, 0, 2
1503697342503,3, -6, -4, -2, -1, -1, -2, 0
1503697342525,10, 2, 3, 0, -2, -1, -3, -2
1503697342540,20, 9, -1, -2, -1, -1, 1, 2
1503697342562,-22, -8, -8, -1, -1, -1, -1, 2
1503697342585,20, 0, -5, -3, -1, -1, 2, 2
1503697342599,1, -4, -3, -2, -1, -1, -1, -1
1503697342614,30, 8, 3, 0, 0, 1, 2, 4
1503697342629,-13, -1, -7, -2, -3, -1, -1, -2
1503697342652,-3, -14, -5, -2, -3, -3, -3, -1
1503697342674,3, 5, 4, 0, -1, 2, 1, 0
1503697342689,4, 14, -1, 0, 0, -1, 2, -1
1503697342720,16, 18, 5, 2, -2, 1, 1, 1
1503697342743,39, -3, -3, -2, 0, -4, -5, -1
1503697342765,-25, -9, 3, -1, -2, -1, 0, -5
1503697342781,-10, -4, 1, 0, -1, -1, -1, 3
1503697342812,10, -1, -2, -1, -1, -2, -3, -4
1503697342832,-28, 0, -2, -4, 1, -2, -1, -2
1503697342854,6, 0, -3, 0, -1, 0, -3, -3
1503697342869,-2, -6, -2, -2, -3, -3, -1, -1
1503697342892,-6, 0, -3, 3, 2, -1, -4, -5
1503697342915,0, -4, -6, -2, -3, 0, 1, 1
1503697342929,5, 3, 5, 1, 0, 3, 2, 4
1503697342952,21, 3, 1, 0, -3, -3, 0, 2
1503697342974,-11, -4, 0, 0, -4, -2, 2, -1
1503697342989,16, 6, 6, 1, -1, 1, -1, 0
1503697343011,2, 11, 3, 0, 1, 1, -4, -3
1503697343034,-29, -13, -5, -2, -2, -8, -4, -1
1503697343057,2, 0, -1, 0, -2, 5, 7, 0
1503697343075,25, 5, 5, 2, 5, 1, 1, 6
1503697343094,4, -5, -2, -2, -3, -1, -3, -4
1503697343122,8, 3, 0, 0, -2, 1, -3, 9
1503697343132,-11, 0, -5, -2, 0, -1, 1, 5
1503697343157,-21, 5, 4, 3, 5, 9, 2, -8
1503697343179,-11, -6, -4, -1, 0, -3, -4, -4
1503697343191,-45, -21, -7, -3, -5, -1, -8, -8
1503697343208,21, 0, -1, -1, -8, 3, 7, 1
1503697343222,-10, 0, 1, -1, 0, 0, -5, 0
1503697343245,12, 2, -1, -1, -1, -1, 4, -2
1503697343267,3, 3, 1, 0, 1, -1, -6, -4
1503697343284,10, -2, -2, 1, -1, -4, -5, -1
1503697343305,-21, -9, -2, -1, -1, -2, -3, -2
1503697343327,-12, -3, -1, 0, 1, -4, -7, -3
1503697343344,-5, -4, 1, -2, 0, 3, 0, -7
1503697343365,14, 5, 3, 6, 9, 2, 6, 0
1503697343389,-16, -10, -6, -4, 0, 1, 7, 9
1503697343403,0, 2, 2, -1, -1, -1, -2, 3
1503697343425,11, 0, -3, -2, 1, 5, -1, 11
1503697343456,-14, -10, -5, -6, -5, 1, 4, 5
1503697343478,-24, 2, -1, 1, 0, -4, -4, -6
1503697343486,-3, 0, 3, -1, -6, -7, 4, 4
1503697343507,2, 5, -1, 0, -2, 1, 1, -3
1503697343522,4, -5, -4, -1, 2, -2, -7, -9
1503697343547,-10, -1, -1, -2, 1, 1, 1, 2
1503697343567,-19, -1, 2, 2, -1, 0, -8, -7
1503697343582,-3, 0, 1, -1, 3, 3, 0, 3
1503697343605,-32, -7, -1, -1, 0, 9, -3, -8
1503697343613,1, 4, 3, 1, -2, -6, -3, -7
1503697343634,1, -6, -4, -4, -1, -5, 3, -1
1503697343657,38, 9, 5, 2, 2, 3, -2, 1
1503697343671,-1, -8, -3, -4, -4, -6, -3, -3
1503697343694,-52, -7, -1, 0, 1, 1, -5, -6
1503697343717,-19, 15, 8, 1, 0, -2, -2, -12
1503697343731,2, -9, -2, 0, -2, 0, 11, 9
1503697343754,-21, -12, -2, -1, -2, -2, -5, -3
1503697343778,9, 8, 8, 3, 2, 1, 1, -3
1503697343785,6, 0, 1, -1, -2, 1, 2, 4
1503697343807,-9, -8, -6, -1, -1, 0, 0, -2
1503697343822,-5, -6, -2, -1, -2, 2, 2, -1
1503697343847,15, -5, 3, 0, 1, -2, -4, 1
1503697343867,25, -12, -1, -1, -3, -3, 0, 9
1503697343882,-35, 2, -4, -6, -1, 2, -1, -6
1503697343905,30, 5, -1, 3, -5, 0, -2, -1
1503697343927,22, 13, 3, -2, -6, -3, -3, -6
1503697343942,10, 10, -1, 0, -2, -6, -1, -2
1503697343965,-52, -14, -5, 1, 4, 6, 1, -3
1503697343987,-5, 2, -3, 0, -9, -6, 6, 3
1503697344009,13, 7, 10, 4, 1, 0, -2, 3
1503697344025,-6, 5, -2, 0, 1, -1, -4, -6
1503697344049,17, -6, -3, -1, 7, 3, -2, -7
1503697344069,13, 0, 5, -1, -2, -1, 5, 2
1503697344085,-4, -3, -3, -4, -3, -2, 1, 5
1503697344107,22, 5, -2, -1, 2, -1, -9, -9
1503697344129,6, -5, 1, 2, 1, 0, 5, 5
1503697344145,-43, -13, -6, -6, -2, -1, -2, -4
1503697344166,-23, -6, -1, -1, -1, 0, 0, -2
1503697344190,2, 1, -1, 0, -2, 3, -1, -1
1503697344205,-22, -10, -1, -1, 3, -3, -1, -8
1503697344227,15, 10, 1, 1, -2, -2, -3, -1
1503697344249,3, 6, 2, -3, 1, 8, 0, 5
1503697344265,-11, -1, -2, -1, -5, -3, 2, -3
1503697344287,10, 1, 0, 1, -2, -1, 1, 1
1503697344309,8, 3, -1, -2, 0, -1, -3, -3
1503697344325,-28, -2, -1, 0, 0, -2, -1, -1
1503697344349,-19, -11, -12, -3, 1, 3, 2, -3
1503697344354,14, -5, -3, 1, -8, -1, 2, 2
1503697344376,10, -3, -1, -1, -1, -1, -3, 0
1503697344398,-14, -1, -3, 0, 11, 0, -6, -3
1503697344414,-4, 1, -2, -5, -1, -1, 3, 2
1503697344436,7, -8, -3, -1, -3, -1, -1, 3
1503697344459,-19, -7, -7, -1, 1, 0, -3, -6
1503697344474,28, 3, -6, -1, 1, 0, 0, 1
1503697344496,-1, 18, 2, 0, -3, 1, 2, 8
1503697344519,9, -3, -1, -1, -4, -3, 6, 1
1503697344534,-13, 1, 1, 0, 2, 2, -2, -1
1503697344552,-20, 1, -4, -1, -1, -2, -1, -5
1503697344557,-17, -10, -5, -3, -1, -3, -5, -3
1503697344578,-13, 0, 4, -1, 0, -1, 0, -3
1503697344594,22, 4, -1, 0, 0, -1, -1, -2
1503697344618,10, -4, -2, 0, -1, 0, -3, -2
1503697344638,-7, 1, 2, 1, -3, -1, -5, -4
1503697344647,-6, -7, -4, -3, 3, 0, 0, 1
1503697344669,4, 0, -5, -4, -4, -3, -3, -1
1503697344686,7, 7, 0, -2, -6, -3, 0, 0
1503697344707,-12, 1, -6, -3, -3, -3, -3, 0
1503697344714,-7, -4, 1, -1, -3, -2, -4, -4
1503697344736,4, -5, -4, -2, 1, 0, -1, -4
1503697344758,18, 6, 4, 2, -1, -1, -3, 4
1503697344774,-43, -11, -6, -3, -5, -6, -4, -7
1503697344797,19, 7, 2, 0, 1, 0, -1, 2
1503697344821,-4, -1, -7, 1, 6, 1, 1, 2
1503697344834,6, -3, -2, -2, -3, -1, -1, -3
1503697344857,-3, 0, 4, 2, 3, 4, 3, 5
1503697344879,-60, -12, 5, 5, 3, -1, 2, -8
1503697344901,10, 0, -3, 0, -3, 8, -2, 1
1503697344916,20, 3, -1, -3, -4, -7, -2, -3
1503697344939,12, 3, -4, -4, -11, -3, -3, -2
1503697344962,-3, -3, -7, -3, 3, -3, -3, -5
1503697344976,20, 3, 2, 0, -2, 0, 4, 2
1503697344993,-6, 1, 9, -1, -1, 0, 1, -4
1503697345007,13, 2, 2, -1, 0, -2, 2, -3
1503697345029,-6, 1, 2, 3, 2, 6, -1, -4
1503697345054,-19, -15, -8, -5, -8, -5, -1, 1
1503697345067,-12, 7, 3, -2, -1, 1, -5, -2
1503697345090,28, 1, 1, 1, -4, -8, 0, 8
1503697345097,19, -4, -6, -3, -1, -3, 0, -2
1503697345112,-47, -3, 5, 0, -1, -1, -1, -8
1503697345127,6, 1, -3, -2, 0, -2, -3, -3
1503697345149,28, 5, 1, 0, 1, 0, -1, 9
1503697345171,-66, -12, -5, -2, -5, -3, -2, -18
1503697345189,0, 0, -1, 0, -1, -2, 0, 1
1503697345209,-33, -8, -4, 0, 2, 1, 2, -3
1503697345232,10, 4, 2, -2, -4, 1, 0, 5
1503697345248,3, 17, 18, 5, -2, -1, -3, -9
1503697345269,9, 1, -8, -4, -3, 0, 2, 4
1503697345292,-12, -5, -8, -2, 1, -5, -4, -8
1503697345307,-7, -3, 0, 0, 6, 2, 7, 0
1503697345329,-19, -19, -5, 0, -4, -1, -3, -6
1503697345351,37, 0, -4, 2, 4, 2, 2, -1
1503697345367,33, 8, 6, 1, 7, 0, 2, 8
1503697345390,5, 1, 3, 2, -4, -3, -5, -2
1503697345411,-9, 7, 4, 0, -5, 1, 2, 1
1503697345428,21, 6, -4, -2, -3, 4, 3, 2
1503697345449,-6, 2, 9, 2, 0, 0, -7, -4
1503697345472,-22, -5, -7, -5, -4, -5, -7, -5
1503697345487,5, -8, -11, -3, -4, -5, 3, -3
1503697345509,1, -1, -2, -1, -3, -3, -2, 5
1503697345532,-16, -6, -1, 1, 2, 1, 1, -3
1503697345547,-17, -3, -2, -1, 1, 1, 0, -3
1503697345569,18, 1, 0, 0, -1, 1, 1, 8
1503697345595,5, -4, -3, -3, -4, 1, 1, 13
1503697345607,47, 5, -4, -4, 0, 0, -3, -12
1503697345629,-10, 3, 3, 0, -1, -5, -2, 0
1503697345651,-13, 1, -1, -2, -1, 3, -3, 1
1503697345669,-2, -1, -2, -1, -3, -1, 2, 2
1503697345689,8, 10, 2, 1, 6, 1, -2, -7
1503697345711,-16, 9, 11, 1, -1, -2, -3, -2
1503697345728,-3, -6, -7, -3, -4, -1, -2, -4
1503697345749,-11, -2, 0, 1, 4, 0, 4, 0
1503697345771,-3, -10, -3, -4, -2, -3, -5, -3
1503697345788,-49, -2, -2, 0, 7, 2, -6, -10
1503697345809,32, 1, 1, 0, -2, -4, -2, 4
1503697345832,5, -1, -2, -2, -2, 1, 7, -9
1503697345854,27, 1, 1, 2, 0, 3, 3, 5
1503697345869,-18, -1, -1, 2, 1, -1, -4, 0
1503697345893,29, 12, 9, 0, -2, 2, 4, 11
1503697345914,-3, -8, -2, 2, 4, -1, -2, -6
1503697345929,9, -7, -6, -4, -4, 0, -3, -3
1503697345951,-88, -8, -4, -3, -7, -4, -5, -3
1503697345974,22, 0, -1, 0, -2, -2, -8, -6
1503697345989,31, 3, -2, 1, 4, 1, 5, 11
1503697346011,-3, 9, 8, 1, -2, 1, 5, 7
1503697346034,14, -3, -5, -2, 4, -3, -2, -9
1503697346049,15, 0, -3, -2, -4, -3, -2, 0
1503697346071,12, -2, -3, -2, -5, -2, -2, -1
1503697346096,12, -1, -3, -2, 7, 2, 3, 4
1503697346109,-49, -13, -8, -3, -7, -2, 0, -9
1503697346131,33, -4, -1, -1, -2, 0, 0, -3
1503697346146,-7, -5, -1, -2, -8, 1, -1, -1
1503697346163,35, 2, -3, -1, -2, -2, 4, 3
1503697346183,-34, -6, 0, -1, 0, -1, -4, -6
1503697346199,-11, 5, -10, -2, 0, 0, -2, -4
1503697346221,-19, -17, 0, 0, 3, -2, -1, -2
1503697346243,4, 2, 0, 1, 2, -3, -4, -1
1503697346259,55, 2, 0, -1, 2, 3, 6, 7
1503697346281,8, 3, 1, 0, 6, 1, 4, 4
1503697346304,-21, 1, 8, 0, -2, 0, -4, -5
1503697346319,-3, 3, -5, -1, -1, -1, 1, 3
1503697346341,-30, -5, 0, -3, -2, -4, -6, -7
1503697346363,-11, -3, -6, -1, -1, -2, -1, -1
1503697346379,66, -5, -10, -1, -1, -1, 3, 2
1503697346401,-35, 1, -3, -2, -4, 1, -1, -2
1503697346423,10, 0, 8, 0, -2, -2, -2, 1
1503697346439,-5, 2, 2, 1, -1, 0, 1, -3
1503697346461,-23, -13, -8, -3, -3, -3, -4, -4
1503697346483,-4, 9, 9, 0, 1, 1, 3, -1
1503697346499,-10, 1, -1, 0, 0, -1, -4, -5
1503697346521,-2, 4, 2, 1, 0, -1, -1, -1
1503697346543,62, 1, -11, -3, -2, -1, 2, 7
1503697346559,31, 3, -2, -2, -2, 1, 3, 7
1503697346581,-30, -2, 2, -2, -1, 0, 1, -2
1503697346603,-23, -6, -3, -1, -1, -3, -2, -4
1503697346619,-10, 0, 5, -1, 0, 0, -3, -4
1503697346642,11, 1, 0, 0, 1, -1, -1, -2
1503697346664,-19, -4, -2, -1, -1, -1, -2, -2
1503697346687,25, 2, -5, 0, -3, 0, 3, 6
1503697346702,-10, -1, 0, 0, 2, 1, -3, -1
1503697346724,-16, 1, -2, 0, 1, -2, 1, -2
1503697346747,-16, -15, -2, -2, -2, -2, -3, -6
1503697346762,-21, -7, 0, -1, 0, 1, -1, -2
1503697346784,9, -1, 0, -1, -1, -2, 0, 3
1503697346807,14, 5, 2, 0, 1, -1, -3, 0
1503697346822,-2, 0, 2, 0, 0, -1, -4, -2
1503697346837,-6, 1, 3, 0, 1, 0, 1, -1
1503697346852,7, -1, 5, -1, 0, -1, -1, 1
1503697346869,27, 1, 3, 0, 0, -1, 0, 4
1503697346882,-44, -10, -4, -2, -2, -1, -1, -3
1503697346905,10, 10, 0, -1, -3, -1, -1, -4
1503697346927,35, 1, -7, -1, -2, 0, -2, 1
1503697346942,-22, -1, 8, 0, -3, -2, -1, -6
1503697346964,14, -1, 1, 0, 1, -1, 0, 3
1503697346987,8, -5, -6, -1, 0, -1, -1, 0
1503697347002,-4, -2, 2, 0, -1, 0, 1, 2
1503697347024,-4, -10, -6, -3, -1, -1, -1, -2
1503697347047,-6, 2, -2, -1, 0, 1, 1, -4
1503697347062,-10, -2, -1, -2, -1, 3, 3, 3
1503697347084,22, 3, -3, 1, -1, -2, -3, -1
1503697347107,9, 12, 5, -1, -2, -1, -3, -2
1503697347129,7, 1, -5, -1, -1, -2, -1, -3
1503697347146,-5, 5, -3, 0, 3, 1, 4, 0
1503697347169,37, -9, 4, 3, -2, -1, 0, 5
1503697347182,-12, 5, -3, -4, 0, 0, 1, 1
1503697347196,-8, -5, -4, -2, -1, -3, -1, 0
1503697347212,16, 6, -7, -1, -2, -1, 0, -3
1503697347236,-8, -9, 0, -2, 0, 1, -1, 2
1503697347256,-10, -9, -3, -2, 1, 1, 0, -1
1503697347272,-5, 4, -5, -2, -2, -1, -1, -2
1503697347304,-25, -3, 0, -2, -3, -2, -1, -5
1503697347324,7, -4, 3, -2, 1, 0, 0, -2
1503697347347,4, 16, 5, 0, 0, 2, 5, 8
1503697347372,-1, -2, -5, -3, -2, -2, -2, -3
1503697347384,11, -1, -2, 0, 0, 1, 2, 2
1503697347407,8, -16, -5, -4, -1, -4, -3, -3
1503697347422,-12, -2, -7, -1, -4, -3, -4, -2
1503697347444,-12, -2, -5, -2, -2, -2, -2, -3
1503697347451,0, -5, 2, -2, -3, -3, -3, -3
1503697347474,30, -14, -3, -1, 0, 2, 0, 3
1503697347496,-10, -2, -9, -2, 0, 0, -3, -3
1503697347506,16, 19, 3, 3, 2, 2, 1, 2
1503697347527,-1, 5, 0, -3, -1, 1, 1, -2
1503697347543,10, 4, 2, 0, -1, 0, 3, 1
1503697347564,4, -6, -1, 0, 0, -1, -3, 0
1503697347587,3, -4, -4, -4, -4, -4, -1, 2
1503697347602,-9, -5, -3, 1, -2, -2, -1, 0
1503697347624,4, 6, 0, -1, 0, -2, -4, -4
1503697347648,-3, -9, 0, -3, 0, 0, -2, -3
1503697347662,8, -6, -3, 0, -2, 2, 4, 2
1503697347684,-15, -1, 10, 3, 2, -2, 0, -4
1503697347709,-31, -25, -9, -3, -1, 1, -3, -4
1503697347729,-4, 0, 0, -2, -3, -1, -1, -2
1503697347745,23, 26, 3, -2, -4, -1, 1, 6
1503697347767,-21, -5, -1, -1, -1, -2, -2, -5
1503697347789,-5, 6, -2, 1, 0, 6, 1, 0
1503697347806,40, 7, -2, -1, 1, -4, 0, 0
1503697347827,6, -9, -2, -2, -1, -4, -3, -1
1503697347850,-16, 3, 9, 1, -2, 0, -3, -3
1503697347864,25, 4, -4, 0, 1, 1, 1, 3
1503697347887,16, 5, -4, -2, -2, -10, -5, 1
1503697347909,-1, 1, 13, 0, -1, 3, -1, 1
1503697347924,-32, -22, -17, -3, -2, -5, -5, -8
1503697347947,-1, -30, -6, -2, 0, -1, 0, -3
1503697347969,30, -1, -4, 0, 1, 2, 3, 1
1503697347977,2, 0, -2, -3, -1, -1, 2, 3
1503697347999,-16, 2, 2, 0, 4, 7, -2, 4
1503697348014,19, 0, -10, 2, 0, -2, 0, 1
1503697348036,-3, 4, -2, -3, -3, -2, -1, -4
1503697348059,-5, 11, -1, 0, 0, -1, 1, 0
1503697348080,-22, -10, 11, 0, -3, -2, -1, 2
1503697348096,26, -2, 1, 2, 15, 9, -7, -8
1503697348119,-32, -11, -9, -7, -6, -6, -5, -2
1503697348135,-45, -7, 1, -3, -4, -5, -5, -12
1503697348156,-2, -7, -1, 1, 1, 1, -3, -10
1503697348179,69, 24, 7, 1, 0, -1, 3, 12
1503697348194,-52, -16, -7, -3, -3, 2, -3, -9
1503697348217,-5, 4, -1, -1, 3, -1, -1, -4
1503697348239,57, 2, -4, -2, -3, -5, 3, 24
1503697348254,24, 21, 5, 0, 0, 1, 1, 9
1503697348277,-24, -7, -3, -2, -10, -4, 0, -4
1503697348299,-17, -1, 8, 1, -2, -3, 4, -3
1503697348314,65, 2, 8, 4, -2, -1, 1, 0
1503697348336,-7, -10, -8, -4, 0, 3, -4, -14
1503697348359,-26, -6, -5, -1, 2, -2, 0, -1
1503697348374,-15, -7, -1, 0, 1, -1, -5, -15
1503697348396,-9, -11, -3, -1, -3, -4, -2, -2
1503697348420,8, 6, 13, 1, 0, 1, -5, 9
1503697348434,-30, -6, 0, 0, 3, -2, -1, -19
1503697348456,24, -1, -4, 1, 2, -1, 1, 5
1503697348479,24, 10, 4, -2, -7, 1, 1, 2
1503697348494,-40, -4, -10, -2, 1, 8, 6, 0
1503697348517,27, 12, -14, -5, -2, -2, -1, -3
1503697348539,24, 4, 10, 1, -2, -2, 3, 5
1503697348554,-8, -1, -2, 0, -1, -2, 0, 8
1503697348576,-116, -45, -5, -2, 1, -4, -7, -17
1503697348599,13, 0, -1, -3, -4, -3, -1, 1
1503697348614,26, 4, 1, 0, -6, -2, 0, 4
1503697348636,31, 8, -6, -2, 1, -1, 0, -4
1503697348659,-18, -3, -1, -2, -4, -4, -2, -3
1503697348681,54, 18, 3, 0, 0, 1, 1, 2
1503697348696,48, 20, -4, -2, -5, 0, -1, 7
1503697348719,-37, -11, -5, -3, 7, -1, -4, -5
1503697348741,-20, -3, -1, 4, 0, 3, 3, 5
1503697348759,18, 0, 3, 0, -3, -2, -3, 2
1503697348780,-37, -16, 5, -3, -2, -3, 1, 1
1503697348801,6, -9, -5, 0, 2, 3, 2, 3
1503697348816,5, 8, 3, 2, 0, -4, -6, -8
1503697348839,-19, -13, -7, -3, 0, -1, 2, -1
1503697348861,16, 12, 10, 0, -2, -2, -1, 1
1503697348876,2, 11, 10, 2, 2, 4, -2, -4
1503697348899,-8, 4, -7, -2, -4, 0, -3, 3
1503697348921,-52, -15, -7, 0, -1, -1, 4, -5
1503697348936,28, -2, 0, 1, 3, -1, -1, 1
1503697348959,9, 1, -1, -1, -2, -3, 0, -2
1503697348983,-3, -13, -6, -4, -5, -2, 0, 1
1503697348996,12, 6, 5, -1, -2, -2, -1, 1
1503697349020,-8, -2, -1, 6, -3, -1, 0, -2
1503697349045,19, 4, 3, -3, 2, 0, -2, -2
1503697349057,-21, -5, -1, -1, -6, -1, -4, -2
1503697349079,-13, -10, 1, -2, -3, -4, -3, -1
1503697349101,10, 1, -6, -2, 0, 3, 1, 2
1503697349118,5, 4, -4, -4, -4, 6, 2, 2
1503697349139,-14, 1, -1, 1, 0, -3, 0, 0
1503697349161,18, 14, 3, -1, 1, -1, 3, 6
1503697349176,9, 0, 0, -1, 2, 2, 1, -2
1503697349206,28, -1, -4, 1, 8, 1, 0, -6
1503697349222,-39, -14, -4, -1, -3, -7, -5, -9
1503697349236,-13, -1, 2, 0, 2, 1, -4, -2
1503697349259,17, 6, 9, 2, 3, 0, -4, -4
1503697349283,-17, -3, -3, 0, -2, -3, 0, 4
1503697349296,11, -2, -6, 0, 1, -1, -1, 1
1503697349319,18, 5, 2, -3, -5, -3, -3, -1
1503697349341,15, 3, 0, 2, 1, 0, -1, 1
1503697349356,-19, -2, -1, -1, -4, -3, -3, -2
1503697349379,-22, -2, -3, -1, -1, -1, -4, -9
1503697349401,-34, -6, 11, 2, -3, -1, 1, -1
1503697349423,-9, -6, -8, -2, 1, -2, -1, 1
1503697349439,17, 3, -7, -4, -2, 0, 2, 2
1503697349461,37, -1, -2, -3, -2, 4, 4, 3
1503697349476,-4, -1, 5, -1, -4, 0, -2, -6
1503697349499,8, 0, -4, -1, 2, 1, -3, -2
1503697349521,10, 3, -1, 0, -2, -1, 0, 4
1503697349530,37, 5, 2, 3, 3, 2, 2, 6
1503697349553,-8, -4, 1, 1, 7, 5, 4, 1
1503697349574,-18, -5, -2, -1, 1, 8, 1, 4
1503697349590,-23, -4, 1, -1, -6, -6, 0, 1
1503697349611,7, -7, -6, -3, -4, 0, -2, -3
1503697349634,-2, -2, -1, -2, 0, 2, 5, -7
1503697349649,-36, -4, -4, 0, -2, -1, 2, -6
1503697349671,-9, -3, -4, -4, -2, -2, -8, -9
1503697349695,8, 5, 2, -2, -2, 0, -3, 6
1503697349709,31, 5, -2, -1, -1, -3, -3, -1
1503697349731,-18, -5, -1, -1, -5, -3, -5, -5
1503697349754,0, -1, 1, 2, 1, 1, 2, 0
1503697349769,48, -2, -1, 1, 1, -3, 1, 1
1503697349791,24, 3, 3, 3, -3, -7, 6, 7
1503697349806,11, -2, -5, -1, 0, -2, 2, 4
1503697349821,-6, 1, 3, -2, 4, 0, 5, 0
1503697349831,9, -1, -5, 0, 13, 0, -5, -5
1503697349851,-17, 4, 4, -1, -9, -3, -1, -2
1503697349874,5, 2, 4, 0, -6, -3, -6, 0
1503697349890,1, 6, 1, 0, -3, -1, -5, -10
1503697349911,-61, -5, 1, -1, 5, 0, 1, -1
1503697349934,22, 1, -2, 0, -2, 1, -1, 7
1503697349949,14, 1, 0, 0, 0, -3, 1, 2
1503697349971,1, 4, 1, -1, -4, -2, 1, -1
1503697349994,20, 1, -6, -3, -4, -2, 0, 1
1503697350009,38, 1, 0, 1, -4, -1, 1, 8
1503697350031,-13, -9, -5, -5, -3, -5, 2, -8
1503697350056,19, 7, 2, 1, 2, 2, 0, 6
1503697350069,-13, -5, -2, 0, 0, -4, -6, -9
1503697350091,24, 3, -2, -1, -8, 1, -2, 3
1503697350114,-22, -2, 0, 1, 4, 2, 2, -2
1503697350129,-5, -5, -3, -3, -2, -1, 1, 6
1503697350151,-2, 7, 7, 5, 8, 5, 1, 5
1503697350174,5, 2, 0, -1, 3, 1, 0, -5
1503697350190,17, 2, -2, -2, -1, 1, 9, 6
1503697350218,8, -11, -9, -5, -6, -4, -9, 3
1503697350234,12, 3, 5, 3, 0, 2, -2, 2
1503697350250,-3, 6, 0, -1, -1, -1, 7, -2
1503697350271,-18, -8, -4, -2, -2, -3, 0, -5
1503697350294,-50, -8, -5, -2, 1, 0, -2, -9
1503697350309,8, 1, -1, -1, -1, 0, -2, -2
1503697350331,-43, -13, -8, -3, -6, -5, -4, -14
1503697350354,26, -1, -1, -1, -5, 2, 3, 6
1503697350369,-2, 4, 2, 0, -2, 0, -9, 0
1503697350392,-41, -4, 0, 0, 19, 5, 2, 0
1503697350414,-16, 0, 0, -2, -2, -2, 1, 0
1503697350429,23, 4, -3, -2, -3, 1, -1, 1
1503697350451,41, 1, -1, 0, -3, -3, -1, 4
1503697350474,-11, -9, -3, -3, -6, -1, 2, 3
1503697350496,18, 2, 0, 1, 3, -1, 0, -3
1503697350511,6, 6, 2, 0, -1, -3, -6, -3
1503697350534,-11, -1, 2, 1, 0, 1, -4, -10
1503697350556,-5, 1, 3, -1, 0, 0, 1, -2
1503697350571,34, 7, 4, 0, -4, 1, 3, 7
1503697350594,5, -1, 0, 1, -3, 0, 0, 6
1503697350602,-17, -7, -2, -3, -2, -1, -2, -4
1503697350623,23, 0, -2, 0, -3, 3, 2, -4
1503697350646,-1, -1, 6, 2, 0, -2, 2, -2
1503697350662,11, 0, -2, -2, 0, 0, 1, 6
1503697350684,-50, -7, 4, -1, 1, -5, -3, -7
1503697350706,-1, 0, -3, -1, 1, 3, 2, 5
1503697350721,19, 4, -2, -2, -1, -4, -3, -4
1503697350743,6, 0, -1, 0, -1, 0, -2, -1
1503697350768,-17, -7, -4, -1, -5, 0, -1, -5
1503697350781,-8, -9, -6, -2, -4, -2, 0, -3
1503697350803,63, 4, 0, 1, 2, -2, -2, 2
1503697350828,-11, 1, -4, -1, -3, 1, -1, 2
1503697350843,-11, 1, 0, -2, -2, -1, -1, -2
1503697350863,6, 11, 4, 0, 1, -2, -2, 0
1503697350885,0, -7, -8, -3, 1, -2, -7, -2
1503697350895,-4, 0, 1, 0, 0, 1, -3, -1
1503697350916,-35, -6, -1, 0, -2, 0, 0, -2
1503697350932,8, 1, 0, -1, 1, 1, 0, -3
1503697350954,-5, -5, 0, -1, -1, -1, -6, -6
1503697350977,18, 0, -5, -3, -1, 0, 1, 4
1503697350991,4, -1, -2, 0, 0, -1, 0, 2
1503697351014,-10, -1, -1, -1, -1, -1, 0, -5
1503697351036,5, -1, -2, -2, -1, -3, -2, -2
1503697351052,3, -1, 3, 0, 0, 1, 0, 0
1503697351074,2, -9, -3, -1, -1, -3, -4, -6
1503697351097,0, 0, 2, 0, 0, 0, -2, 0
1503697351112,13, 6, 6, -1, 0, -1, 2, 2
1503697351126,8, 0, -2, 1, 0, -1, -4, -4
1503697351141,0, -4, -5, -2, -2, -1, -2, 0
1503697351164,-4, -1, -3, 1, -1, -3, -1, -6
1503697351187,37, 10, 2, 0, 2, 1, 0, 4
1503697351203,16, -1, -4, -1, -2, 1, 3, 0
1503697351224,-6, -2, -3, -1, -2, -4, -3, -4
1503697351246,-9, 0, 0, -3, -2, -3, -5, -4
1503697351270,-8, -5, 1, 1, 1, 1, 2, 5
1503697351284,-8, -2, 0, 1, -1, 1, 0, 0
1503697351306,-3, -4, -1, -2, -1, 1, 1, -1
1503697351321,-16, 2, 2, -2, -1, -2, -4, -3
1503697351343,7, 0, -3, -1, 0, -1, -1, -1
1503697351365,-11, 4, 2, -2, -1, -1, -1, -1
1503697351381,22, 2, 0, -1, -2, -1, -1, 1
1503697351404,-16, -11, -3, 0, -3, -2, -3, -3
1503697351425,-61, -16, -3, 1, 0, -2, -3, -10
1503697351448,10, 9, 4, -3, -1, 1, 0, 3
1503697351468,36, 17, 0, -1, 0, -1, 2, 5
1503697351485,-3, 1, 1, 0, -1, 0, -2, 1
1503697351509,36, 7, -1, 0, -1, -1, 2, 1
1503697351523,-8, -2, -6, -5, -3, 0, 0, -1
1503697351545,4, 6, 3, -1, -3, -1, -3, -1
1503697351554,24, -1, -1, -2, -1, 0, -4, -1
1503697351578,6, 3, 3, -1, -3, -3, -2, -1
1503697351600,13, 5, -1, -2, -2, 1, 1, 1
1503697351614,4, -3, 4, 5, 0, 2, 0, 2
1503697351637,-3, 0, 0, 0, 1, 0, 2, 1
1503697351659,19, 9, 1, 0, 1, 0, -1, 0
1503697351674,-31, -5, -5, -1, -1, -1, -3, -2
1503697351696,-20, -3, -15, -5, -1, -1, -3, -3
1503697351719,-14, -11, -2, -3, -2, -3, -1, -3
1503697351735,-7, -5, -1, -3, -2, -2, 1, 1
1503697351756,11, 7, 0, -1, -3, -1, -1, 0
1503697351764,-39, -1, 1, 2, 1, 0, -1, 0
1503697351785,24, 9, 3, 0, 0, -3, -1, -1
1503697351808,24, 7, 1, 1, 1, 1, -2, -1
1503697351824,13, 2, -1, -2, -3, -3, -3, -2
1503697351846,0, -2, -4, -2, -1, -3, -1, -1
1503697351854,-27, 14, 0, -2, 2, -2, -3, -5
1503697351877,2, -4, -5, -6, -2, -4, -2, -5
1503697351898,-6, -2, 2, 1, 1, 1, 2, 0
1503697351906,-33, -9, -13, -2, -2, -4, -2, -4
1503697351928,6, -1, 1, 0, -3, -1, -2, 0
1503697351945,20, 18, 4, -3, -1, 1, 1, 0
1503697351968,-17, -8, -5, 0, -1, -1, -1, 0
1503697351981,15, -4, -3, -5, -1, -2, -1, 2
1503697351996,38, 15, 1, -2, -2, -1, -4, 2
1503697352019,24, -7, 6, 2, 3, -1, 0, 1
1503697352036,-13, 8, 15, 2, 0, 2, 4, 2
1503697352056,-31, -19, -8, -3, -1, -2, -1, -1
1503697352079,-4, 3, 0, 1, -1, 0, 0, 2
1503697352094,-7, -11, -2, 1, 1, 0, -1, -1
1503697352116,17, 6, -4, -2, -4, 0, 0, -2
1503697352139,-7, -3, -3, 0, -2, -1, -1, 0
1503697352154,5, -4, -4, 2, -1, -1, -2, 0
1503697352177,-53, -31, -8, -1, -3, -2, -1, -9
1503697352199,14, 11, 4, 0, 0, -3, 3, 2
1503697352214,-3, -6, -4, -7, -3, 3, -2, 0
1503697352243,22, 6, 5, 5, 5, 0, -2, -3
1503697352259,7, 2, 2, 4, 0, 1, 0, 8
1503697352274,17, 6, -4, -7, -5, -2, -4, -3
1503697352296,-1, -3, -4, -5, -5, -24, -13, -3
1503697352319,-9, -1, -2, -1, -1, 3, 6, -1
1503697352334,-21, -8, -2, -6, -6, -3, -2, -3
1503697352356,-1, -1, -6, -4, -3, 1, -3, -2
1503697352379,24, 16, 0, 2, 1, 6, 0, 0
1503697352401,-11, -3, -1, 5, 3, 2, -2, -4
1503697352416,3, 4, -1, 2, 4, -6, 4, 0
1503697352439,-15, -13, 1, 2, -3, 1, 2, -6
1503697352461,-18, -10, -5, -4, -4, 2, -1, 0
1503697352478,19, 11, 0, -6, -10, 0, -3, 3
1503697352499,-7, -6, 0, 0, 5, 0, 0, 1
1503697352522,15, 8, -3, 1, 3, -5, -8, -9
1503697352536,-5, 4, 2, 2, -3, -8, -3, 0
1503697352558,28, -5, 1, 0, 4, 11, 7, 5
1503697352583,-18, 0, 1, -2, 2, 1, -7, -2
1503697352596,8, -6, 2, 6, 5, -5, 1, 1
1503697352618,1, 2, -5, -9, -8, -7, -3, -2
1503697352641,-22, -5, -6, -5, -2, -3, -1, -6
1503697352656,-11, -5, 1, -3, 0, 5, 4, 5
1503697352679,-26, -6, -2, 2, -3, 6, 6, -3
1503697352701,-31, -5, 0, -4, -5, 2, -3, -2
1503697352717,33, 8, -1, 0, 1, 0, 1, 6
1503697352741,-1, -2, -1, -1, -2, 3, 4, 5
1503697352761,26, 4, -2, -2, -7, -11, -3, -8
1503697352776,4, 1, 1, 0, 1, -5, -2, -1
1503697352799,-18, -8, 0, 4, 0, -1, -8, -6
1503697352821,5, 4, 5, 1, 6, 1, -1, -2
1503697352836,25, 3, 2, 3, 4, 4, 4, 1
1503697352859,8, 1, -8, -6, -8, 2, -4, -6
1503697352881,-8, -5, -2, -1, 3, -6, 0, 1
1503697352896,-13, -2, -2, -5, -6, 1, -1, 2
1503697352919,18, 13, 2, -1, -2, -2, 1, 6
1503697352943,-22, -6, -2, 2, 9, 7, 6, 3
1503697352956,-37, -2, -8, -3, -7, -3, -6, -5
1503697352979,18, 0, -4, -3, 2, -1, 2, -1
1503697353001,-15, -14, -2, -2, 4, -1, 2, -6
1503697353016,12, 6, 6, 0, -4, -1, -3, 2
1503697353039,5, 2, 3, 1, 4, 0, 0, -2
1503697353061,31, 10, 2, 0, 3, 3, -1, 0
1503697353077,17, 2, -2, 1, -1, -2, 2, 8
1503697353098,-4, 3, 2, -1, -3, -3, -3, -4
1503697353122,-4, 0, -2, -4, -3, -7, -15, -2
1503697353136,0, -2, -3, 1, -3, -1, 6, 0
1503697353159,37, 7, 0, 0, 4, 0, 3, 5
1503697353181,-38, -17, -7, -4, -6, 1, 3, -4
1503697353196,-16, -3, -1, -3, -5, -4, -4, -3
1503697353219,-23, -9, -2, 1, 4, -1, -2, -7
1503697353241,23, 6, 6, 2, 4, 1, 4, 2
1503697353257,-41, -8, -7, -1, 0, 2, 7, -5
1503697353280,-2, 1, 1, -1, -5, -2, -7, -5
1503697353301,19, 0, 2, -1, -1, -2, 0, 2
1503697353325,-23, -5, -2, -5, -3, -4, -8, -8
1503697353339,-9, 3, 1, 1, -2, 3, 2, -1
1503697353361,29, 5, -1, -1, 2, 2, 1, 6
1503697353384,-1, -4, -5, -4, -7, -1, 0, 1
1503697353399,-5, 3, -1, -1, -1, 1, 2, 4
1503697353422,-10, -1, 3, -1, -2, -3, 0, -2
1503697353429,6, -3, -3, -1, 2, 2, 0, -2
1503697353453,-31, -5, -4, -3, 6, 0, 2, 0
1503697353474,4, -1, 0, -1, -9, -3, -1, 2
1503697353489,-12, -4, 0, -2, 1, 2, 3, -2
1503697353513,16, -3, 0, 3, 4, -2, 0, 2
1503697353533,-9, 4, 2, 0, -2, 0, 0, 6
1503697353550,-7, 0, -1, -1, -1, 1, 1, -4
1503697353572,13, 1, 4, -1, -1, 1, 0, 4
1503697353594,4, -2, -1, -1, -2, -3, -5, -1
1503697353602,30, 6, 0, -1, -3, -3, -2, 4
1503697353624,0, -4, -4, -2, 2, -3, 7, 3
1503697353632,-9, -3, 1, 0, 5, 0, 0, -1
1503697353654,13, 13, 3, 0, -4, 0, 1, -4
1503697353669,38, 2, -1, -1, 0, -3, 2, 7
1503697353692,-4, -3, -1, 0, -5, -1, -2, 3
1503697353715,-22, -3, -2, 0, -8, -2, -1, -3
1503697353722,18, 4, 9, 0, 5, 12, 3, 7
1503697353744,1, -3, -5, 0, -6, -6, -1, 1
1503697353759,11, 0, -1, -3, -4, -3, -4, -2
1503697353782,-34, -1, 0, -2, -1, 0, 5, 8
1503697353804,8, 7, 14, 2, -5, 0, 0, -1
1503697353819,12, -4, -7, 0, 5, -1, -1, -1
1503697353834,17, 3, 1, -2, -3, 1, -2, -1
1503697353851,2, -2, -1, 0, 3, -3, -2, -5
1503697353872,-1, -3, 0, 0, 5, 1, 4, 10
1503697353894,-4, 0, 6, 1, -5, -1, -4, -11
1503697353909,-6, 4, 4, 0, 1, 1, 1, 0
1503697353932,10, -2, -4, -1, -1, 1, 1, 5
1503697353954,1, 1, -2, 0, 6, 1, 2, -1
1503697353969,-24, -6, -5, 2, -7, -1, -2, -7
1503697353992,17, -2, -2, -1, 0, 2, 0, -3
1503697354014,19, 1, -2, -1, 4, 0, 1, 7
1503697354021,13, -6, -3, -2, -2, 0, -1, 0
1503697354044,-5, 0, 1, 1, -2, 1, 0, 1
1503697354052,6, 2, -4, -5, -3, -2, 6, 3
1503697354074,-4, -2, 0, 0, 1, 1, -1, 0
1503697354089,19, 3, -1, 0, -1, -2, -3, -5
1503697354111,-8, -7, -2, 0, 0, -3, -1, -3
1503697354134,-13, -1, -1, -3, -4, -2, -5, -2
1503697354152,2, -4, -3, -2, -6, 1, 1, 1
1503697354172,2, -1, 3, 0, 1, -1, 1, -2
1503697354194,2, -2, -2, -1, -3, -3, -3, -2
1503697354209,-10, 7, 0, -2, -5, -1, 0, 2
1503697354232,46, 5, -2, 0, 1, -3, 1, 3
1503697354254,-11, 0, 0, -1, -3, 0, 3, 2
1503697354277,-29, -2, -1, 1, 1, 0, -6, -8
1503697354299,11, 7, 17, 1, -1, -1, -1, 0
1503697354314,19, 1, -2, 2, 1, 2, -1, -1
1503697354336,-6, -8, -1, -4, 0, -2, 1, -1
1503697354353,-2, -2, -4, -1, 5, 1, -2, 5
1503697354374,-52, -15, -13, -9, -6, -7, -4, -9
1503697354396,14, 6, 2, 2, 11, 1, 2, 4
1503697354411,40, 2, -1, 1, -3, 0, -1, 6
1503697354434,20, 10, 1, 2, -3, 1, 3, -1
1503697354456,-28, -15, -8, -4, -6, -3, 0, -7
1503697354472,8, -3, -2, 1, -6, -3, -6, -6
1503697354495,-36, -3, 1, -1, -1, 0, -1, -8
1503697354523,-25, -8, -4, -2, 0, 0, 2, -2
1503697354531,20, 5, -2, -2, -4, 0, -1, 8
1503697354554,-36, 3, -4, -1, 2, -1, 3, -10
1503697354576,-7, -10, -7, -4, 0, -1, 1, 2
1503697354584,-65, -15, -1, -1, 3, -2, -6, -9
1503697354607,-17, -5, -4, -6, -6, 0, -3, -9
1503697354621,-9, 1, 0, 0, 2, 1, 1, 1
1503697354636,-29, -4, -3, 1, 8, 2, 6, 6
1503697354652,74, 3, -2, 0, -1, -2, 2, 16
1503697354674,19, 4, 7, 0, 0, 2, -4, 3
1503697354696,-61, -15, -7, -4, -1, -3, -7, -19
1503697354712,35, 7, 0, -2, -10, -1, 3, 3
1503697354735,-12, -7, -4, -3, 3, 0, -3, -10
1503697354757,-37, 0, -3, -2, -1, -1, -4, 0
1503697354772,7, -3, -3, 0, -1, 0, 1, -1
1503697354797,10, 1, 5, 1, -2, 3, 3, 13
1503697354816,-9, 0, -1, -1, 0, -4, -8, -9
1503697354831,-34, 8, 1, 1, 4, 3, 7, 1
1503697354856,50, 4, 2, 0, -3, -3, -1, 4
1503697354876,3, -3, -1, -1, -1, -1, 1, 1
1503697354892,-3, 2, 0, 0, 0, 0, -6, -2
1503697354914,-9, -2, 1, 0, 0, -2, -2, -4
1503697354936,11, 19, 14, 0, 2, -1, -3, -6
1503697354952,-7, -6, -9, 0, 7, -1, -1, 1
1503697354974,-6, -6, -5, -3, -4, -5, -2, -6
1503697354996,12, 2, -1, -1, -3, 0, -4, -7
1503697355004,-10, 1, 1, -2, -2, -4, -2, -4
1503697355026,-39, -4, 1, -1, 1, -1, -2, -6
1503697355041,21, 4, 1, -1, -3, 2, 2, 7
1503697355064,31, 2, -1, 1, 5, 2, 3, 5
1503697355072,-2, 0, 1, 0, -2, -2, 1, -3
1503697355094,6, 1, -2, -2, 0, 0, 0, 4
1503697355117,-9, 7, 5, 2, 1, 0, -1, -1
1503697355133,25, -3, -3, -3, -2, 0, 5, 8
1503697355154,15, 0, -1, 0, 1, -1, -4, 2
1503697355176,1, -2, -1, -1, 0, -1, 1, -4
1503697355199,10, 1, -1, -3, -2, -3, -3, -3
1503697355214,-28, -5, 1, 1, 2, 2, -3, -2
1503697355236,-25, -2, -5, 0, -2, 2, -1, -7
1503697355259,-4, -1, 1, 0, 2, 2, 1, 2
1503697355274,20, -2, 2, -1, 0, -2, -2, 4
1503697355296,-22, -7, -4, 0, -3, -1, -4, -6
1503697355318,6, 1, 2, -2, -1, 0, 2, -4
1503697355335,-15, -1, 0, 2, 1, 1, 2, 1
1503697355356,12, -3, -4, -2, -2, -2, -3, -5
1503697355378,-14, 1, 1, -1, 0, 0, 2, 5
1503697355397,-1, 2, 1, 0, -1, -1, -2, -5
1503697355416,14, 1, 5, -1, -4, -2, -1, 0
1503697355438,-2, -6, -3, -3, -2, -1, -2, -1
1503697355454,19, 3, -5, -4, -2, -1, 0, 0
1503697355469,16, 0, 1, 2, -1, -1, -1, 2
1503697355483,-19, -6, -3, -1, 1, 2, -1, 0
1503697355506,-8, -2, -2, 0, 1, -1, 2, -1
1503697355528,18, 0, -2, 1, -1, 1, -4, -5
1503697355550,-4, -6, -2, -1, -2, -2, 0, 1
1503697355566,12, 2, -2, -2, -2, 0, 1, 1
1503697355588,-8, 0, 0, -2, -3, -1, -1, 0
1503697355604,-14, 6, 9, 3, 2, 1, -2, 0
1503697355629,-1, 0, 0, 1, 0, -3, -2, -2
1503697355648,17, 3, 1, -2, 1, -1, 0, -2
1503697355664,-7, -4, -2, 0, 1, 2, 1, 0
1503697355687,-11, -1, -1, -2, -4, -2, -1, -6
1503697355708,3, 1, 2, 1, -3, -1, -2, 2
1503697355723,-8, 0, -3, -2, -2, -9, -1, 0
1503697355746,-4, -1, 7, -1, 0, 1, 0, 1
1503697355768,-5, -5, -6, -2, -1, 1, 1, 1
1503697355783,-3, 0, -1, 0, 0, 2, -1, -2
1503697355807,0, -4, -6, -3, -2, 1, 2, 1
1503697355830,6, 1, 1, 3, 1, -1, -1, 1
1503697355843,17, 11, -4, -1, 0, -3, -3, -5
1503697355866,-51, -7, -1, -2, -3, -3, 0, -7
1503697355888,-2, -3, -1, -2, -2, 0, 0, -3
1503697355903,11, -1, 0, -1, 0, 1, -3, -1
1503697355926,-8, -10, -6, -4, -1, -1, -1, 0
1503697355948,1, -14, 0, 3, 1, 1, 0, 4
1503697355964,50, 2, -7, -2, -2, -2, -2, 1
1503697355986,14, 3, 2, -1, 2, 2, 0, 1
1503697356008,6, 10, 7, -2, -2, 0, -1, 3
1503697356024,-8, -6, -5, -2, -4, -2, -1, 0
1503697356046,-26, 2, 4, -1, 1, 1, -1, -2
1503697356068,-30, -15, -5, -2, -2, -1, 0, 2
1503697356090,28, 11, 5, 2, 0, 1, 0, 0
1503697356107,-39, -7, -5, 0, 0, 1, 1, -2
1503697356136,-10, -3, -2, -2, -1, -1, -2, -2
1503697356151,8, 8, -9, -1, -1, -2, -2, -2
1503697356168,18, 1, -10, -2, -2, -2, -1, -1
1503697356188,8, 7, 16, 2, 1, -1, -2, -2
1503697356211,-11, 3, -4, -1, -2, -1, 5, 0
1503697356227,20, 1, -5, -1, -2, -2, -3, -2
1503697356248,-5, -6, -1, -3, -2, -2, -2, 0
1503697356271,3, 5, 14, 0, -1, 1, 1, -1
1503697356279,-1, 2, -5, 4, 1, 0, -2, -4
1503697356302,1, -3, -2, -2, -1, 0, 1, 2
1503697356316,-18, -6, -3, -2, 0, -1, 0, -2
1503697356339,-1, 1, 13, 5, -3, -1, 1, -1
1503697356361,0, -2, 3, 0, -2, -3, -1, -1
1503697356376,-28, 0, -1, -1, -2, -1, -6, -4
1503697356399,14, -3, -6, -3, 2, 1, 1, 2
1503697356421,-35, -11, -10, -4, 0, -1, -1, -5
1503697356436,8, -2, -6, -4, -2, 0, -2, 1
1503697356458,-2, -2, -5, -2, -5, -3, -3, -3
1503697356481,12, 1, -5, -1, 0, 2, 3, 2
1503697356496,-10, -3, 1, 0, 0, 0, -3, -4
1503697356518,-2, 2, -3, -1, 0, -2, 2, -2
1503697356541,-3, -3, 1, -2, -2, 0, -4, 0
1503697356556,13, -3, -1, 0, 2, 3, 5, 4
1503697356578,24, 16, 0, 1, 1, -2, -3, -3
1503697356602,13, 0, 2, 1, -6, -2, 1, 0
1503697356616,10, 4, 12, 1, -2, 0, -1, 2
1503697356639,-20, -7, -6, -3, -1, -3, -1, -2
1503697356661,-10, -5, 0, -3, 1, 0, -2, -2
1503697356677,-12, -4, -3, -1, -3, -1, -1, -3
1503697356698,-3, -14, -10, -3, 1, -4, -3, 0
1503697356721,-10, -2, -1, 2, 4, -1, -3, -4
1503697356736,-6, 5, 6, 2, 1, 2, 0, -1
1503697356759,9, -3, -13, -3, -1, -2, 0, -2
1503697356781,-30, -2, 10, 0, -1, -1, -2, -5
1503697356796,24, 4, -3, 1, 0, 1, -1, 0
1503697356818,45, 7, -1, 1, -2, -1, 4, 9
1503697356841,-23, -8, -7, -4, -1, 1, -4, -5
1503697356856,-11, 2, -1, -1, 1, 2, 1, 2
1503697356879,-5, -4, 3, 1, -3, 1, -3, -1
1503697356903,-26, -3, -7, -4, -2, -1, 2, -6
1503697356916,-9, -2, -1, -3, -2, -5, -3, 0
1503697356939,-25, -4, 3, 6, -7, -7, -4, -8
1503697356947,-29, -14, -3, 1, 2, 0, -2, -3
1503697356970,34, 6, -6, 0, -1, -1, 1, 3
1503697356990,23, 3, 1, -2, 0, 0, -4, 2
1503697356999,31, 1, 3, -1, -2, -2, -1, 5
1503697357021,-8, -4, -4, -2, 1, -2, -5, -7
1503697357043,-2, 3, 2, 0, 2, -2, -3, -2
1503697357058,10, -3, -3, -1, 1, -5, -4, 4
1503697357081,9, 2, -1, -1, -7, 0, 0, -1
1503697357105,-22, 1, 0, -1, 1, 4, 3, 2
1503697357133,34, 9, 0, 1, -4, -1, -1, 4
1503697357149,1, -2, -4, 0, -1, -2, 0, -4
1503697357172,10, 1, -3, -3, -1, -1, 0, 4
1503697357178,-32, -3, -1, 0, 0, -7, -3, -4
1503697357193,-10, 2, 0, -1, -3, -5, -3, -3
1503697357208,15, 3, -1, -2, -2, -1, -5, 1
1503697357230,-50, -9, -6, -2, -2, 0, 2, -2
1503697357253,33, 3, 2, 2, 1, 0, 0, 5
1503697357268,-4, -3, -1, -2, -1, -5, 2, 3
1503697357290,-15, -3, -2, -2, -2, -3, -2, -3
1503697357313,-47, -8, 9, 4, 2, -1, 0, -5
1503697357328,6, -2, -2, 1, -3, 3, 1, -2
1503697357350,-4, -7, -11, -6, -3, 2, 4, 1
1503697357374,39, -1, 1, -1, 1, -1, -3, 6
1503697357388,19, 4, -3, -3, -2, 0, -1, 2
1503697357410,-16, -5, -4, -1, 1, 1, -2, -12
1503697357433,-10, 12, 4, -1, -6, -4, -1, 5
1503697357457,26, 16, 10, 1, -3, -1, -3, 2
1503697357472,7, -1, -3, -2, -3, -3, -1, -15
1503697357494,7, -4, -5, -1, 4, 2, -1, 5
1503697357516,-23, -11, -1, -1, 0, -3, 1, -6
1503697357531,7, -3, -2, -1, 4, -4, -6, -5
1503697357554,15, 3, -3, -4, -2, -1, -2, 8
1503697357578,36, 5, 3, 2, 4, 3, 1, 3
1503697357591,4, -2, -3, 0, -2, -2, -1, -6
1503697357614,-22, -4, -1, -3, -5, -3, -8, -3
1503697357636,-16, -8, -10, -2, 1, 1, 2, -5
1503697357651,13, -3, 0, -1, -8, -1, -3, 19
1503697357675,-29, -4, -4, -2, -1, -1, 3, -9
1503697357696,23, 6, 6, 1, 5, 2, 1, 2
1503697357712,-10, -3, -2, 1, -1, 3, 0, -1
1503697357734,-5, -3, 3, 2, -1, -3, -2, -3
1503697357757,12, -1, -3, -2, 3, -3, -2, 2
1503697357771,4, 5, 3, -1, -3, -1, 1, -4
1503697357779,-14, -3, 3, 2, 6, 0, 2, -2
1503697357801,-6, -3, -1, -3, -4, -4, -6, -1
1503697357823,24, -5, -2, -2, -4, -2, 0, 5
1503697357838,15, 7, 0, -1, -4, -6, -10, -17
1503697357861,-22, -4, 3, 1, 2, 3, 6, -1
1503697357883,13, 5, -1, -3, -8, -2, -3, 3
1503697357898,-25, 0, 3, 1, -1, 2, -5, -9
1503697357921,3, 1, -2, 0, 1, -2, -1, 3
1503697357945,-2, -2, 1, -2, 4, -1, 0, -3
1503697357966,2, -2, 4, 0, 2, 2, 2, 6
1503697357981,-26, -10, -5, -1, -1, 1, -2, -3
1503697358003,18, 4, 3, -1, 0, 0, -1, 0
1503697358026,19, 1, 0, 1, -3, -5, -2, 4
1503697358041,-13, 0, 0, -2, -1, 0, -2, -1
1503697358063,-18, 0, 5, -2, -1, -3, -6, -5
1503697358086,6, 7, 9, 3, 1, -3, 3, 5
1503697358101,-10, -1, -7, -3, 0, 0, -8, -13
1503697358123,1, -6, -12, -7, -6, -3, 5, 3
1503697358147,17, -2, 2, 5, 2, 7, 6, 10
1503697358161,-13, -1, -2, 1, -1, 0, -3, -4
1503697358184,36, 8, -4, -1, -3, 4, 7, 40
1503697358206,-42, -9, -5, -1, 2, -1, -1, -13
1503697358223,10, 0, 3, -1, -3, -4, -5, -9
1503697358243,-5, 0, -1, -2, 1, -4, -3, -3
1503697358266,0, -3, 5, 2, -2, -3, -1, 1
1503697358281,38, 4, 0, 1, 0, -5, -3, -9
1503697358304,-11, -10, -6, 1, 3, 1, 7, -1
1503697358326,-22, -8, -7, -8, -7, -3, -7, -7
1503697358341,5, 2, 0, -1, 5, 2, -3, -1
1503697358363,-14, 0, -1, -1, -2, -1, 0, 2
1503697358387,-18, -7, -6, -1, 2, -2, -10, -10
1503697358402,-11, 1, 0, 1, 0, 2, -1, -4
1503697358424,5, 3, 0, 2, 3, 0, 1, 5
1503697358449,-12, -3, -2, -2, -3, 0, -1, 0
1503697358461,15, 1, -3, 0, 5, 2, 0, 1
1503697358483,10, -3, -5, -1, -2, 9, 3, 2
1503697358491,-6, -2, 0, -1, -1, -2, -2, -1
1503697358515,-18, -11, 2, -1, -1, -1, 2, -4
1503697358536,-9, -5, 1, 1, -4, -1, 1, -3
1503697358551,-36, -4, 0, 0, 0, 3, 0, 0
1503697358574,-18, 2, -11, -6, 6, 1, 1, -3
1503697358596,8, -5, 3, -1, -1, -1, -4, -4
1503697358611,-9, -10, -5, 2, -2, 3, 3, 2
1503697358634,-52, -8, 0, -3, -1, 0, -2, -3
1503697358657,18, 6, 3, -1, -2, -2, -1, -1
1503697358678,6, 3, 1, 0, 4, -4, -5, -2
1503697358694,19, 7, 4, 0, 5, 0, -3, 1
1503697358717,29, -2, -1, -1, -5, 0, 1, 2
1503697358731,-2, 5, -2, 0, -1, -7, 0, -4
1503697358754,-14, 3, -4, -2, 0, 2, 2, -1
1503697358777,-1, 0, 4, 1, -9, -1, -7, -6
1503697358792,5, -1, -1, -1, -1, 1, 1, 0
1503697358814,16, 0, 0, -2, -4, -3, -1, 1
1503697358836,-9, -8, -4, 0, -1, 3, 0, -6
1503697358852,8, -3, -5, 0, 1, -1, 1, 4
1503697358874,3, 0, -1, -1, -3, 11, 2, 0
1503697358896,-8, -5, -6, -2, -2, -2, -3, -4
1503697358918,38, 10, 16, 3, -1, -3, -1, 3
1503697358934,-57, 3, -1, -1, -2, -1, 1, 4
1503697358956,23, 7, 2, 1, -6, -3, -3, 5
1503697358978,-31, -10, -7, -4, -1, -6, -3, -8
1503697358994,23, 2, 1, 3, -3, -1, -1, 0
1503697359019,-6, -5, -7, -1, 1, 1, 1, -5
1503697359038,2, 5, 0, -2, 3, 0, 4, 3
1503697359054,-48, -4, 1, 0, 3, -1, -7, -9
1503697359076,25, 0, -8, -4, 0, -4, -2, -2
1503697359098,4, -6, -5, -4, -2, 11, 3, 1
1503697359114,-19, -2, 1, 0, 5, -4, -3, 1
1503697359136,13, -4, -4, -3, -2, 0, 3, 0
1503697359159,-2, 0, 1, -1, 4, -4, -6, -3
1503697359174,27, 7, -3, -1, -5, -2, -3, 1
1503697359196,-25, -16, 0, -4, -3, -1, 3, 1
1503697359220,-1, 2, 1, 3, -4, -1, -3, -1
1503697359235,-10, -6, -6, -1, -2, 7, 2, 2
1503697359259,-19, 1, 3, 0, -1, -6, -4, -1
1503697359278,12, 3, 4, 0, -1, 0, 0, -2
1503697359295,-22, 1, -4, -1, 0, 1, 1, -2
1503697359316,14, -4, -3, -2, -4, -4, -3, -1
1503697359338,-1, 3, 6, 2, 1, -7, 1, -4
1503697359354,30, 8, 3, 2, -1, 3, 0, 9
1503697359376,51, 16, 6, 0, -2, -5, -3, -4
1503697359398,-12, -8, 4, -2, 1, 1, 0, 2
1503697359414,-6, -6, -9, -1, 2, 0, -2, 0
1503697359436,-6, -6, -6, -2, -1, -2, -1, -2
1503697359459,12, 0, -2, -4, -5, -1, 1, -10
1503697359474,0, 1, 3, 2, -3, -1, 1, 2
1503697359496,41, 15, 2, 1, 0, 1, 0, 2
1503697359518,-50, -9, -5, -1, 7, 2, 3, -1
1503697359534,-14, -5, -3, -4, -4, -1, 1, -1
1503697359564,52, 8, 4, 2, -3, -6, -8, -4
1503697359578,-13, -4, 1, 0, 3, -2, -5, -9
1503697359594,12, 1, 0, 1, -1, -3, -2, -2
1503697359616,-43, -15, -4, -1, -2, -1, 2, -5
1503697359648,0, -5, -1, 0, 8, 2, -1, 3
1503697359668,-6, 14, 2, -3, -4, -2, -4, -8
1503697359683,27, 1, -4, -1, 2, 2, 0, 1
1503697359706,5, 3, 0, 0, -1, 0, -1, -4
1503697359729,-19, -1, -3, -1, -3, 0, -2, 7
1503697359743,-16, -4, 1, -1, -2, -3, -5, -4
1503697359766,26, -2, -2, 1, 2, 11, 4, 2
1503697359790,1, -6, -3, 0, 0, -5, -3, -2
1503697359803,-11, 2, 0, 0, 4, 2, 4, 4
1503697359833,29, 3, 0, -2, 2, -1, 5, 11
1503697359848,-22, -6, 4, 2, -3, -4, -12, -10
1503697359859,3, 5, -2, 1, 1, -2, 1, -6
1503697359878,-14, -2, -2, -2, -1, 1, 3, 4
1503697359901,31, -1, -2, -4, -6, -1, 0, 1
1503697359916,1, -2, -3, -2, 4, -1, -2, 10
1503697359938,-15, 0, 1, 1, -2, -2, -6, -6
1503697359961,-1, 0, 4, 2, 3, 1, 3, 2
1503697359976,-18, -8, -4, -2, -3, 2, 3, -2
1503697360000,-15, -4, -1, 1, -2, -1, -3, -4
1503697360021,19, 3, -3, -1, -3, -4, 0, 2
1503697360036,15, 0, -1, -3, -7, 0, -1, -3
1503697360059,-10, -4, -2, -3, -4, 0, -8, -5
1503697360081,2, 4, 3, 0, 2, -1, 0, 3
1503697360096,-29, -1, -2, 1, 4, 2, 4, -1
1503697360118,-1, -2, 1, 1, 0, -1, -2, -5
1503697360141,-1, -2, -1, 2, -2, -1, 1, -1
1503697360156,-8, -1, -2, -1, 1, -1, 0, -5
1503697360179,24, -3, -8, -4, 0, 0, 3, 6
1503697360201,15, 0, 0, -2, -3, -2, -1, -3
1503697360216,-6, -3, -4, -2, 1, -1, 0, 0
1503697360239,-9, -2, 0, 0, 1, -1, -1, -2
1503697360261,6, 3, 0, -1, -1, 1, 1, 3
1503697360276,-48, -7, 1, -1, -6, -2, -3, -10
1503697360300,-12, 0, 11, 4, -2, -1, -1, -7
1503697360321,56, 5, 0, 0, 0, 1, 0, 6
1503697360329,6, -1, -1, 0, 1, -1, -2, 2
1503697360351,25, 11, 17, 3, 1, -1, -1, -3
1503697360366,-21, -5, 3, 1, 0, 0, 0, -4
1503697360388,4, 12, 4, -1, -1, 0, 1, 3
1503697360411,1, -3, 1, -1, -3, -3, -1, -4
1503697360427,-22, -5, -8, 0, -3, -2, -4, -4
1503697360455,44, 2, 3, 4, 3, 1, 1, 1
1503697360471,-10, -6, -6, -5, -2, 0, -2, 4
1503697360486,-7, -9, -4, -2, -2, -2, -2, -2
1503697360508,-9, -5, -5, -1, -2, -5, -9, -5
1503697360531,-5, -1, -3, 3, -1, 0, -4, -9
1503697360546,-34, -2, -1, -1, -1, -1, 2, -4
1503697360568,-6, -2, -1, -4, 0, -1, 0, -1
1503697360591,-6, 10, 1, 0, 1, 1, 1, 1
1503697360606,-3, -7, -4, -1, -1, -7, -7, -2
1503697360629,12, -2, -2, 1, 2, 0, 1, -1
1503697360651,4, 4, 4, -3, -3, 1, -1, 0
1503697360666,17, -2, 2, 0, -2, 0, 2, 6
1503697360688,-13, -6, -10, -3, -1, 0, 2, -1
1503697360711,2, 2, -4, 0, 0, 2, 1, 1
1503697360726,14, 1, 2, 0, 1, 0, 2, 1
1503697360748,-13, -2, 0, -2, -1, -2, -1, -1
1503697360771,5, 4, 3, 0, -1, -2, 1, 0
1503697360793,13, 3, -2, -1, -1, -2, -2, -2
1503697360808,-3, -2, 2, 0, -1, 1, 1, 1
1503697360832,13, 6, 1, 2, 0, 2, -1, 3
1503697360853,-11, -5, -1, 0, -3, -2, -2, -3
1503697360869,9, 8, 7, -1, 0, 0, -2, 0
1503697360891,-10, -5, -7, -2, 0, -1, -2, -5
1503697360913,2, -2, -6, 0, -2, 0, 1, 1
1503697360935,-23, -7, -3, 0, -1, 0, -2, -4
1503697360958,35, 13, 2, -1, -1, -1, -2, -1
1503697360973,-20, -11, -2, -5, 0, -1, -1, 0
1503697360988,-1, -3, 0, -1, -1, -2, 0, 1
1503697361011,-5, 1, 2, 0, -1, 0, 2, 0
1503697361033,-10, -2, -6, -3, 0, -1, 1, -1
1503697361049,0, -7, -1, 0, -2, -2, -4, -2
1503697361071,15, -10, -5, -1, -1, -1, -2, -5
1503697361092,2, 4, 2, -3, 1, 1, 2, 4
1503697361101,-17, 3, 6, 2, 1, 2, 4, 6
1503697361123,-7, 8, 0, -4, -2, 0, -5, -9
1503697361140,8, -3, -4, -4, -2, -1, -2, 2
1503697361161,11, 0, -4, -3, -1, -2, -1, 1
1503697361183,-27, -4, -1, 0, -2, -5, -1, -5
1503697361200,1, -2, -6, -4, -3, -2, -3, -4
1503697361221,-9, -10, -6, 3, 1, -1, 1, -2
1503697361243,13, -5, -5, 1, 0, 1, -1, 3
1503697361259,-35, -7, -5, -3, 1, 1, 0, -1
1503697361273,-1, 0, 2, -2, 0, -1, -1, -4
1503697361295,-6, -4, -7, 2, -2, -2, -1, 2
1503697361311,31, 1, -1, 0, -2, -3, -1, 1
1503697361335,-5, -6, -5, 1, 0, -5, 0, -1
1503697361348,-4, 2, -5, -4, -3, -3, -4, -3
1503697361371,-5, 2, 5, 2, -1, 3, 2, 1
1503697361393,-12, 3, -5, -3, 1, 2, 2, -4
1503697361408,-4, -2, 4, -1, 0, -2, 2, 1
1503697361431,3, 7, -2, 0, -4, -4, -4, -2
1503697361452,37, 12, 1, -1, -1, -2, -4, -4
1503697361461,-6, -15, -6, -5, -3, -1, -2, 5
1503697361470,28, 1, 2, 0, -2, 0, -1, 3
1503697361491,-20, -2, -1, -3, 0, 0, 0, -1
1503697361512,-5, -9, -5, -3, -17, -6, 4, 4
1503697361521,-5, 0, -9, -1, -5, -1, -1, -6
1503697361544,14, 8, 3, 3, 4, 1, 2, 3
1503697361559,-8, 1, -2, 0, -1, -1, -3, -8
1503697361581,0, 1, 10, -1, -2, -1, -1, 1
1503697361604,37, 8, -3, -1, -2, -2, 2, 2
1503697361619,-1, -4, -1, 0, 2, 1, -4, -2
1503697361641,11, 1, -5, -2, 7, -7, 4, 3
1503697361663,4, -7, -3, -2, -6, -3, -7, -5
1503697361686,-11, -1, 8, 3, 0, -1, 1, 2
1503697361701,38, 14, 1, 0, 1, 3, 2, 2
1503697361723,29, -1, -2, -1, 2, 4, 2, 4
1503697361746,-18, -3, -1, -2, -1, 2, -2, -4
1503697361761,32, 7, -2, -1, 0, -2, 2, 2
1503697361783,-6, -2, -6, -3, -2, -2, 1, 2
1503697361807,-42, -11, -1, -1, -3, -5, -3, -2
1503697361821,-39, -14, -5, -3, -3, 2, -5, -5
1503697361843,15, -4, -3, -2, -3, -1, -3, -1
1503697361866,-1, -2, 1, -1, 0, 2, 1, 2
1503697361881,-22, -2, -1, -1, -2, -4, -4, -7
1503697361905,-19, -4, 0, 2, 0, 0, 1, -6
1503697361926,-7, 1, -1, -1, -1, 1, -1, -1
1503697361941,-18, -3, 1, -1, -1, -2, -1, -3
1503697361964,9, 1, 3, 0, -3, -5, -2, -2
1503697361986,14, -9, -8, -4, 0, -1, -2, 0
1503697362001,8, 4, -3, -3, -3, -2, 3, 2
1503697362023,9, 0, 2, -2, -2, 6, -5, -5
1503697362046,-5, -1, -2, 3, -9, -10, -4, -3
1503697362053,-18, -6, -3, -2, 1, -1, 0, -2
1503697362075,12, -6, -3, -4, -3, -3, -2, 2
1503697362091,-12, -8, -3, 0, 2, 1, 2, 3
1503697362113,14, 12, 2, 5, 3, 0, 3, 1
1503697362135,-8, 6, 2, 0, -4, -5, -12, -1
1503697362151,-10, -3, 1, 1, -6, -2, -1, -4
1503697362174,0, -5, 0, -1, -2, 3, -12, -3
1503697362182,3, -5, -9, -2, 0, -2, -2, 0
1503697362203,1, -5, -3, 0, 1, 2, 8, 6
1503697362225,29, 8, 3, 2, 3, 0, 1, 3
1503697362255,-14, -1, 1, 0, 2, 16, 3, -2
1503697362271,8, 6, 1, -2, -3, -4, 6, 6
1503697362292,-17, 2, 0, 2, 6, 4, 2, -5
1503697362317,-7, -8, -4, -3, -10, 2, 5, 3
1503697362331,8, 6, -1, -2, 0, -2, 1, 0
1503697362347,-4, -3, 0, -3, -7, -8, -1, 5
1503697362361,41, 10, -2, -1, -1, 8, 2, 4
1503697362384,15, 3, -2, 1, 3, 4, 2, 0
1503697362406,21, -2, -1, -2, 4, 2, 1, -6
1503697362421,-1, 6, 8, 4, -1, -2, -1, -5
1503697362443,-2, 0, 0, 0, 2, 2, -2, -3
1503697362466,-6, -2, -4, -2, -4, -10, 0, 2
1503697362481,7, 0, -2, -3, -1, 2, 5, 6
1503697362503,-2, -1, 2, 1, -3, -6, -1, 1
1503697362526,-52, -20, -10, -8, -2, 0, -1, -7
1503697362543,14, 4, 3, 3, 4, 7, 1, 4
1503697362563,-9, 2, -2, 0, 5, 3, 2, 0
1503697362591,16, 4, -1, 1, 2, -3, -9, -2
1503697362601,26, 8, 3, 1, 5, 5, 9, -5
1503697362623,13, 4, 0, 0, -3, 3, -3, 0
1503697362646,-35, -9, -4, 1, 0, 7, 2, 2
1503697362668,-11, -2, -7, -3, -6, -5, 1, -6
1503697362684,-4, 1, 2, 0, -2, 2, 6, 5
1503697362706,-17, -4, -2, 0, 0, -6, 1, -7
1503697362728,14, -2, 3, 3, 1, 5, 0, 7
1503697362744,31, 6, -3, -1, -1, 1, 2, 15
1503697362766,7, -3, -2, -2, -2, -1, -5, -6
1503697362790,28, 1, -2, -1, 7, -2, 3, 2
1503697362803,-52, -4, 7, -1, -3, -2, -2, -7
1503697362826,-45, -18, -8, -5, -2, 1, 2, 0
1503697362849,-42, -1, -1, 0, 3, -4, -9, -11
1503697362863,14, -1, 1, -2, -6, -3, -3, 5
1503697362886,42, 10, -2, -1, 0, -2, -1, -8
1503697362908,-67, -9, -4, -1, -6, -1, -8, -7
1503697362923,37, 3, 1, -2, 1, -1, 4, 4
1503697362947,16, 7, -3, 1, 6, 4, 0, -3
1503697362968,39, 2, -6, -1, -3, 1, 2, 8
1503697362985,27, -2, 8, 2, -2, -2, 0, 11
1503697363006,-19, -7, -1, -2, -1, 0, 5, 1
1503697363028,-8, -1, -2, 1, -5, -2, -6, -6
1503697363043,-18, 0, 2, 0, 1, 2, -3, -5
1503697363066,-25, -1, -2, -3, 1, 0, -3, -6
1503697363088,-13, -2, -4, -4, 0, -8, 4, 3
1503697363103,-2, 5, -1, 2, -4, -1, -2, 0
1503697363127,-1, -8, -1, -1, -1, -1, -4, -3
1503697363150,-18, -8, -4, 1, -5, -1, 5, -1
1503697363163,26, -2, -2, 0, -3, 0, -2, -1
1503697363187,20, 3, -1, -2, -8, -1, -2, 4
1503697363208,10, 1, 0, -2, -1, 0, 2, 0
1503697363223,-6, 2, 2, -1, 2, -2, -6, -4
1503697363248,7, 2, 3, 0, 1, 4, 1, 0
1503697363268,-3, -3, -4, -3, 2, -2, -4, -5
1503697363284,-30, -3, -4, -1, 2, -1, -6, -6
1503697363305,15, 2, -3, -3, 0, -1, 2, 6
1503697363321,-1, 0, -2, -1, 3, 2, 5, 5
1503697363336,-18, 5, -5, -1, -3, -1, 1, -3
1503697363359,-4, -8, -6, -4, -5, -8, 1, 0
1503697363384,34, 5, 4, 2, -1, 2, -2, 0
1503697363396,-2, 0, -3, -2, 3, 2, 3, -1
1503697363419,-4, -4, -1, -1, 6, 0, -4, -2
1503697363441,-7, 1, -3, -5, -10, -1, -1, 0
1503697363456,-12, -4, 2, 1, 1, -2, -2, 2
1503697363479,-19, -8, 0, 1, 2, 0, -2, -3
1503697363501,-5, -1, -3, -2, 1, -1, -1, -2
1503697363523,22, -2, -4, -2, -3, -3, -9, -4
1503697363539,-6, -2, 0, -1, -5, -2, 0, -2
1503697363562,-18, -6, 2, 3, -1, -1, -1, -2
1503697363577,-15, 0, 2, 1, -2, -1, 6, -1
1503697363599,-29, -4, -3, -3, 0, -8, -4, -2
1503697363621,5, -1, 1, 1, 0, 1, 0, 1
1503697363637,2, 9, 13, 1, 16, 4, -2, -1
1503697363660,22, 2, -3, -3, -9, -1, 2, -1
1503697363684,33, 7, -6, -4, -1, 1, 0, 4
1503697363696,-17, -11, -8, -3, 0, -1, -2, 1
1503697363719,9, 4, 0, 1, 0, 1, -1, -2
1503697363741,41, 3, 2, 0, -1, -6, -5, -3
1503697363760,-3, -3, -3, -1, -7, -2, 1, 4
1503697363779,21, 0, -2, 2, 2, 0, 0, 0
1503697363801,-34, -2, 1, -2, -2, 0, -1, -6
1503697363819,-25, -4, 3, 1, 2, 0, 0, -2
1503697363831,18, 2, 7, 1, -4, -3, -3, -1
1503697363846,-18, -4, -4, 0, -1, 0, -4, -6
1503697363868,-22, -8, -9, -4, -4, -2, -4, -4
1503697363891,-6, 4, 5, 2, 2, -2, 0, -3
1503697363905,7, 0, 2, -1, 2, 1, 3, 9
1503697363928,-23, -6, 1, -1, 0, 1, 2, -4
1503697363953,2, 5, 3, 0, 5, 0, -1, 0
1503697363966,-34, -7, -3, 0, 0, -1, 1, 1
1503697363988,12, -3, -1, 0, -2, -2, -3, -1
1503697364011,10, -2, -3, 0, 1, -1, 4, 0
1503697364026,-30, -12, -6, -1, 0, -2, -6, -11
1503697364048,22, 1, -1, 2, 0, 2, 1, 1
1503697364071,-5, -2, -1, -2, -1, 0, -1, -4
1503697364087,5, 0, -3, -3, -3, -3, 0, 5
1503697364115,-18, -9, -1, -3, -5, -4, -6, -6
1503697364131,-16, 2, 2, 2, 1, 0, 0, 1
1503697364146,8, 6, -5, -4, -6, 0, -4, 2
1503697364168,9, -4, -1, 0, -5, -1, 1, -7
1503697364190,-18, 5, 3, 0, -5, 0, 8, 14
1503697364199,-49, -9, -7, -2, -4, -2, 1, -2
1503697364206,0, -2, -1, -4, -2, -2, 1, 7
1503697364228,0, -2, 3, 1, 0, -2, -2, -6
1503697364251,9, 2, -1, 0, 2, 0, 2, 3
1503697364266,23, 2, -1, 1, 6, -2, -5, -5
1503697364288,32, 6, 0, -1, -5, 0, 3, 28
1503697364311,-26, 1, -8, -4, 1, -2, 0, -9
1503697364326,0, 2, 2, 0, -2, 2, 4, -6
1503697364348,19, 0, 3, 0, -1, -3, -8, -5
1503697364371,-48, -5, 0, -4, -6, -1, -3, -9
1503697364385,8, -1, -3, 0, -2, 3, 5, 3
1503697364408,-13, -8, 1, -1, 2, -1, 4, 3
1503697364431,-27, -11, -10, 0, 0, -4, 0, -14
1503697364446,5, 6, 6, 1, 0, 0, -1, 8
1503697364468,7, 8, 3, -1, -2, 1, -5, 0
1503697364491,0, 5, 1, -1, 4, -1, -2, -8
1503697364513,-12, 0, 1, 1, 0, -1, -2, -3
1503697364529,37, 7, 0, 1, -1, 1, 0, 7
1503697364551,1, -3, -2, 0, -2, 2, 3, 6
1503697364573,-40, -6, 2, 1, 8, 2, -3, 0
1503697364590,-56, -5, 1, 1, 0, -4, -5, -8
1503697364610,15, -7, -2, -1, -2, -1, -5, -6
1503697364633,-4, -5, -6, -2, 0, -1, -1, -3
1503697364648,16, 2, 0, -1, -2, -1, 2, 2
1503697364671,8, 0, -2, -5, -5, 0, 2, -4
1503697364693,39, -1, -7, -3, -4, -2, -3, -2
1503697364708,-2, 0, 2, 2, 0, -2, 0, 4
1503697364733,-5, -3, 0, -1, 0, 0, -1, -2
1503697364753,-2, 2, 1, 1, 1, 0, 2, 2
1503697364783,16, 0, -1, -1, -4, 1, 1, -2
1503697364799,2, -7, 1, 1, -4, -2, 1, 0
1503697364821,27, -2, -3, -2, -1, 1, 1, 6
1503697364844,8, 5, 4, 0, 0, -1, 0, 1
1503697364863,-30, -7, -4, -1, 1, -1, 1, -4
1503697364882,5, 3, -8, -2, 2, 2, -2, 1
1503697364903,-5, -1, 3, -1, 0, -2, -3, -3
1503697364919,-7, -4, 6, -1, -1, -1, -2, -2
1503697364941,13, 11, 7, 2, -1, 2, -1, 4
1503697364964,16, 2, -1, 0, -1, -1, -1, -4
1503697364979,-9, -2, -3, -1, -1, -1, -1, -1
1503697365002,5, 3, -2, -2, -1, -1, 0, -1
1503697365023,-53, -5, -1, -3, 2, -2, 1, -5
1503697365039,-43, -18, -2, 0, -1, 1, -1, -4
1503697365061,-42, -6, -3, -2, -3, -4, -4, -5
1503697365083,27, 3, 0, 0, 2, 1, 3, 7
1503697365099,6, 5, -3, -2, -1, 1, 1, 1
1503697365122,10, -1, 3, 0, 1, -1, -2, 0
1503697365133,-16, -3, -2, 0, -2, 1, 2, 0
1503697365151,-1, 3, 7, 1, 1, -1, -4, -1
1503697365173,-28, 1, -5, -1, -1, -2, -3, -5
1503697365188,11, -7, -5, -4, -3, -3, 0, -2
1503697365210,-4, -6, -4, -1, 0, 0, 0, -1
1503697365219,23, 2, -2, -1, 1, 1, 1, 1
1503697365241,2, 10, 11, 2, 0, 1, -1, -1
1503697365265,-10, 2, -5, 2, -1, 0, -2, -2
1503697365279,20, -2, -6, -4, -2, -4, -3, -3
1503697365302,-9, 1, 4, -1, -3, 1, -1, 0
1503697365323,-5, 3, 1, 2, -1, 0, 0, 0
1503697365339,-4, -9, -14, -2, 0, -1, -1, 1
1503697365365,3, -4, -2, -2, -2, -2, -1, -1
1503697365383,13, 6, 11, -1, 0, 2, 1, 3
1503697365399,-13, -1, 1, 0, -2, -2, -3, -3
1503697365421,3, 1, 5, 2, 1, 1, -1, -2
1503697365443,11, -5, -5, -1, -1, 0, 1, 1
1503697365467,26, -2, -5, -4, -2, -1, -3, 1
1503697365482,13, 8, 0, -2, -1, -1, -2, -1
1503697365503,-15, 5, 2, -2, -2, -3, -1, 0
1503697365526,-2, -6, -2, -2, -1, -3, 1, -1
1503697365541,-30, -18, -8, -1, 0, -1, -5, -9
1503697365564,9, -5, -6, -2, -2, -1, -2, -3
1503697365585,-5, 4, 0, -1, -1, -2, -2, -4
1503697365593,-26, -2, 1, 1, 0, 1, -1, -1
1503697365615,-4, -2, -1, -1, -2, -1, -2, -3
1503697365631,-16, -16, -2, -1, 1, -1, -1, 1
1503697365654,-2, 0, 1, -1, -1, -1, -1, -1
1503697365675,7, 12, 13, 2, -1, 1, -2, -2
1503697365691,11, 3, 2, 0, 0, -1, -3, -1
1503697365713,3, -4, -7, -3, -2, -3, -1, -2
1503697365735,6, 18, 11, 2, 0, -1, -2, 0
1503697365751,13, 2, -6, -2, 0, 0, 5, 5
1503697365774,5, 6, 6, 2, -4, -2, -2, -1
1503697365802,8, -6, -7, -3, -2, 0, 2, -1
1503697365810,-10, -4, 3, 1, 0, -1, -1, 0
1503697365833,-1, 2, -7, -3, 0, -2, -3, -1
1503697365855,-14, -7, -2, 0, -2, -1, -5, -6
1503697365871,-39, -13, -3, -1, 4, 1, -1, -4
1503697365893,-21, 2, 7, 2, 0, 0, -3, -4
1503697365915,6, 0, -7, -1, -2, -1, 1, 1
1503697365931,-2, -5, -2, -3, 0, 0, 1, 2
1503697365953,22, 1, -3, -4, -3, -3, -1, -1
1503697365975,14, 12, 4, -2, -3, -1, -1, 1
1503697365990,35, 5, -7, -2, 0, -2, -2, -3
1503697366013,0, 1, 1, 0, -1, 2, 0, 3
1503697366035,-22, -10, -1, -7, -4, -3, -3, -3
1503697366057,-7, -5, -4, -1, -1, -2, 2, -1
1503697366068,4, 6, 2, -3, 2, -2, -5, -1
1503697366082,23, 8, 10, 3, -1, 0, 0, 0
1503697366103,-2, -1, -8, -2, -4, -5, -4, -2
1503697366111,16, 3, 3, 2, 2, 2, 1, 2
1503697366136,-36, -11, -2, -2, -2, -1, -3, -5
1503697366155,13, 2, 2, 1, 1, 1, 3, 7
1503697366171,-3, -6, -4, 1, 0, -2, -2, -2
1503697366193,-8, -6, -1, 0, 0, 5, -1, -3
1503697366215,-24, -7, 1, -2, -5, -7, -4, -4
1503697366230,-4, -1, 0, -5, -7, 0, 1, -1
1503697366253,-5, -3, -2, -2, 0, -2, -2, -1
1503697366279,-21, -8, 3, -2, -3, -4, -3, -8
1503697366291,38, 5, -2, 0, -4, -3, 1, 5
1503697366313,24, 21, 0, 4, -4, -2, -1, 0
1503697366337,-10, -3, -2, -2, 5, -1, 1, 1
1503697366357,17, 16, 1, 1, 2, 0, -1, 2
1503697366373,-28, -15, -5, -4, -7, 2, 0, -6
1503697366395,15, 1, 2, -3, -1, -1, 1, 1
1503697366417,18, 1, -7, 0, 1, 0, 1, 1
1503697366433,-13, -1, 0, 2, 1, 0, -1, -5
1503697366455,17, -5, -2, 0, 4, 2, 1, 1
1503697366479,59, 28, 9, 3, -3, -7, 0, 4
1503697366493,-27, -11, 2, -1, -1, -1, -2, -1
1503697366515,-15, -14, -10, -6, 2, 1, -3, 0
1503697366544,-8, 2, 7, 15, 7, 1, -2, 0
1503697366553,2, -1, -2, -8, -4, 0, -3, -2
1503697366577,-4, -1, -2, -3, -3, 1, 6, 4
1503697366597,-3, 0, 4, -2, -2, -10, 0, 5
1503697366606,-5, -2, 1, 2, -1, -1, 3, -3
1503697366628,0, -3, -6, -3, -2, 2, 2, 5
1503697366643,9, 3, -1, -1, 5, -1, -2, -1
1503697366665,5, 8, 6, 5, 2, -1, -2, -2
1503697366688,8, 3, 1, -5, -4, -5, -2, -2
1503697366705,-52, -18, -4, -2, -2, -8, -11, -10
1503697366725,14, 3, 1, -2, -1, 0, 1, 2
1503697366748,-8, -4, 2, 7, 0, 0, 2, 0
1503697366763,-16, -13, -6, -6, 2, 2, 1, 4
1503697366785,38, 12, -1, -3, -1, -1, 0, 3
1503697366808,2, 3, 1, -1, -3, 7, 6, 3
1503697366823,3, -3, -4, -3, -1, -2, 7, 1
1503697366846,13, 3, 1, 0, 9, 2, -2, -2
1503697366868,-10, -4, 1, -4, -1, -5, -3, -5
1503697366883,-10, 1, 3, 7, 6, 15, 9, 3
1503697366907,-8, -1, -1, -1, 11, -2, -8, -3
1503697366928,17, 8, 0, -2, -10, -16, -5, 4
1503697366943,0, -3, -2, -2, -1, 1, 1, 1
1503697366965,24, 31, -9, 0, 7, 1, -1, -2
1503697366974,25, 9, 5, 0, 4, 6, -10, -1
1503697366995,5, 7, 1, 1, 6, 0, 8, 2
1503697367017,24, 26, 26, 7, 3, 1, 3, -3
1503697367033,-4, -18, -13, -7, -5, -3, -1, 1
1503697367055,0, 3, 0, 3, -2, -2, -4, 2
1503697367077,-10, -5, 2, 0, 1, 1, 5, -1
1503697367093,-20, -12, -7, -6, 1, 1, -1, 1
1503697367115,-8, 3, 0, 1, -3, 3, 4, 3
1503697367137,-24, -11, -11, -3, 3, 1, 9, 1
1503697367153,-2, 1, -3, 0, -6, -3, -6, -6
1503697367177,50, 15, -1, 0, 1, 3, 8, 5
1503697367197,3, -4, 0, -1, -1, -3, -3, -1
1503697367206,-47, -17, -2, 1, 5, -3, -5, -1
1503697367228,14, 3, -5, -1, -4, -2, 3, 1
1503697367247,3, -1, -3, -4, 0, 0, -1, 4
1503697367265,7, -2, -2, -3, -4, -4, -4, 4
1503697367288,8, 12, 6, 2, -4, -3, -1, -2
1503697367310,-40, -6, -5, 0, 2, 2, 0, -9
1503697367325,-11, 1, -16, -4, -2, -2, -3, -14
1503697367348,-3, -11, -2, 0, -3, -3, -5, -4
1503697367355,2, 6, 0, 1, 2, 2, -1, -10
1503697367379,-10, -2, 4, 1, 6, -3, -5, 0
1503697367400,40, 6, 3, 2, 1, -4, -3, 6
1503697367416,-1, -1, 2, 2, 2, -2, 1, 5
1503697367437,19, 4, 1, -2, 0, 1, -1, 0
1503697367460,33, 1, -9, -1, -1, -2, 1, 5
1503697367479,20, 3, -2, -3, -2, -2, -2, 0
1503697367497,29, 1, 0, -1, 0, -5, -3, -3
1503697367521,-9, -4, 3, 0, -5, 1, 3, 0
1503697367535,35, 6, 1, 1, 3, -1, -3, -6
1503697367557,16, 14, 9, 1, 0, 3, 2, 6
1503697367582,-48, -16, -2, -1, 1, -5, -2, -2
1503697367595,-12, -4, 3, -1, -1, 0, -3, -4
1503697367612,-18, 1, -5, -5, 0, -2, 0, -4
1503697367625,-18, 15, 0, 0, -3, 1, 1, -8
1503697367648,-2, -1, -2, 0, -1, 0, -1, 8
1503697367670,-15, -7, -2, 2, 2, 2, -1, -5
1503697367687,13, 4, 5, 3, -2, -1, -2, -2
1503697367708,-16, -3, -3, 0, 6, 3, 0, 1
1503697367730,3, -2, -1, -2, -5, 1, 1, 0
1503697367747,14, 1, 1, 1, 1, -2, -1, -6
1503697367768,-4, 6, 15, 2, 2, -1, 3, 0
1503697367790,0, -7, -9, 0, 4, 12, 0, 4
1503697367805,-13, -5, 3, -1, -4, -6, -2, -6
1503697367828,5, 3, 1, -2, -2, -3, -1, 2
1503697367851,-2, 0, -4, -2, -2, -2, -3, 0
1503697367866,14, 11, 6, -2, -7, -7, -5, -6
1503697367889,-8, -9, -5, -1, -1, -5, -2, 1
1503697367910,8, -4, -7, -3, -2, -5, 0, -4
1503697367925,-10, -4, -4, -1, -1, -3, 1, -5
1503697367949,-63, -9, -3, -1, -4, 1, -2, -1
1503697367970,-20, -4, -3, -1, -2, 2, 0, -5
1503697367986,36, 9, -1, -1, -5, 1, 1, 5
1503697368008,7, -9, -1, 2, 4, -1, 1, -2
1503697368030,31, 4, -2, 2, 6, -4, 0, -1
1503697368051,-13, -2, -1, -2, -1, -3, 1, -3
1503697368068,8, -3, 5, -1, -1, 0, -2, 3
1503697368090,-2, -4, -6, -2, 1, 2, 0, 3
1503697368106,-1, 1, -4, -2, -3, 0, -1, -2
1503697368128,-43, -12, -6, -4, -4, -6, -8, -9
1503697368154,9, 6, 1, 1, 1, -3, -2, -5
1503697368165,-15, -6, -5, -3, -3, 0, 0, 0
1503697368190,35, 6, 3, 1, 2, 3, 4, 4
1503697368211,16, 3, 2, 2, -7, 1, -2, 0
1503697368233,8, 4, 5, 1, -2, 3, 1, 4
1503697368250,20, -2, -1, 0, 0, -1, -3, -3
1503697368270,-17, 4, 0, -2, 0, 2, -1, -3
1503697368293,-9, 0, -2, -2, -3, -4, 4, 6
1503697368308,2, -3, -7, -2, 3, 0, -4, -3
1503697368330,-16, -5, 6, 1, 2, 5, -1, 0
1503697368353,-31, -10, -3, -1, 0, -2, 0, 0
1503697368368,18, 21, 3, 0, -3, 1, 2, 4
1503697368397,0, -8, 1, 0, 1, -1, -2, -1
1503697368413,-29, 3, -3, -1, 1, -4, -1, -9
1503697368428,0, -8, -10, -3, 1, -1, -2, 0
1503697368451,38, 1, 3, 2, -4, 1, 2, 2
1503697368474,-14, -3, -4, -2, -1, -3, -2, -6
1503697368488,37, 6, 0, 0, 0, -1, -2, 0
1503697368510,3, 2, -1, -3, 0, -1, -2, -5
1503697368533,-15, -6, -4, -1, 0, -1, -1, 2
1503697368548,-11, -5, 4, 1, 18, 0, -6, 0
1503697368570,-22, -1, 1, -1, -6, -5, -1, 3
1503697368594,2, -3, 0, 0, -3, -2, -1, -4
1503697368609,-18, -3, -1, 0, -1, 0, -1, -4
1503697368630,-31, -17, -10, -4, -3, -3, -7, -10
1503697368653,27, 2, -1, -4, -12, -3, 1, 1
1503697368668,40, 3, 0, 0, 2, 0, 0, 6
1503697368690,5, 6, 1, 1, -5, -2, -1, 4
1503697368713,24, 3, 3, -2, 1, 1, 7, 2
1503697368728,-8, 0, 1, -1, -2, 0, 0, 4
1503697368753,-50, -7, -2, -3, 2, 2, 1, -6
1503697368773,1, -2, 0, 0, 0, 1, -2, 2
1503697368796,-20, -6, -6, 1, 10, 0, -6, -2
1503697368810,-11, 1, -1, -2, -1, -1, 4, -5
1503697368833,62, 3, 2, 1, -4, 0, 3, 8
1503697368848,4, 4, -1, -1, -1, 1, -2, -3
1503697368870,6, 3, 5, 1, 0, -3, -11, -9
1503697368893,-37, -14, -8, -6, -10, -3, -1, -6
1503697368908,51, -2, -3, -1, -1, 0, 3, 0
1503697368930,-18, 3, 6, 3, -1, 0, 1, -5
1503697368955,24, 4, 0, 0, 1, -1, -2, 7
1503697368968,-16, -4, -7, -2, 1, 1, 1, 2
1503697368991,-11, 0, 2, 0, -2, -1, -1, 0
