1503515701955,-2, -2, -4, -1, 0, 1, -1, 1
1503515701979,1, -2, -2, -3, -2, -5, -2, -1
1503515702000,-2, -1, -1, 0, -1, -1, -2, 0
1503515702015,-2, -1, -1, 1, 1, 2, 0, -4
1503515702037,2, -2, -2, -2, -1, -1, -3, 0
1503515702053,-2, 1, 1, 0, 0, -2, -3, 0
1503515702077,-3, -4, -1, -1, 0, -1, 0, -2
1503515702091,-1, 2, 1, -1, -1, -1, -3, -3
1503515702115,-1, 0, -1, -1, -1, -1, 0, 1
1503515702136,-3, -1, 1, 0, 0, 1, -1, -2
1503515702144,2, 1, 0, 1, -1, 0, -3, -3
1503515702166,-1, 1, 0, -1, 0, 1, 1, 3
1503515702181,-3, 0, -2, -1, 1, -2, -2, 1
1503515702204,1, -1, 0, -2, -4, -4, 2, -2
1503515702226,-1, -3, -2, -1, -2, -1, -2, -1
1503515702242,-2, -2, -2, -2, 1, -1, 2, -1
1503515702264,0, 3, -2, 0, 0, 0, 2, 3
1503515702293,-1, -3, -2, -1, -1, -2, -2, -2
1503515702303,3, 3, 1, 0, -2, 0, 0, -2
1503515702324,-2, -2, -2, 0, -1, -1, -4, -4
1503515702348,1, 1, 0, -4, -1, 0, 2, -2
1503515702362,-1, -1, -1, -1, -2, 1, 0, 2
1503515702383,-3, 0, 0, -1, -1, -2, -1, 0
1503515702406,0, 0, -2, 0, 1, -1, -2, -2
1503515702422,-3, -1, 2, 0, -1, -1, 1, 2
1503515702444,0, 0, -1, 1, 2, 0, -1, -4
1503515702468,0, 1, 0, -1, -2, -2, -3, 1
1503515702489,-3, -3, 0, 1, -1, 3, 6, -1
1503515702496,-1, 0, -1, 0, -2, -2, -3, -1
1503515702518,-3, -1, -1, -3, 1, 1, 4, 4
1503515702535,2, 1, -2, -3, -1, -2, 1, -1
1503515702555,-2, -3, -3, 0, -2, 0, 0, 1
1503515702578,0, -2, 0, 1, 0, -1, -4, -3
1503515702593,-1, -1, -1, -2, 0, -1, -3, -5
1503515702615,-2, -2, -1, -1, 0, -1, -3, 1
1503515702639,1, 0, -1, -1, -3, 0, -1, 1
1503515702653,0, -1, -1, -1, -1, -2, 0, -2
1503515702675,-2, -1, -3, -1, -1, -1, -1, -4
1503515702684,-4, -3, 1, 2, 0, -2, 0, 1
1503515702707,-2, -3, -4, 0, 1, -1, 1, 2
1503515702729,2, 1, 1, -1, -1, -2, -3, -2
1503515702744,2, 0, 1, -1, 1, 0, 1, 2
1503515702766,-2, -4, 0, -1, -2, -1, 0, -1
1503515702788,-2, -2, -2, -1, -2, -2, -1, -3
1503515702804,1, 2, 0, -1, 0, 1, -4, -3
1503515702827,0, -1, -2, 0, -2, -2, -1, -1
1503515702849,-1, -2, -2, -3, -3, 0, -1, -1
1503515702863,3, -1, -2, 0, -1, 1, 2, 2
1503515702886,-1, -2, -3, 1, 0, -1, -4, -1
1503515702894,-3, -1, -2, -1, -1, -2, -1, 0
1503515702915,0, -2, -2, -1, -2, 1, -1, -3
1503515702942,-1, 0, -1, 0, -1, 0, 3, -1
1503515702953,1, 0, -4, -2, -2, -1, -7, -2
1503515702975,-2, -3, 0, -1, 0, -3, 1, -1
1503515702998,-1, -1, -2, 0, 0, 0, -2, -1
1503515703014,-1, 0, 0, -2, 0, 1, -3, 0
1503515703037,-1, -3, -2, -2, -1, -1, 0, 1
1503515703058,0, -3, -1, 0, 1, -3, -1, -1
1503515703074,-2, 2, 0, 2, 0, 1, -1, 0
1503515703095,0, 0, -1, 0, -1, -1, 1, 0
1503515703118,2, 1, -1, -1, -1, 0, 0, -2
1503515703133,-3, 0, 0, -1, -1, -1, -2, -4
1503515703155,1, 4, 2, 0, -2, -2, -1, 0
1503515703178,-1, -2, -1, 0, 0, -1, 1, -1
1503515703193,0, -3, -2, -2, -1, -1, -2, 1
1503515703215,-1, -3, -2, -1, -1, 1, 0, 1
1503515703239,0, -1, 0, -1, -2, -1, -1, -2
1503515703247,0, 2, 1, -3, -1, -1, 0, -1
1503515703269,1, 1, -1, 1, 0, 0, -2, -1
1503515703283,1, 1, 0, -1, -1, 1, -1, 1
1503515703299,0, -1, -1, -3, 0, 1, 1, -1
1503515703307,0, 1, 0, -2, -1, -1, -5, 0
1503515703328,-2, -1, -1, -1, 0, -1, 2, -1
1503515703338,1, 1, 1, 0, -1, 1, 0, 0
1503515703359,-2, -2, -1, -2, -3, -2, -1, -2
1503515703381,-1, 0, 0, 0, 0, -3, 0, 0
1503515703396,-3, -4, -2, -1, -1, -4, 1, -1
1503515703419,0, -2, 0, -1, -1, -4, 0, -1
1503515703442,0, 2, 0, 2, 2, 3, 1, 0
1503515703456,-1, 0, -1, -2, -2, -3, 0, 1
1503515703479,-3, 0, 1, -2, -2, -5, -4, -1
1503515703501,0, 0, -1, -5, -4, 0, 3, -1
1503515703516,-2, -3, -5, -15, -7, -11, -29, -5
1503515703541,0, 0, -1, 2, 0, 6, 9, 0
1503515703561,-3, -1, 1, 0, 2, 0, 4, 0
1503515703577,0, -2, 0, 4, 3, -3, 0, 0
1503515703599,1, 1, 0, 4, 0, 2, 5, 2
1503515703622,1, -1, -1, 18, 7, -2, 2, -1
1503515703636,2, 1, -1, -5, -2, -1, -1, -2
1503515703659,0, 4, 1, -4, -3, -1, -1, 2
1503515703682,-2, -2, 0, 2, 1, 4, 1, -1
1503515703704,1, 0, 1, -2, -4, 0, -2, -1
1503515703719,-2, -2, -1, -2, 1, 1, 2, 1
1503515703742,-13, -1, -1, -2, -1, -1, -2, -1
1503515703756,-1, -3, -4, -3, -1, -1, -2, -3
1503515703779,1, -2, -1, -2, -2, -1, 1, 3
1503515703802,2, 2, -2, -5, -4, -2, 1, 2
1503515703817,0, -1, -2, 0, 0, -1, -1, -3
1503515703839,-1, -1, 0, -1, -1, -1, -2, -3
1503515703846,0, -2, -1, -5, -3, -2, -14, 0
1503515703868,1, 0, -2, -3, -2, -2, 2, 0
1503515703891,-1, -1, -1, 2, 0, 0, 0, -1
1503515703908,0, 0, 0, -1, -2, -2, -1, -1
1503515703928,-1, 2, -3, -1, -1, 0, 0, 0
1503515703951,5, -1, -1, -3, -2, 0, 5, 1
1503515703966,-4, -3, 0, 3, 2, 0, 7, -2
1503515703988,-1, 1, 1, 3, -1, -20, 1, 0
1503515704011,-1, -2, 0, -11, -8, 4, -5, 0
1503515704026,-2, -2, -4, -9, -6, 1, -4, -1
1503515704048,-2, -1, -1, 6, 4, 2, 2, -3
1503515704071,-1, -2, -1, 1, -1, -1, -1, -6
1503515704087,1, 1, 1, 1, -1, 4, 0, 0
1503515704110,0, -1, 1, 0, 1, 0, -1, 0
1503515704131,3, 1, -1, 10, 5, 5, 5, -2
1503515704147,2, -2, -3, -3, 1, -1, -7, -3
1503515704168,0, 0, 4, 2, -2, 2, -1, 3
1503515704191,-1, -2, -6, -26, -15, -5, 1, 2
1503515704206,-5, 1, 0, 9, 15, 1, 5, 0
1503515704228,-2, 0, -7, 6, -3, 0, -2, -1
1503515704252,-9, -3, 6, -1, 0, -2, 0, 2
1503515704266,28, 3, -27, -23, -6, -2, -7, 1
1503515704288,-7, 5, 33, 43, -1, -2, 0, 3
1503515704312,-15, -3, -1, 20, 26, 1, -2, -7
1503515704334,-4, -5, -3, -18, -13, -1, -3, -5
1503515704349,3, -3, -7, 1, -3, 1, 0, -9
1503515704371,0, 4, 4, 0, -8, -3, 0, -5
1503515704393,7, 1, 4, -3, 7, 2, 1, 8
1503515704411,14, -10, -4, -15, -12, -2, -1, 2
1503515704431,-11, -11, -19, -2, 12, -1, -2, 1
1503515704453,-9, 4, 5, 7, -2, 0, 0, 0
1503515704461,-4, -5, -9, -16, -22, -5, -1, -2
1503515704484,-18, -2, -10, -1, 9, 1, -2, -5
1503515704491,3, -8, 0, -8, -5, -2, -1, 0
1503515704514,-2, -14, -19, -6, -2, -4, -1, -3
1503515704529,-22, -35, -1, -4, -1, 0, -3, -3
1503515704551,-4, 15, 7, -7, -7, -2, -3, -5
1503515704573,16, 56, 26, 10, 3, 3, 0, 2
1503515704588,-2, -17, -6, 3, 6, -1, -1, -1
1503515704612,-4, -18, -8, -6, -5, -3, -1, -3
1503515704634,12, 43, 5, 2, 10, 0, 1, -1
1503515704642,-22, -20, -11, -5, -9, -4, -1, -6
1503515704663,6, 18, -16, -10, -29, -5, 1, -1
1503515704680,4, -15, 9, 7, -1, -2, -1, 1
1503515704702,-5, 15, -4, -2, 13, 2, -2, 2
1503515704724,13, 39, 18, 0, 9, 1, -2, -1
1503515704739,-18, -19, 13, -1, -3, -5, -2, -6
1503515704761,1, 6, 11, 7, 14, 4, -1, 5
1503515704784,-8, 42, 30, 11, -1, -4, -5, -7
1503515704799,-19, -59, -33, -24, -1, 5, 4, 0
1503515704821,3, 20, -5, 5, 13, -1, -3, -3
1503515704848,-5, -9, -10, -10, -16, 7, -4, -8
1503515704859,-8, 35, 11, 1, 8, -8, -3, 2
1503515704881,3, -96, -49, -12, 0, 0, -3, -4
1503515704904,-23, -81, 6, -5, -44, -17, 6, 13
1503515704919,19, 47, -6, -9, -28, -18, 0, 5
1503515704941,0, 71, 63, 2, -13, 44, -5, -6
1503515704964,29, 50, 17, 53, 127, 53, 5, -4
1503515704987,-9, 24, -3, -26, -56, -100, -22, -14
1503515705008,-1, -5, 82, 22, 33, 127, 11, 113
1503515705024,-28, -54, -43, -18, 54, 19, 15, -3
1503515705039,19, -15, -23, -53, -123, -128, -49, -72
1503515705061,18, -9, -13, 31, 61, 71, 25, 14
1503515705084,1, -44, -49, -8, -2, 23, 11, -7
1503515705099,9, 21, 9, 6, -21, -12, -2, -6
1503515705121,-22, -37, -27, -9, -17, -15, -3, -7
1503515705144,-19, 1, 1, 8, 15, 0, 2, -4
1503515705159,6, -15, -10, 2, 8, 5, 8, 9
1503515705182,-2, 42, 5, -11, -36, -13, -4, -13
1503515705204,5, -7, -1, 5, 10, 6, -2, -3
1503515705222,-1, -16, -10, -3, -3, -3, 3, 6
1503515705241,8, -5, 0, 2, 2, 0, 3, 10
1503515705264,-5, -7, -3, 2, 7, 4, -4, -9
1503515705286,-9, -18, -4, 0, 4, 0, 4, -7
1503515705301,2, -9, -3, -1, -1, 0, -5, -7
1503515705325,0, 6, 5, 0, -2, -1, 1, 1
1503515705346,-6, -5, -4, 0, 2, -2, -2, -10
1503515705361,0, -1, 1, 1, 0, 1, 0, 0
1503515705384,3, 6, 2, 1, 1, -1, -1, 2
1503515705406,0, 0, -4, 0, 1, 1, 2, -2
1503515705414,2, -16, 0, 0, -1, 1, 3, -1
1503515705436,4, -6, -4, 1, 6, 2, -1, 9
1503515705451,-2, 0, -5, -2, -4, -2, 4, -8
1503515705473,-2, 3, -1, -2, -2, -1, 1, -2
1503515705496,-8, -11, -4, -5, -2, 0, -12, -3
1503515705511,-4, 4, -5, -3, -5, 0, 1, 0
1503515705533,12, 0, 4, 1, -2, 0, -2, 0
1503515705556,5, -1, -2, -3, 1, -2, -1, -3
1503515705571,-3, -4, 0, 1, 0, -3, 10, 2
1503515705593,2, 48, 45, 10, 1, -3, -11, -4
1503515705617,-9, -10, -11, -4, -3, -1, 11, 0
1503515705631,-7, -11, -11, -1, -3, 0, 6, -2
1503515705654,-3, -3, -4, 0, 4, 11, -2, 3
1503515705676,3, -16, -2, -3, -1, -2, -6, 0
1503515705685,2, -9, -4, -6, -7, -2, 5, -1
1503515705706,-3, -2, -1, -5, -4, -2, -2, -6
1503515705722,29, 18, 5, 8, 3, 2, 8, 5
1503515705744,1, 1, -5, -4, -3, 0, -5, -14
1503515705766,-3, 2, 12, 3, 2, -5, 4, 3
1503515705781,-5, -1, -8, -6, -5, -1, -2, -1
1503515705804,-4, -7, -3, -6, -11, -3, -2, -1
1503515705826,-8, -1, 3, 1, 4, 1, 3, -9
1503515705848,-2, 24, 11, 1, -1, 1, -5, -1
1503515705864,-3, -29, -19, -5, 1, -1, -2, 0
1503515705886,6, 23, 14, 5, -1, 1, -6, 5
1503515705901,-3, -17, -10, -2, 0, 0, 0, -4
1503515705924,0, -1, -4, 3, 7, 3, -1, -5
1503515705946,-5, -4, -2, -2, -4, -3, 3, 1
1503515705961,-4, 12, 0, -3, 1, -1, 1, -2
1503515705986,-12, -14, -5, -4, -3, -2, -6, 0
1503515706006,-1, -3, -5, -2, -1, -3, -9, 1
1503515706023,1, -5, 1, 1, -2, -1, 0, 0
1503515706044,0, 3, 1, -1, -2, -1, -1, 0
1503515706066,-5, -11, -3, 0, -1, -1, 2, 5
1503515706081,9, 6, 1, -3, -2, -2, -2, -10
1503515706104,5, 39, 18, 7, 3, 1, 7, 2
1503515706126,-5, -19, -5, -3, -2, -3, -5, -3
1503515706141,0, -6, 1, 2, -1, 0, 0, -2
1503515706164,3, 6, -1, -2, -1, 1, 1, 1
1503515706187,0, -8, -2, 1, 3, 0, -2, -3
1503515706208,0, 13, 10, 3, 0, -1, -1, -6
1503515706225,21, -4, -13, -5, -1, 0, 2, 5
1503515706246,-8, 0, 0, -1, 0, 0, 0, 0
1503515706269,-7, -4, -6, -3, -2, 0, -1, -4
1503515706284,0, -4, -4, -2, -4, -2, 0, -1
1503515706306,11, -4, -7, -3, -1, 1, -2, 4
1503515706329,-5, -6, -1, 1, -1, -3, 1, 6
1503515706344,-1, -1, 3, 1, -2, -1, -4, -4
1503515706366,-5, -4, -1, -2, -3, -2, -9, -4
1503515706389,-9, -28, -11, -3, -1, 0, 1, 0
1503515706404,-4, -28, -13, -3, -2, -2, 5, -6
1503515706426,-8, 9, 7, 2, 2, 0, -1, -3
1503515706448,-2, 0, 0, -2, -1, 1, 2, 0
1503515706464,5, 10, 0, 1, 1, -2, 3, 1
1503515706494,-6, 9, 8, 3, 0, -1, -1, -6
1503515706516,0, 18, 13, 2, 1, 0, 0, -1
1503515706538,-5, -10, -9, -4, -1, 2, 4, 3
1503515706555,0, -2, -2, -4, -2, -1, -3, -3
1503515706576,2, 1, -7, -2, -1, 0, -1, 1
1503515706598,-5, -25, -12, -4, -1, -1, 0, -2
1503515706613,0, -3, -2, -1, 0, -4, 1, -5
1503515706636,0, 3, 6, 1, -1, -2, 1, -3
1503515706660,0, -7, -1, 0, 1, 0, -4, 0
1503515706673,2, -11, -5, -5, -2, -1, -3, -1
1503515706696,-4, -7, -4, 0, -1, -2, -3, 2
1503515706718,-10, -5, -1, 0, 1, 0, 1, 3
1503515706734,-2, 3, 0, 0, -1, 0, -5, -3
1503515706757,2, 2, 1, 1, -1, 0, 0, -2
1503515706778,0, -1, -5, -3, -3, -2, -2, -2
1503515706793,6, 39, 41, 6, 3, 1, 5, 1
1503515706816,-2, -13, -14, -2, -3, -3, -4, -5
1503515706838,0, -12, 0, 2, 1, 1, -2, -2
1503515706853,5, -5, -5, -3, -1, -1, 0, 0
1503515706876,-5, -8, -7, 1, -1, -2, -2, -2
1503515706899,-9, -11, -25, -3, -3, -2, -3, -6
1503515706913,4, 2, 2, 1, 0, -1, -2, 4
1503515706936,-3, -6, 4, -1, -2, 0, 2, -2
1503515706958,-2, -6, -1, -2, 0, 0, 0, 2
1503515706973,-4, 5, 11, -3, -1, 0, 1, 1
1503515706996,-1, 4, 4, 1, 0, 1, 0, -1
1503515707017,2, 22, 8, -3, 1, -2, -3, 1
1503515707033,-4, -9, -4, -1, 0, 0, 0, -5
1503515707056,5, 6, -2, -1, -1, 0, 1, -1
1503515707077,1, -4, -8, -2, 1, -1, -3, 1
1503515707100,-7, -7, -3, -1, -1, -1, 2, 8
1503515707116,24, 3, 1, 1, 0, 1, 0, 2
1503515707137,-10, -4, -2, 0, -1, 2, 2, -5
1503515707162,-4, 0, -2, -1, -3, -3, -3, -4
1503515707176,-4, -2, -7, -3, -3, -4, -12, -4
1503515707197,5, 14, 31, 10, 1, 1, 2, -3
1503515707206,-2, -10, -6, -3, -1, 0, 2, -2
1503515707228,-2, 0, -1, 4, 2, -1, -3, -13
1503515707251,3, 2, 7, 1, 2, 0, 0, 4
1503515707266,-16, -7, 0, -2, -4, 0, 0, 2
1503515707288,4, -18, -9, -2, -3, -2, -2, 0
1503515707311,1, 10, 16, 2, 2, -2, -1, -1
1503515707327,0, -11, -11, -3, -1, 2, 0, 1
1503515707348,4, 23, 5, 0, -1, -1, 1, -1
1503515707371,7, 17, 14, 5, 1, 0, -1, -4
1503515707386,4, 0, 2, 0, 1, -2, -1, -1
1503515707415,36, 3, -4, -5, -1, 0, 2, 10
1503515707431,-21, -13, -6, -4, -4, -1, 0, -3
1503515707446,-4, -5, -14, -3, -1, 0, -1, 2
1503515707468,7, -5, -1, -2, 1, 1, -3, 7
1503515707476,2, 4, 9, 5, 0, -2, -3, 4
1503515707498,5, 7, -4, -2, -2, 0, -2, 0
1503515707520,-8, -18, -5, 1, 0, 0, 1, 1
1503515707543,-7, -2, -1, -2, -1, 1, -1, -1
1503515707561,4, 5, -4, -4, -2, -2, -2, 1
1503515707580,0, 0, -1, 5, 4, -1, -1, 0
1503515707596,-2, -9, -5, -6, -1, -1, 2, 1
1503515707617,-9, -41, -26, -9, -6, -2, 1, -1
1503515707640,26, 6, 2, 1, 1, -3, -3, -4
1503515707656,-17, -1, 3, 3, 1, 5, -1, 1
1503515707677,-5, 8, 5, -1, -4, -3, -1, 0
1503515707702,1, 6, 3, 5, 3, 0, 0, 0
1503515707722,1, 6, 2, -5, -3, -1, -2, 2
1503515707738,-6, -1, 0, 3, 2, 2, 0, -2
1503515707760,-8, -9, -2, -4, -3, -3, -1, -9
1503515707776,-1, 3, -1, 2, 4, -6, -3, -2
1503515707798,-15, 2, 0, 0, 6, 5, 2, -2
1503515707820,5, 6, 3, -2, -5, -1, -2, -1
1503515707836,-1, -4, 5, -4, -9, -4, -7, -1
1503515707857,-8, 2, -9, -1, -3, 0, -3, -5
1503515707880,4, -6, -1, 0, -1, -2, 2, 2
1503515707897,7, 7, 0, 0, 0, 2, -2, -1
1503515707917,3, 0, 4, -1, 2, -3, 2, 2
1503515707940,-3, -5, -3, -1, 0, 1, 7, 1
1503515707956,2, 1, -2, 2, 0, 0, -3, 1
1503515707978,1, 2, 0, -2, -3, -6, -3, -2
1503515708000,-5, 26, 12, -1, -3, 1, -3, -4
1503515708016,-1, -26, -16, -3, -5, -2, -4, -1
1503515708039,3, -1, -1, -1, -3, 1, -2, -3
1503515708060,4, -1, 2, 1, 1, 0, 0, 0
1503515708082,-2, -7, -1, -3, 2, -2, -1, 21
1503515708099,0, -1, 2, 0, -1, 1, -1, -11
1503515708120,0, -7, -7, 0, 1, 3, 2, -5
1503515708143,-7, 11, 0, -3, -3, -2, -6, 6
1503515708158,4, -11, -9, -4, 0, 1, 2, -1
1503515708180,1, 1, 2, 1, -1, 0, -2, -3
1503515708203,-4, 2, 0, -1, 2, 5, 10, -4
1503515708218,9, 5, 1, -1, -3, -6, -2, -1
1503515708242,-3, 2, -3, -2, 0, 2, 2, 17
1503515708248,17, 4, 2, -1, 0, 1, 0, 5
1503515708271,-12, 20, 14, 1, -1, -1, -3, -8
1503515708294,2, -11, -10, -2, 0, -3, -1, 11
1503515708309,5, 13, 9, 4, 0, -1, -6, -5
1503515708331,2, 3, -4, -4, -1, -1, -1, -15
1503515708353,36, -17, -11, -3, 0, 14, 1, 3
1503515708369,-1, -4, -5, -2, -1, -3, -1, -1
1503515708391,-22, -4, -5, -3, -1, -5, -6, 0
1503515708413,-8, -34, -19, -3, 0, -6, 0, -4
1503515708428,4, -2, -3, -3, -3, -3, 2, -1
1503515708451,-13, -2, 0, 3, -1, -1, -4, -2
1503515708474,-4, 11, 8, 1, -1, -1, 3, 8
1503515708488,32, 12, 8, -13, -9, -4, -1, 0
1503515708513,-14, 13, 8, 4, 1, 3, -1, 0
1503515708536,6, 5, 1, 0, -2, 1, 1, -1
1503515708548,0, 31, 3, 1, -1, -1, -2, -4
1503515708573,3, 15, 11, 1, 0, -3, -1, -1
1503515708593,-9, 9, 6, 3, 1, -5, -1, 0
1503515708608,-6, 4, -3, -1, -1, -1, 4, 3
1503515708631,-12, 18, 2, -3, -1, 0, -2, -6
1503515708653,-1, -21, -10, -1, -2, 0, 1, 1
1503515708669,16, -5, -5, 6, -2, -1, -4, 0
1503515708691,-25, -30, -10, -12, -7, -12, -4, -7
1503515708713,-8, 3, -5, -4, -3, 4, -3, -1
1503515708728,-14, -44, -14, 3, 5, 0, 3, 3
1503515708751,-18, 0, 2, 6, 4, 0, 3, -1
1503515708774,12, 25, 13, 12, 6, 1, -4, -2
1503515708788,8, -16, -9, -7, -3, 0, 1, -1
1503515708811,-7, -22, -12, 2, -1, -1, 1, -3
1503515708833,8, -4, -5, -6, 0, -3, 1, 1
1503515708848,-1, 12, 3, -6, -6, 0, -4, -5
1503515708871,15, 5, 17, -1, -4, 1, 1, 4
1503515708893,1, -6, -5, -1, -3, -2, -9, 0
1503515708908,-17, -13, -12, -5, -1, 16, -3, -5
1503515708924,-1, -12, -1, -9, 0, -3, -3, 0
1503515708947,20, -12, 11, 18, 1, 1, 1, 2
1503515708961,-29, -9, -15, -16, -3, 2, -1, -1
1503515708984,-5, -9, -8, -3, -2, -2, -1, 0
1503515709006,1, -12, -5, 4, -2, 0, -2, 0
1503515709014,7, 0, 5, -1, -5, 3, -4, -2
1503515709036,-6, -22, 4, 2, 2, -1, 0, -4
1503515709051,-37, 16, -10, 2, 0, 1, 0, -2
1503515709074,-3, -7, -10, -3, 0, -3, 0, -2
1503515709096,-8, -8, 14, 5, 0, 18, 3, -1
1503515709111,-1, 9, -7, -5, -2, 0, -1, -1
1503515709133,15, 11, -1, -7, 0, -6, -1, -1
1503515709156,-29, 12, 14, 12, 2, -3, 1, -2
1503515709173,4, 0, -9, -9, -2, -2, -5, -2
1503515709193,16, -16, -8, -7, -3, -4, -1, 3
1503515709216,9, 9, -11, -9, -1, -2, 1, -1
1503515709231,9, -8, -12, -8, -8, -2, -1, 2
1503515709254,1, 10, 55, 43, 0, -2, -1, 4
1503515709276,39, -4, -12, -18, 1, -3, -2, -1
1503515709291,-1, -11, -11, 1, -1, -1, -2, -2
1503515709313,-7, 3, -1, 1, 0, -2, -1, 0
1503515709336,-10, 1, -2, 3, 2, -1, -1, 0
1503515709351,3, -1, 11, 3, 0, -2, -2, 16
1503515709375,-1, -16, -18, -18, -4, -3, 0, -8
1503515709396,-10, 1, -6, -5, -2, -1, 4, -4
1503515709411,-17, -23, -17, -12, -4, 0, 0, -11
1503515709433,-5, -6, -2, 2, -2, 1, -1, 0
1503515709456,-3, 3, -4, 0, -1, -1, 0, -3
1503515709471,5, 12, 4, 1, -1, 0, 2, 2
1503515709494,0, 7, 12, 1, 2, -2, -7, -4
1503515709518,1, 15, 15, 7, 3, -2, -1, -1
1503515709531,10, -3, -9, -3, 1, 0, -1, 1
1503515709553,-5, -3, -4, -2, -2, 1, -2, -3
1503515709562,0, 7, 6, 1, -1, -4, 1, 0
1503515709584,-5, -6, -3, -2, 0, 1, -3, -5
1503515709606,3, -1, 10, 8, 3, 0, -6, 2
1503515709621,-1, 0, -6, -8, -6, -3, 2, -1
1503515709644,-3, 0, 1, 0, -1, 1, -1, -6
1503515709666,8, 5, 0, 1, -1, -1, 0, 4
1503515709682,-2, 0, -4, 2, 1, -2, -1, 0
1503515709696,0, -9, -3, -2, -1, -1, 1, 1
1503515709711,2, 9, 2, -1, -1, 0, 0, 3
1503515709733,-1, -3, -4, -2, -1, -1, 2, 1
1503515709756,-2, -3, -3, -1, 0, 1, -2, -3
1503515709771,-5, 2, 7, 3, 3, -2, -2, -1
1503515709793,2, 3, -2, 1, -1, -2, -2, 0
1503515709816,2, 19, 12, -1, -2, -2, 7, 0
1503515709831,-2, -8, -9, -4, -1, 0, -5, -3
1503515709853,-3, -9, -7, -6, -1, 1, 0, 1
1503515709878,3, 3, -5, -3, -5, -1, -4, -1
1503515709891,-4, -15, -4, -4, 1, -2, -3, -5
1503515709913,-3, 0, 0, -2, -1, -1, -4, -3
1503515709936,3, 0, 0, -1, -1, 0, 1, -2
1503515709958,4, 2, -2, -1, -1, -1, -4, 0
1503515709973,-1, 2, -2, 0, -1, -1, -4, 1
1503515709996,7, 25, 7, 2, 0, -1, 3, 2
1503515710018,-9, -4, 1, -2, -4, -1, 2, 1
1503515710033,-8, -6, -5, -2, -1, 0, 2, -1
1503515710056,7, -3, -1, -1, -2, 1, -6, -2
1503515710084,0, -2, -4, 0, 1, -1, 3, -2
1503515710109,7, 11, 4, 2, -1, 0, -5, 0
1503515710124,-3, -6, 1, -2, -2, 1, 1, 2
1503515710148,6, -1, -3, 0, -1, -1, 3, 2
1503515710168,-3, 1, 4, -1, 0, -3, 1, -3
1503515710184,-1, -7, -5, 1, 4, 0, 0, -3
1503515710206,-6, -1, -1, -3, -2, -2, 1, -1
1503515710228,2, 11, 6, 2, -1, 1, 3, 1
1503515710244,3, 1, -1, -2, -1, -1, -3, -5
1503515710266,-10, -13, -4, -1, -3, 0, -1, 0
1503515710289,2, 3, 0, -1, -1, 0, 1, 2
1503515710304,-2, 5, 2, -1, -1, 2, -1, -1
1503515710326,-1, 7, 2, -2, 1, 0, 3, -1
1503515710348,3, 2, -2, -1, -2, -2, -10, -2
1503515710364,0, -3, -3, 0, 0, -1, -1, -2
1503515710387,0, -1, 1, -1, -1, 1, 4, 3
1503515710408,-3, -4, -3, 0, 0, -2, 5, -2
1503515710424,-3, -6, 3, 0, 0, -4, 0, -3
1503515710449,-8, -16, -6, -4, -2, 0, -2, 0
1503515710468,-1, -7, -4, 0, -2, -1, -5, -3
1503515710485,7, 1, 1, 1, 0, 0, -1, -2
1503515710506,-2, -8, -4, -1, -2, 2, 0, 1
1503515710528,-1, -2, -4, -3, -4, -2, 2, 2
1503515710544,3, 9, 2, -2, -1, -2, -3, -3
1503515710566,6, 0, -1, 2, -1, -2, 3, 8
1503515710588,-2, 5, -3, 3, -1, 0, -1, -3
1503515710604,6, 33, 23, 3, 1, -2, -1, 0
1503515710627,-4, -15, -8, -4, -1, -1, -6, -2
1503515710651,-6, -3, -5, -4, 0, 0, 0, -3
1503515710664,0, -8, -3, -2, -1, 0, -2, -2
1503515710687,-1, -2, 1, 0, 0, 0, -1, 3
1503515710708,-4, -19, -13, -4, -2, -3, 2, 0
1503515710724,0, 5, 0, 1, 0, -1, 1, -2
1503515710753,-1, -3, -1, 0, -2, 1, -1, 1
1503515710768,1, -2, 0, -1, -1, 0, -1, -1
1503515710785,-4, -3, -1, -3, 0, -1, -6, -2
1503515710806,2, -11, -5, 1, -1, 0, -4, -3
1503515710828,0, 10, 4, 2, 2, 1, 1, -4
1503515710852,-2, 1, -1, -3, -2, -2, 0, -1
1503515710866,-3, 1, 1, -3, -1, 1, -1, 2
1503515710888,-1, -3, -4, 0, 0, 0, 2, 3
1503515710911,2, 11, 4, 0, 0, -1, -1, 0
1503515710927,2, -5, -4, -4, -2, -2, -3, -1
1503515710948,-5, -2, 0, 0, 0, -1, -5, -5
1503515710970,0, -2, 0, 3, -3, -1, -1, 1
1503515710987,-1, 0, 1, -4, -1, 3, 2, -1
1503515711008,-4, -3, 1, 0, -2, -2, -4, -3
1503515711031,3, -3, -3, -2, -1, 0, 1, 2
1503515711046,1, -3, -1, -2, 2, -3, 0, 1
1503515711068,-3, 3, 1, 1, 1, -1, 0, -2
1503515711091,3, -1, -1, 0, -2, -2, 1, 0
1503515711106,-5, -3, -2, 1, 0, 2, 0, 0
1503515711128,5, -6, -2, 7, 6, 1, -1, 1
1503515711135,-7, -5, -9, -1, 0, 1, 2, -2
1503515711158,-1, -2, 4, 0, -2, 0, -3, -2
1503515711180,0, 11, 1, -1, 1, -1, 2, -1
1503515711196,3, -3, -2, 0, 0, -2, -2, 0
1503515711211,-3, 1, -2, 0, -2, -2, -2, -2
1503515711226,-5, 0, -1, -5, -2, -2, -4, -5
1503515711248,4, 3, 0, 0, 0, 0, 1, 1
1503515711271,6, -3, 0, 0, 1, 0, 0, 1
1503515711288,-6, -3, -4, 0, 1, -1, 0, -1
1503515711308,0, -6, -1, 0, 0, -1, -2, -4
1503515711331,7, 6, -1, -3, 0, 1, 2, 2
1503515711346,-7, -3, -1, -2, -5, -2, -1, 0
1503515711368,-4, 0, 1, -3, -2, 1, 1, -3
1503515711392,-1, -1, -3, 1, 2, -1, -2, -1
1503515711406,7, 3, -1, -1, -1, -3, 1, 3
1503515711428,-2, 4, 7, 6, 0, -1, -1, -4
1503515711450,-2, -2, -5, 0, 0, -2, 0, -1
1503515711466,2, 0, 0, 2, 1, -1, 0, -1
1503515711490,6, 5, 4, 4, -2, -1, -2, 2
1503515711511,-15, -12, -1, 9, 6, 2, -1, -3
1503515711526,5, 3, -2, -12, -9, -4, -2, -1
1503515711549,-1, -3, -2, -3, -1, -1, -1, -1
1503515711571,-6, -5, -1, 2, -1, -2, 0, -1
1503515711587,-3, -2, 0, 2, 1, 1, -1, 1
1503515711609,-4, 4, 0, -8, -5, -1, 0, 1
1503515711631,2, 2, 1, 1, 2, 1, -1, -1
1503515711646,2, 0, -2, -3, -2, -4, -3, -2
1503515711669,-2, -4, -3, -4, -3, 1, 0, -2
1503515711698,0, 1, 1, -2, 0, -1, -1, -1
1503515711706,-8, -8, -2, 1, 4, -2, -2, -1
1503515711729,-15, 1, 0, -3, -5, 2, 0, -2
1503515711751,6, -5, -4, -1, -2, -12, 0, 2
1503515711773,-2, -11, -8, -1, 0, 5, 0, -1
1503515711789,6, 3, 1, 3, 2, 1, 0, -1
1503515711810,-1, -6, 0, -2, -3, 0, -2, 1
1503515711833,4, 5, 0, -1, 2, 0, -1, -1
1503515711849,3, -1, -2, 1, -2, 0, 0, -2
1503515711871,0, 2, 2, -2, -3, -3, -5, -1
1503515711893,14, -3, -3, -1, 0, 1, -1, 2
1503515711909,2, 1, 1, 1, 0, -3, 1, 1
1503515711931,-11, 4, -1, 0, 1, -2, 0, -4
1503515711953,4, 1, 1, 0, -2, 2, -1, 0
1503515711969,-12, -24, -8, -4, -2, -2, 1, 0
1503515711992,4, 4, 1, 0, 1, 1, -2, -4
1503515712014,0, 4, 1, 0, -1, 0, -1, -1
1503515712029,-9, -4, -7, -2, -1, -1, 0, -5
1503515712050,5, 5, 4, 5, 7, 1, 0, 3
1503515712073,0, 4, -1, -2, 0, -3, -1, 0
1503515712088,-8, -9, -3, -3, -2, -1, 0, -3
1503515712102,-6, -5, -2, 0, -2, 0, -2, -4
1503515712118,-4, 3, 4, 0, 1, -1, 2, 4
1503515712141,5, -3, -5, 3, -1, -1, -1, 0
1503515712149,-3, 1, -5, -7, -5, 0, -3, -5
1503515712170,1, 3, 1, 0, -15, 0, 1, 2
1503515712194,-3, -7, -5, -2, 3, 1, -2, -2
1503515712209,1, 5, 1, 1, 0, 0, 0, 2
1503515712231,1, 2, -1, 1, 1, -3, 0, 1
1503515712253,-10, -5, -2, -14, -20, -4, 0, -1
1503515712270,-2, -4, -3, -1, 6, 1, 1, 1
1503515712291,0, 1, 1, 5, 9, 0, 2, -3
1503515712320,24, 10, 3, -2, -5, -1, -5, -15
1503515712330,-11, -2, 1, 3, 4, 3, 0, -1
1503515712350,4, -4, -5, -3, 1, -3, 3, 1
1503515712373,-8, -4, -5, 1, 0, -2, -9, -2
1503515712389,-7, 3, 4, 1, 3, -3, 1, 13
1503515712404,-10, -1, 3, 2, 1, 2, 1, -5
1503515712419,-12, -4, -3, -2, -5, -2, 2, -9
1503515712441,27, 7, 3, 1, 1, 0, 4, 43
1503515712449,18, 9, 1, -1, -3, -5, 2, 14
1503515712463,-5, -2, -1, -3, -3, -4, -3, -1
1503515712478,-1, 0, 1, 2, 0, 3, -1, -9
1503515712500,-1, -2, -1, -2, 0, 1, 0, -12
1503515712522,-3, 4, -2, -3, -2, -3, -6, -12
1503515712531,3, 0, -3, -4, -1, 0, 7, 5
1503515712553,-9, -6, -4, 0, -5, -2, -6, -7
1503515712568,0, 2, 12, -1, 1, 0, 1, -3
1503515712590,5, 6, 4, 1, -1, -1, -3, -1
1503515712613,-4, -24, -15, -4, 0, -1, -1, -1
1503515712636,-6, -3, 0, -1, 0, 1, -1, -2
1503515712650,6, 8, -1, -3, 0, 0, 2, 1
1503515712673,-6, -1, -1, 1, 3, -2, 0, 0
1503515712689,8, 5, -3, -5, -4, -2, 2, -13
1503515712711,-4, 9, 0, 3, -1, 2, -4, 5
1503515712733,-1, -13, -5, -1, 0, 0, 0, 0
1503515712755,-2, -5, -1, 1, -1, -1, -2, -5
1503515712771,0, 1, 4, -4, -3, -2, 1, -1
1503515712793,-16, -9, 8, 1, 0, 0, -3, -6
1503515712815,1, 0, -7, 0, 0, -2, -2, 9
1503515712833,-23, -3, -1, -1, -4, -1, -3, 1
1503515712853,-3, 1, 1, -3, -2, -2, 1, 3
1503515712876,13, 15, 14, 3, 11, 2, -4, -14
1503515712890,-2, 0, -5, -1, -4, -4, -3, -8
1503515712913,-12, -20, -15, -2, -1, 1, -1, 13
1503515712936,8, 1, 2, -2, -1, -2, 3, 20
1503515712951,5, 4, 1, -1, -8, -1, -2, 2
1503515712973,4, 6, 2, 1, -4, -2, -1, 0
1503515712995,12, 3, 8, 4, -9, -1, -2, -12
1503515713009,-13, -9, -3, -2, -3, 5, 3, -1
1503515713025,-10, 3, 4, 0, 4, 5, 1, 1
1503515713034,1, -2, 7, 0, 10, -1, -2, 0
1503515713056,-19, 2, -1, 2, -1, 1, 2, 1
1503515713071,4, -2, -6, -5, -6, -2, 1, 12
1503515713093,17, 5, -1, -2, -1, 0, 1, 3
1503515713115,29, -1, -8, -4, 0, -5, -6, -13
1503515713131,-14, -5, -1, 0, 0, -6, 2, -1
1503515713153,0, -1, 1, -1, -5, 2, -3, -4
1503515713161,-5, -6, -6, 0, -14, -4, -14, -14
1503515713182,3, -1, -4, -1, 0, 5, 4, -7
1503515713205,-2, 1, -6, -2, 0, -1, -6, 0
1503515713220,-13, -21, -12, -4, 7, 0, -1, -16
1503515713243,25, 9, -1, -1, -2, 1, 3, 11
1503515713268,-12, -7, -5, -4, 5, 4, 0, -4
1503515713281,-2, 3, 1, 0, 0, 5, -1, 2
1503515713304,-5, -5, 2, 1, 0, -4, -2, -2
1503515713325,-5, -9, -4, -2, -1, -1, 7, 16
1503515713342,-4, -1, 2, 0, -1, -16, -4, -7
1503515713362,-3, -4, -3, 1, -1, -7, 2, -1
1503515713385,14, -12, -2, -3, 1, 17, -2, 1
1503515713402,-4, 3, -1, -3, 3, -10, 0, -2
1503515713422,0, -1, -2, -2, -1, -10, -3, 0
1503515713445,2, -4, 0, -1, -1, 2, -1, -15
1503515713460,14, 2, -1, -1, -6, 1, -10, 1
1503515713482,-10, 1, -1, -2, -2, -1, 4, -2
1503515713505,1, -1, 3, 3, -1, 4, 2, 28
1503515713520,-4, -1, 3, 1, -3, -6, 3, 7
1503515713537,14, 2, -4, -2, -14, -19, 11, -7
1503515713550,8, -1, -3, -1, 6, 21, -3, 16
1503515713574,-17, -15, -9, -7, -6, 1, 9, 1
1503515713595,5, -18, -9, -2, 3, 7, 0, 1
1503515713611,-21, 1, -4, -3, -5, -4, -9, -14
1503515713633,-15, -3, 1, 1, 2, 2, -6, -8
1503515713655,-11, -10, -2, 1, 2, -1, -4, -10
1503515713680,5, 1, -2, 0, -2, 2, 0, -5
1503515713693,-20, 1, 3, -1, 2, -1, -3, -6
1503515713715,34, 10, -2, 0, -1, -6, -1, 30
1503515713739,6, 3, -1, -3, 0, 17, 6, 7
1503515713753,-3, 0, 2, -2, -15, 2, 3, -10
1503515713775,29, 15, 4, 2, 1, 6, -3, 5
1503515713791,0, 1, 0, 0, -4, 6, -8, 7
1503515713806,4, -1, 2, 0, 3, 3, 0, -7
1503515713814,-25, -35, -8, -2, 2, -7, -4, 22
1503515713835,-12, -12, -8, -2, 4, 1, -3, -9
1503515713858,3, 8, 3, 0, 0, -14, -4, -3
1503515713873,14, 11, 5, 0, -1, 13, -3, -6
1503515713895,-13, -9, -6, -3, -3, 2, -8, -9
1503515713918,1, 17, 1, -1, -1, -7, 2, -11
1503515713934,3, -5, 3, 2, 1, 0, 2, -25
1503515713949,-1, -19, -17, -3, -2, -3, 1, 4
1503515713963,1, -13, -6, -2, 0, 0, -3, -1
1503515713986,-9, 0, -2, -2, -4, -1, -2, -2
1503515714009,-3, 4, 5, 1, 4, 4, -8, -10
1503515714031,20, 3, -1, -3, 0, 0, 2, -5
1503515714046,-3, -5, -3, -2, -5, -4, 0, -4
1503515714068,-1, 19, 18, 3, 0, -1, 2, 4
1503515714091,-4, -14, -5, 0, 0, 3, 3, 17
1503515714109,23, 3, -2, 0, 0, 0, 0, -4
1503515714128,2, -13, -5, -2, 1, 2, 5, -7
1503515714143,-8, 1, -3, -2, -1, 2, 11, 4
1503515714166,-20, 21, 8, 1, -1, -4, -11, -8
1503515714189,-23, -29, -15, -5, 0, 4, 5, 13
1503515714204,7, 8, 2, -1, -2, 15, -5, -11
1503515714226,-16, -11, 3, 2, 0, 14, 11, -2
1503515714249,18, 4, -3, -1, -3, -13, -8, -2
1503515714271,37, -1, 0, -2, -2, -5, 0, -2
1503515714286,-3, 0, -5, -2, 0, -2, 6, 1
1503515714310,22, -2, -3, -2, -3, -10, -9, 1
1503515714323,-9, 6, 0, 0, -4, -12, 7, 3
1503515714346,-19, -1, 2, 0, -1, -4, -9, -3
1503515714368,3, 12, 3, -2, 1, 8, 9, 2
1503515714390,-8, -4, -3, -1, 0, 4, -8, 3
1503515714414,-7, -1, -2, 0, 3, 3, -1, -1
1503515714435,-4, -7, -2, -1, -4, 9, 10, -17
1503515714458,35, 9, 3, 3, 7, -16, -5, -4
1503515714473,-21, -5, -4, -2, -7, -6, -2, 5
1503515714495,6, 5, 4, 4, -2, 8, 10, -8
1503515714519,-40, -3, -3, -5, -3, -7, -2, -4
1503515714533,-1, -6, 1, -1, 3, -1, 0, 17
1503515714556,-6, -7, -4, -2, 0, -5, -5, 15
1503515714579,-4, -22, -9, -5, -4, -4, -5, -4
1503515714600,-6, 16, 3, 0, 0, 0, -3, -20
1503515714616,29, -8, -9, -7, -7, -8, 0, 11
1503515714638,12, 1, -2, 2, 2, 4, 2, 3
1503515714661,7, 3, -2, -3, 2, -1, -2, 0
1503515714676,-10, 18, 1, 1, -1, 2, 5, 3
1503515714698,8, 8, 5, 1, -1, -3, -2, 17
1503515714720,-3, -1, 3, 2, 2, 0, -3, -40
1503515714735,38, 4, 1, -1, -4, -2, 2, 6
1503515714758,-21, -8, 1, 1, 3, -2, 2, -3
1503515714781,-24, -41, -9, -2, -2, 2, -6, 3
1503515714795,-25, 9, 6, 3, 0, 1, -4, -3
1503515714818,15, 7, -1, -2, -1, -4, -1, 8
1503515714840,1, -7, -4, -2, 0, -4, -2, -13
1503515714855,14, 9, 2, 1, -2, 0, 0, 4
1503515714879,-4, -8, -5, -1, -2, 2, 5, 8
1503515714900,-8, 5, -4, -2, 0, 1, -4, 3
1503515714908,11, 4, -4, -2, 0, 3, 1, -4
1503515714931,-6, -6, -4, -5, -7, 14, -2, -6
1503515714947,3, -3, -3, 0, -2, -4, 4, -3
1503515714968,6, -10, -5, 0, 1, 0, -2, 0
1503515714991,-4, -23, 2, 1, 0, 1, -3, 1
1503515715006,-29, -18, -6, -6, -3, -2, -5, -5
1503515715035,5, -6, -7, -1, -2, -6, -1, -5
1503515715052,10, 3, 7, 12, 15, -18, 0, 5
1503515715066,-11, 2, 4, -4, -4, 10, 3, 2
1503515715089,5, 30, 7, -2, -5, 0, 4, 1
1503515715111,30, 2, 4, 2, 0, -1, -4, -1
1503515715126,8, -16, -13, 3, 1, -4, 3, 3
1503515715149,6, 7, 1, 1, 5, 25, 2, 1
1503515715171,-5, -8, -1, -2, -2, 4, 2, 0
1503515715186,-26, 19, 13, 1, -2, -5, -1, -1
1503515715208,-16, -33, -15, -1, -4, -7, -5, -1
1503515715231,6, -1, -4, -4, -1, -3, 3, 5
1503515715249,-3, -3, -5, -1, 3, 5, 9, -3
1503515715268,-3, -15, -6, -1, -3, -4, -1, 2
1503515715291,-29, 5, 9, 3, -2, 0, -2, -7
1503515715306,4, 12, -5, -8, -3, -7, -8, -2
1503515715328,5, -1, -9, -9, -5, -7, -8, 0
1503515715351,9, 2, -4, -8, -1, -2, -3, 0
1503515715367,7, 20, 17, 13, 1, 0, -1, 0
1503515715388,15, -4, -1, -5, -1, 0, 8, 1
1503515715411,-6, -27, -12, -5, -3, -9, -28, -7
1503515715426,12, 12, 2, 5, 0, 6, 6, 3
1503515715450,-9, -11, 1, 14, 3, 5, -1, -1
1503515715471,-2, -23, -12, -3, -1, -1, 2, -1
1503515715486,-14, -3, 0, -5, -1, -1, -2, -3
1503515715508,7, 5, -3, -5, -3, 0, 2, 3
1503515715531,-3, 6, 14, 8, 0, -2, -1, 0
1503515715554,3, 4, -3, -10, -3, -3, -1, 0
1503515715568,-4, 10, 3, -3, -3, -4, -1, -3
1503515715591,15, 1, 1, -1, 0, 6, 6, 6
1503515715613,9, -3, -14, -6, -5, -3, -1, -1
1503515715628,7, -3, -3, 1, -1, -1, 0, -2
1503515715652,-8, -6, 3, -2, -1, -3, -6, -4
1503515715673,0, -5, 1, -4, -4, -2, 0, -1
1503515715689,-18, 5, 0, -2, 0, 3, -1, -4
1503515715711,-10, -10, -8, 4, 1, -2, -3, -3
1503515715719,-11, -13, -8, -3, 0, -1, 0, -1
1503515715740,-4, -5, 0, -3, -2, 1, 1, 1
1503515715763,3, 11, 10, 6, 0, -1, 2, 4
1503515715778,11, 10, 0, -3, -3, 0, 3, 0
1503515715800,-12, -3, 1, -4, -3, -1, -2, -3
1503515715823,-4, 6, -2, 2, 0, -1, -2, -3
1503515715838,8, 13, 0, -2, -1, -1, -2, 4
1503515715854,3, -7, -1, 0, -1, -2, 3, -4
1503515715868,-4, -3, -3, -5, -2, 0, 1, 3
1503515715892,20, 3, -9, -6, -3, -2, -1, 7
1503515715913,-2, -19, -9, -2, 0, 1, -2, -3
1503515715928,-8, -2, -2, -1, -2, -1, -2, -6
1503515715954,0, 0, 1, 2, 1, -1, 3, 1
1503515715973,4, -1, 0, 2, 1, 1, -1, 0
1503515715991,-15, 0, 1, -1, -1, 1, -1, -4
1503515716011,-2, 3, 6, 5, 2, -1, -3, 0
1503515716033,1, -3, 0, 1, -1, 0, 1, -2
1503515716048,2, 0, -3, -1, -1, -2, -3, 1
1503515716071,2, 5, 10, 2, 0, -1, 0, 0
1503515716093,0, -2, -7, -4, -1, -2, 0, 1
1503515716108,1, 4, 3, 4, 0, 2, -1, 2
1503515716131,0, 1, -1, -1, 3, 0, -2, -3
1503515716155,2, -7, -8, -4, -1, -1, 0, -2
1503515716168,-3, 4, 0, 1, 0, -2, 0, -1
1503515716191,9, 3, 2, -1, -3, 0, -1, 0
1503515716221,-2, 18, 5, -1, -1, -1, -1, 0
1503515716228,-5, -12, -7, -2, -2, -3, 1, -1
1503515716251,-5, -11, -5, 1, -2, 1, -2, -3
1503515716259,0, 0, -7, -5, 0, 0, -2, -2
1503515716290,-9, -10, -6, -4, -2, -3, 2, -3
1503515716311,14, 29, 10, 1, -2, -1, -4, -2
1503515716333,-5, -8, -5, -4, -3, -2, 6, -2
1503515716349,2, -5, -2, 0, 0, -1, 0, 2
1503515716372,-6, -5, 0, 0, -1, 1, -1, 4
1503515716394,-1, 0, -2, 1, 0, 1, -2, -1
1503515716408,-6, -17, -5, -1, -1, -2, -2, -2
1503515716432,-6, 5, 0, 0, -1, -1, -1, -2
1503515716453,8, -2, -1, -1, 1, -2, -3, -1
1503515716461,-1, 4, 5, 3, 2, 1, 3, 2
1503515716483,5, -2, -1, -1, -4, -2, -2, -3
1503515716505,-8, 1, -7, -3, -1, 2, 12, 1
1503515716520,2, -8, -5, 0, -3, -4, -5, 1
1503515716543,-1, -2, 1, -3, 3, 0, -4, -4
1503515716566,-2, 5, 1, 5, -1, -2, -1, -1
1503515716581,0, 10, 4, -2, -2, 1, -1, -1
1503515716603,1, -1, 1, 0, 1, -3, -1, 1
1503515716625,0, -2, 0, -3, 1, 2, -1, -2
1503515716640,-1, -2, 0, 0, 0, 0, 0, -1
1503515716663,0, 16, 2, -3, -1, -5, -3, -5
1503515716685,-1, 2, -2, -3, 0, -4, -1, -2
1503515716701,25, 7, 0, 0, -1, 2, -2, -2
1503515716723,-10, -6, -1, 1, -2, -1, -2, -6
1503515716745,-7, -3, 0, 0, -3, 0, 1, 1
1503515716760,-12, -3, -1, -2, 0, -1, 4, 4
1503515716783,41, 24, 3, 2, -1, -1, -3, -6
1503515716805,-29, -21, -2, 0, 0, 1, 0, 1
1503515716820,-4, -5, -2, 0, 0, 0, -1, -1
1503515716843,5, -1, 0, -1, -1, -3, -5, 12
1503515716866,-1, -1, 6, 3, 1, 2, 4, 8
1503515716880,-11, -3, -12, -6, -5, 1, -4, -15
1503515716903,-11, -10, -7, -3, -1, 0, 0, 2
1503515716925,-2, -2, 0, -1, 0, -1, 1, -3
1503515716940,-4, -5, 0, 0, 2, -2, -4, -5
1503515716964,3, 4, 5, -1, 0, -1, 0, 1
1503515716985,5, 2, 0, -2, 0, -1, 1, 4
1503515716995,-6, -6, -6, -2, 3, 2, -2, 5
1503515717015,-6, -25, -13, -4, -2, -3, 2, 6
1503515717033,-13, -14, -1, 0, 0, -1, -1, -4
1503515717053,-12, 3, 2, 1, 1, -1, -7, -26
1503515717075,-6, -3, 6, 4, 0, 1, 3, 7
1503515717091,4, 9, -1, -3, -2, -2, -2, -1
1503515717113,9, 7, 5, 1, 0, 0, 1, 1
1503515717135,21, 19, 0, 0, 0, 1, 4, 10
1503515717151,20, -4, 1, -1, -2, 1, 1, 4
1503515717173,-12, 4, 0, -2, 1, -1, -1, -6
1503515717196,-2, -2, -1, 0, -4, -3, -3, -2
1503515717204,-5, -2, -1, -2, -3, -4, -1, -1
1503515717225,-7, -1, -1, 3, 1, 0, -3, -2
1503515717240,5, 2, 0, 0, 0, -1, -1, 4
1503515717263,4, -14, -8, -2, -2, -1, 0, -3
1503515717285,0, 3, 1, 1, 0, 2, 3, 2
1503515717302,-1, 3, 1, -1, -1, -1, 0, 0
1503515717323,2, 5, 0, 1, 5, 0, -2, -4
1503515717345,1, 1, 0, -1, -3, -2, -2, 0
1503515717367,7, 3, -4, -2, -1, 1, 0, 1
1503515717383,-11, 6, 15, 3, -1, -2, -1, -5
1503515717405,0, -7, -7, -4, -2, -2, -1, -2
1503515717427,2, 1, 0, -5, -2, -2, -1, 0
1503515717443,8, 1, -2, -1, -1, 0, 1, 0
1503515717465,-12, -20, -6, -1, -3, 0, 2, -1
1503515717487,1, 11, 2, 1, -1, -1, -4, -2
1503515717503,-3, -8, -2, -1, 2, 4, 1, -1
1503515717525,-1, 21, -6, -2, 0, 0, -1, -4
1503515717547,-8, -2, -6, -4, -2, -1, 0, -1
1503515717565,1, -3, 0, 0, 1, -3, -3, 1
1503515717584,-5, -6, -2, -1, -4, -3, -1, 1
1503515717607,7, -5, 6, 1, 0, -2, 4, 1
1503515717623,-8, 21, 7, 2, -1, -1, -3, -6
1503515717645,11, -5, 1, 2, 0, -2, 0, 1
1503515717668,1, -2, 4, -1, 0, 0, -1, 3
1503515717683,-3, -4, -1, -1, 0, 2, 0, 0
1503515717705,-31, -32, -13, -4, -1, -1, -5, -4
1503515717727,7, -6, -7, -3, -1, -2, 1, -2
1503515717757,-2, 12, 2, 0, -1, -1, -2, -2
1503515717772,1, -1, -1, -1, 0, -1, 0, -3
1503515717787,7, 8, 16, 4, 2, 1, 2, 1
1503515717803,2, 3, -3, -1, 0, -2, -8, -3
1503515717825,12, -9, -5, -4, -4, -1, -1, 2
1503515717848,-3, 1, -5, -5, -1, -1, 2, -1
1503515717863,0, -6, -7, 2, 2, 0, 1, 0
1503515717885,2, -1, -7, -3, -2, -1, -1, 1
1503515717907,-4, -12, -1, 1, 0, 1, 3, -3
1503515717923,-1, -6, -5, 3, 3, 0, -3, 2
1503515717945,-1, 7, 4, -6, -6, -2, 0, -1
1503515717969,-16, -17, 1, 3, 3, 1, -2, -4
1503515717983,9, 10, 2, -1, -5, -2, 0, 0
1503515718005,11, 16, 9, 0, 0, -4, -1, 2
1503515718027,23, 6, -5, -3, 1, 0, 4, 0
1503515718043,-33, -14, -2, 2, -1, 1, -2, -1
1503515718073,-5, 7, 10, 1, 0, 1, -7, -1
1503515718095,5, 2, -2, 4, 20, 5, 2, 0
1503515718118,-6, 0, -2, -2, -9, -3, -1, -2
1503515718136,3, -2, -3, -3, -4, -1, 4, -2
1503515718155,3, -4, -2, -1, -1, 0, 1, 0
1503515718178,-11, -6, -5, -2, -3, 0, -3, -2
1503515718193,0, 1, -2, -1, -5, -4, -2, -1
1503515718215,6, -1, -3, -2, 0, -3, -4, -3
1503515718241,-5, -12, -12, -5, -3, -3, -4, 1
1503515718253,-1, -4, -4, -1, -1, 0, -3, 0
1503515718275,-1, 2, -1, -2, -1, 1, 3, 5
1503515718298,5, 9, 6, 1, 1, 2, -7, -1
1503515718320,-6, -1, 1, -4, -7, -6, -6, -13
1503515718339,-3, -4, 2, 1, -1, -2, -2, 2
1503515718358,9, -6, -1, -1, -2, -2, -2, -3
1503515718381,-2, -1, 1, 0, -2, -2, 2, -2
1503515718395,1, 3, -4, -1, 0, 4, 10, 8
1503515718418,-6, 1, 5, 3, 3, 2, 3, -5
1503515718441,0, 13, 2, -1, -4, -2, -5, -9
1503515718455,-16, -14, -1, 2, 1, -2, 1, 0
1503515718478,15, -1, -6, -4, -1, -3, -4, 7
1503515718500,-1, 1, -1, 1, 0, -2, 1, 4
1503515718516,0, 3, 5, 2, 2, 2, -4, -1
1503515718539,7, 0, -7, -4, -3, 1, -3, -1
1503515718546,-9, -1, 1, 1, 2, -2, -4, -5
1503515718567,21, 31, 9, 3, 1, 2, 0, 11
1503515718590,-10, -4, -2, 2, 1, -2, -5, -26
1503515718607,11, -4, -2, -2, -1, 2, 6, 12
1503515718627,1, -3, -1, -1, -19, -2, 0, -2
1503515718650,2, 4, 2, 0, 2, 0, -1, 1
1503515718665,20, 15, 3, 1, 3, -2, -2, 4
1503515718687,-11, -19, -8, 0, 7, 1, -3, -3
1503515718710,-10, -9, 0, 3, 26, -5, -5, -2
1503515718725,1, 1, -2, -5, -3, -2, -9, 5
1503515718747,-10, -4, -2, 2, -9, -8, -1, 7
1503515718770,-6, 0, 3, -2, 0, 2, 1, -1
1503515718785,-15, 0, 4, 2, -18, -1, 0, -7
1503515718809,1, 19, 14, -1, 4, 10, 11, 2
1503515718830,8, -6, -6, -3, -9, -3, -3, -2
1503515718860,2, -4, -5, 2, 15, 3, -2, -4
1503515718875,20, 16, 2, -4, -3, -3, -2, -3
1503515718898,26, 9, -10, -5, -4, -4, -7, 11
1503515718921,-14, -22, -13, -3, -2, -3, 3, -6
1503515718935,-14, 2, 8, 1, -2, 1, -11, -6
1503515718958,-11, 0, 8, 18, 19, -1, 10, 1
1503515718982,1, 11, 5, 0, -8, -1, 0, 1
1503515718995,-12, -13, -8, -10, -6, -4, -9, -9
1503515719018,-11, -12, -2, -2, -2, -3, 1, 2
1503515719041,-2, -4, 6, 0, 23, 2, 4, 4
1503515719055,-8, -1, -2, 1, -5, 0, -6, -4
1503515719078,-5, 1, -1, -4, -9, -1, 2, 5
1503515719100,19, 9, -3, -4, -3, 0, 4, 10
1503515719115,2, 7, 0, -1, -3, 0, 3, -9
1503515719138,-16, -16, -9, -4, -4, 0, -8, -7
1503515719160,3, 0, -1, 1, -5, -5, -20, -3
1503515719175,4, 4, -3, -10, 0, -6, -8, 6
1503515719198,-8, -1, 7, 2, -3, 0, 6, -3
1503515719220,8, -11, -2, 2, -1, 2, 3, 0
1503515719243,-8, -7, -6, -4, -6, -2, 3, 3
1503515719258,7, 8, 3, -1, 1, 1, 8, 0
1503515719281,10, 9, 4, 0, -4, 0, -6, 3
1503515719303,-2, 0, -2, -1, -2, 1, 7, -3
1503515719318,-16, -18, -8, -4, -3, 0, -9, 0
1503515719342,-2, -5, -4, 2, 3, -5, -6, -10
1503515719363,2, 4, -2, -1, -2, -6, 0, -22
1503515719378,-5, 1, 3, -1, -3, -6, -14, -5
1503515719400,-5, -5, -1, 1, 2, 2, -19, 1
1503515719423,18, 14, 12, 2, 2, -1, 0, 4
1503515719439,16, 8, 2, 3, 0, 2, -9, 13
1503515719460,1, 10, 4, -1, -3, -1, -7, -7
1503515719483,4, -1, -5, -2, 2, 4, 18, 16
1503515719498,-19, -16, -4, 1, 0, -2, 7, -10
1503515719520,0, 3, -5, -1, 0, 1, 4, 4
1503515719544,-7, -12, 1, 0, -1, 2, 9, -3
1503515719558,-6, 2, -1, -3, -2, 1, -11, -9
1503515719581,3, 10, 4, -2, -1, -3, -1, 10
1503515719603,-4, -1, -4, 0, 2, -1, -4, 4
1503515719618,3, -8, 0, 0, -1, -3, -2, -9
1503515719640,-7, 5, 2, 2, 1, -2, 9, 3
1503515719663,-2, -21, -7, 0, -3, -5, 3, -4
1503515719678,20, 27, 13, 0, 1, 5, 10, 15
1503515719700,-15, -9, -6, -1, -2, 2, -4, 5
1503515719723,-3, -7, -4, 0, 0, -1, 2, -5
1503515719738,1, -2, -3, -1, 0, -1, 0, -6
1503515719760,2, -3, -5, -7, -5, -1, 1, -8
1503515719783,2, -8, 0, 0, 0, 2, 4, -3
1503515719798,-4, -2, -5, 0, 2, 0, -3, -2
1503515719821,-23, -4, -1, -2, -6, -1, -3, 4
1503515719845,4, 0, -5, -4, -4, -1, 2, -3
1503515719858,-3, 7, 4, 1, 1, -4, -3, -8
1503515719881,2, -5, -1, 2, 5, 2, -7, 6
1503515719903,6, -1, -2, 0, -2, 2, -1, -2
1503515719918,-7, -22, -4, -2, -1, -1, -2, -1
1503515719940,8, 10, 0, -1, -2, -1, 3, 6
1503515719963,-1, 8, -2, -5, -6, -9, -11, -2
1503515719979,-3, 5, 5, 3, 1, 1, 1, -4
1503515720000,9, -4, -4, 0, 1, -2, 2, 1
1503515720023,21, -14, -8, -4, -2, -2, -1, 5
1503515720038,-17, -10, -6, 0, 1, 1, -3, -5
1503515720060,2, 16, 10, 4, 4, -1, 9, 1
1503515720083,-4, 4, 1, -4, -4, -2, 2, -3
1503515720098,2, 2, 3, -1, -1, 0, -7, 3
1503515720121,-11, -12, -4, -1, -2, -3, -1, 2
1503515720143,-2, -17, -6, -1, 2, -2, -13, 2
1503515720165,-4, -3, -3, 0, -2, 0, -6, -8
1503515720174,0, 12, 5, -2, 0, 5, -1, 4
1503515720195,-1, 5, 5, 3, 1, 1, 2, 4
1503515720211,6, -5, -7, -2, -1, -1, 0, -4
1503515720233,1, 0, -4, 3, 6, 0, 5, 5
1503515720256,0, -9, -4, -3, -3, -2, -6, -2
1503515720271,-12, 3, 6, 0, -2, 1, -1, -10
1503515720293,5, 31, 14, -3, -2, 1, 13, 0
1503515720316,18, -5, 8, 3, -1, -3, 2, -7
1503515720338,-8, -9, -5, -3, -2, 1, -3, -1
1503515720353,-9, -11, -6, 1, 2, -1, -2, -13
1503515720376,-15, -18, -8, -1, -3, -2, 6, -2
1503515720391,-12, -5, -5, -2, 2, 2, -1, -2
1503515720416,-7, -13, 3, 8, 7, 1, 1, -4
1503515720435,20, 17, -1, -3, -2, -4, -7, 11
1503515720452,-12, 5, -6, -4, -2, 2, 5, 8
1503515720473,-9, 0, -4, 0, -2, 1, -21, -15
1503515720495,-3, -13, 1, 7, 0, 0, -8, -2
1503515720518,5, -3, -8, -5, -3, -7, 15, 6
1503515720533,2, -1, -3, -4, -1, 2, -5, -9
1503515720555,-9, 18, 10, -2, -3, -2, -5, -5
1503515720571,-2, 0, 4, 5, 6, 3, 14, 12
1503515720593,0, 6, 0, -11, -3, 0, -5, -5
1503515720616,11, 12, -1, -2, -4, -5, 3, 2
1503515720631,2, -25, -20, -5, -7, -10, -14, -1
1503515720653,-12, -1, 1, -1, 0, 6, 1, 1
1503515720675,0, 17, 4, -1, 1, 1, 16, -5
1503515720691,1, -5, 9, 8, 2, 1, -7, 4
1503515720716,2, -12, 0, -3, -1, -2, -6, -2
1503515720735,41, 45, 12, -8, 1, 0, -3, 7
1503515720751,-10, -24, -3, 1, -4, -1, -7, -2
1503515720773,-12, -17, -7, 1, -1, -2, -3, -3
1503515720795,7, 4, -2, 3, -1, 0, -1, 7
1503515720811,-15, 1, 7, -1, 0, -2, 0, -8
1503515720833,-6, -22, -6, -1, -1, -1, 9, 4
1503515720856,19, 9, -2, -2, 0, 1, -3, -3
1503515720871,-6, -24, 2, 1, -1, -2, -4, 0
1503515720893,-5, 3, 2, 2, 1, -1, 3, -4
1503515720917,12, 0, -3, -1, -1, 2, 4, 0
1503515720931,-11, 2, -4, -4, -2, -4, 4, 1
1503515720953,-12, -1, -5, 0, 2, -2, -4, -1
1503515720975,-9, -14, -3, -1, -3, 0, -6, 1
1503515720992,-10, 3, 5, 2, 0, -1, -5, -4
1503515721013,5, 9, 1, -3, 1, 3, 5, 2
1503515721035,5, 4, -2, -2, 0, 0, -10, -5
1503515721053,5, 14, 8, 1, 0, -1, 4, 3
1503515721066,-28, -2, -3, -3, 0, 0, 0, -4
1503515721080,-3, -9, 1, 0, -1, 0, 1, -2
1503515721103,-2, -11, -8, -1, -2, -3, -8, -6
1503515721126,9, 7, 0, 2, 1, 2, 4, 5
1503515721148,-3, 5, 0, -2, 0, -1, -1, -18
1503515721163,-3, -11, -1, 1, -1, -1, -8, -13
1503515721186,6, 7, 14, 11, 1, -1, -3, 3
1503515721208,13, -3, -6, -6, -1, 2, -3, 5
1503515721223,1, 5, -4, -4, 1, 3, 8, 5
1503515721245,3, 5, -2, -1, -3, -3, 1, 4
1503515721268,10, 12, 8, -2, 1, -3, -2, 3
1503515721285,16, 0, 2, 3, -1, 2, -1, 2
1503515721298,3, 16, -6, -2, -2, -2, 6, -4
1503515721313,1, -8, -2, 0, 1, 0, -6, -6
1503515721336,25, 9, 5, 0, -1, -1, 6, 4
1503515721358,7, -3, 8, 8, -2, -1, -4, 0
1503515721373,-1, 1, -3, -6, -1, 0, -1, 2
1503515721396,-6, -24, -5, -3, -3, -2, -3, 1
1503515721420,-2, 1, -1, -2, 0, -2, -1, 0
1503515721433,3, 5, 0, -2, -1, 0, -6, -6
1503515721456,4, -4, -5, -2, 0, 0, 1, -1
1503515721478,-14, 7, -1, 0, -1, -1, 0, -3
1503515721493,2, -3, -5, -1, 0, -2, -4, -3
1503515721516,8, -15, -9, -3, 0, -1, 0, 3
1503515721538,-1, 9, 6, -1, -3, 0, -1, -2
1503515721554,-2, 1, 16, 5, 1, 0, -3, 0
1503515721576,-1, 2, -7, -2, 0, -2, 0, 1
1503515721598,0, 1, -3, -3, -1, 1, 1, 0
1503515721621,-16, -4, 1, 2, 0, -1, -2, -1
1503515721629,40, -1, -2, -1, -1, 1, 0, 5
1503515721642,-22, -9, 0, -2, -1, -2, -1, -4
1503515721665,-6, -26, -8, -4, -3, -2, -2, 0
1503515721688,3, -4, -3, -2, -2, 1, 2, 1
1503515721703,-3, 0, -4, 0, -1, -4, 0, -1
1503515721727,-6, 7, 1, -1, -1, 0, -3, -1
1503515721748,-4, 3, -3, 0, -2, -1, -3, 0
1503515721763,-8, -10, -2, 0, 1, -3, -1, -4
1503515721785,2, 19, 12, 2, 0, -1, -1, -3
1503515721808,-2, -5, -4, -2, -1, 1, 1, -1
1503515721823,-1, -4, -3, -2, -1, -1, -3, 0
1503515721845,3, -12, -11, -3, -1, 1, 1, -2
1503515721868,-6, -2, -2, -2, -2, -2, -1, 1
1503515721883,4, 8, 2, -2, -2, -2, 3, -1
1503515721905,3, 14, 8, 1, 0, 1, 8, -1
1503515721928,-15, 3, 8, 0, 2, -1, 7, 1
1503515721936,-8, -1, -5, -3, 0, -3, -8, -6
1503515721959,11, 11, 7, 4, 0, 0, -2, 0
1503515721973,3, -5, -5, -3, -2, 2, 0, 1
1503515721996,-11, -6, 0, -3, 1, -2, -1, 0
1503515722018,38, 8, -2, -2, -2, -1, -1, 1
1503515722040,-16, -8, -7, 1, 1, -1, 0, -1
1503515722057,4, -10, 2, 4, 0, 0, 3, -1
1503515722078,12, -5, -5, -2, -1, 0, 0, 2
1503515722100,-12, -4, -1, -1, 0, -1, -3, -2
1503515722116,-4, -4, -2, 0, -3, 0, -3, -2
1503515722138,-4, -5, 0, 1, -1, 0, -1, -3
1503515722160,-3, 7, 4, -2, -2, -1, -2, 0
1503515722176,-3, 2, 3, -1, -1, -1, 1, 1
1503515722198,6, 4, 2, -2, -2, -1, -1, 0
1503515722220,-7, 0, 1, 2, 2, -3, 0, 1
1503515722236,0, -10, -7, 2, 1, -1, 2, -3
1503515722258,2, -4, -3, -3, -4, 0, -2, 2
1503515722280,-4, 2, 0, -1, 2, 1, -2, -2
1503515722296,4, 6, 7, -1, 1, -2, 0, 5
1503515722317,3, 8, -6, -3, -3, -1, 1, 7
1503515722340,-16, -9, -3, 1, -1, 0, -1, -6
1503515722357,-12, -5, 0, 0, -1, -1, 0, -6
1503515722377,-4, 0, 2, 0, 1, -1, -2, -2
1503515722400,9, 5, 6, 1, 2, 2, -1, 0
1503515722416,-3, -2, -4, -3, -7, -2, 2, -4
1503515722438,-7, -5, -3, -1, -11, -2, -4, -2
1503515722461,2, -1, 0, -1, -10, -2, -1, 3
1503515722475,5, 7, 1, 0, 3, 1, -4, -1
1503515722498,2, 2, 0, -1, 2, 0, 4, 1
1503515722522,7, -7, -7, -6, -3, -3, -5, -2
1503515722536,-4, 11, 4, -2, 6, -2, 0, -1
1503515722559,9, -3, -5, -2, -1, -3, -2, 0
1503515722580,1, -3, -3, 1, -2, -1, -1, -3
1503515722596,-6, -2, -3, -2, -1, 1, 2, -4
1503515722617,-5, -7, 5, 1, 2, -4, 0, 1
1503515722640,-7, 1, -3, -3, 0, -1, 1, -2
1503515722656,-5, -3, -3, -8, -10, -6, -4, 0
1503515722677,6, -2, -2, -5, -6, 2, 5, 0
1503515722701,-1, -1, 0, 6, 19, 4, -3, -1
1503515722716,12, -2, -1, -2, -11, -1, -4, 0
1503515722738,-15, -22, -5, 3, 7, -1, 1, -1
1503515722762,11, 15, 0, -11, 11, 0, -5, 1
1503515722775,-8, -3, 0, 1, 18, 2, -2, -2
1503515722798,-12, 0, 1, 2, -9, -4, -4, 0
1503515722820,-4, 1, -3, 3, -7, 1, 0, -1
1503515722836,11, 22, 5, -1, -11, 0, 2, 4
1503515722860,8, 2, -1, -2, -5, -6, -2, -5
1503515722866,6, 4, 2, 1, 11, 3, 2, 0
1503515722888,13, 3, 4, 2, 0, -1, -7, -3
1503515722909,-13, -8, -1, 0, -3, -5, -3, -2
1503515722927,9, 2, -1, -2, -2, -3, -1, -1
1503515722947,1, 4, 0, 0, -2, 1, -2, 0
1503515722969,-7, -7, -5, -6, -7, -9, -11, -7
1503515722994,-12, -8, 2, 2, 0, -1, -1, -2
1503515723008,8, -2, -5, -4, 0, -1, -1, -2
1503515723029,2, 3, -2, -2, 1, 2, 2, 2
1503515723052,1, -4, -3, -4, -18, -3, 1, -1
1503515723068,1, 2, 3, 2, -1, -2, 1, 0
1503515723089,-9, -1, 2, 0, 0, 0, 1, 0
1503515723112,7, 8, -4, -4, 0, 0, -4, 0
1503515723128,-5, -17, -8, -2, 2, 2, 2, 2
1503515723149,0, 0, 1, 0, -1, -1, -1, -3
1503515723172,1, 4, 3, 2, 0, -3, 2, 0
1503515723187,-3, -2, -2, -1, -1, -2, -5, 1
1503515723209,-7, -4, -2, -3, 0, 1, 0, 7
1503515723232,-18, -8, 0, 1, 1, -1, 1, -13
1503515723247,2, 6, 2, -1, -2, -3, -5, -6
1503515723270,2, 0, 2, 1, 6, 3, 4, 5
1503515723292,-20, -11, -7, 1, 0, 0, -2, -46
1503515723307,-12, 2, 2, -2, -2, 0, -3, 13
1503515723329,9, 2, -1, -1, 0, -1, 2, 8
1503515723339,-2, -19, -13, -7, -3, -4, -3, 0
1503515723362,0, -3, 0, -2, 1, -1, 0, -4
1503515723382,9, -3, -3, 1, -2, 0, 10, 3
1503515723398,17, -1, -6, -2, -3, -2, -9, 0
1503515723420,7, -12, -5, -3, -1, 0, -1, -8
1503515723430,-3, 6, 1, -1, -2, -5, -6, 3
1503515723449,-15, -13, -3, 1, 0, 0, 0, -11
1503515723473,9, 10, -2, -3, -3, 0, -1, 0
1503515723488,3, -7, -4, -2, -1, -2, -1, 14
1503515723509,-1, -2, 2, -3, -3, 1, 4, 1
1503515723532,-7, -7, 3, 3, 0, 0, 16, 2
1503515723548,3, 1, -1, -1, 0, -2, -7, -1
1503515723570,1, 3, 1, 1, 0, 2, -12, -9
1503515723592,3, -3, -3, -1, 0, 0, -4, -14
1503515723608,-1, -6, -5, -2, -1, 0, 0, 3
1503515723631,6, 5, -1, 0, 2, -1, -3, 0
1503515723652,11, 4, -4, -1, 0, -1, 1, -9
1503515723668,-10, -4, -5, -2, 1, 17, 6, -4
1503515723689,-2, 4, 2, 0, 0, -4, 0, -5
1503515723712,3, 8, 4, 7, 12, -1, 4, 7
1503515723728,-1, 3, 4, 6, 7, -5, 0, 5
1503515723749,-2, 11, 2, -8, -13, -4, -5, 0
1503515723772,-13, 12, 12, 1, -2, -3, -1, 1
1503515723789,-3, -5, -1, -1, -4, -3, -2, -1
1503515723810,3, -7, -1, 0, 0, 19, 1, 1
1503515723834,6, -4, -2, -3, -5, 1, 6, 3
1503515723848,3, -4, 1, 2, -3, -11, -5, 1
1503515723869,-24, -14, -5, -6, -5, 0, -4, -11
1503515723885,0, -2, -3, 3, 3, 1, -7, -4
1503515723902,-1, -7, -3, -1, 0, -2, -3, 0
1503515723923,3, 1, 0, -1, 0, 1, -2, 1
1503515723946,-8, -4, -2, 0, -2, -1, -2, -3
1503515723960,3, 0, 1, 2, 2, -4, -2, 0
1503515723983,-6, 6, 5, 3, 21, 4, -2, 2
1503515724005,-3, -14, -5, -4, -6, -6, -19, -5
1503515724020,7, 4, -1, 0, 2, 1, 4, -1
1503515724043,-2, -7, -1, -1, -4, 0, 7, 1
1503515724066,0, -5, -7, -2, -3, -1, 1, -3
1503515724080,0, 22, 15, 2, -3, 5, 5, -2
1503515724103,5, -2, -3, 1, 1, -6, -3, -2
1503515724125,2, 3, 1, -1, -2, 1, -1, -1
1503515724140,-5, -3, -4, 0, 2, -3, 0, 0
1503515724162,0, -7, -3, 6, 2, 4, 2, 4
1503515724185,1, 7, 3, -1, -3, 0, -3, 0
1503515724201,-3, -4, -3, -7, 12, -14, -3, -5
1503515724223,8, 4, 3, 1, -2, 2, -1, 2
1503515724245,39, 15, 0, -2, -11, 0, 3, 4
1503515724260,-14, -10, -2, -5, -4, 1, -1, 0
1503515724283,-5, -26, -20, -6, -6, -1, 0, -1
1503515724306,3, -17, -2, 0, -6, -1, 0, 2
1503515724320,-23, -6, -8, -1, -9, 12, -11, -6
1503515724343,-6, 5, 2, -1, 10, 1, 10, -2
1503515724368,0, 2, 4, -2, -13, -3, -4, -3
1503515724380,-7, 4, 4, 7, 25, 1, -1, -5
1503515724403,16, 15, 4, -4, -38, -7, 2, 10
1503515724425,-4, 0, -1, -1, 2, -3, 6, -1
1503515724440,-9, 0, 2, -3, 13, 3, -3, -3
1503515724462,-4, -5, 2, 0, -10, 2, -2, -4
1503515724485,-26, -13, -6, -1, 1, -5, -4, -1
1503515724502,-7, -9, 0, -1, 12, -2, -1, -1
1503515724522,6, -2, -2, -1, -5, -4, -7, -1
1503515724545,6, 8, 6, 7, 19, 2, 2, 2
1503515724560,2, 1, -2, -4, -1, -1, 1, 1
1503515724582,-2, 1, 4, 1, -7, -1, -1, -3
1503515724605,-5, -19, -2, 7, 0, 0, -4, -5
1503515724620,0, -3, -7, -6, -2, -3, -3, -1
1503515724642,-6, -10, -3, 0, -1, -2, 0, -3
1503515724658,-7, -28, -4, -2, -4, -1, -1, 1
1503515724673,2, 22, 1, 0, 0, -8, -1, -1
1503515724681,2, -4, -6, -2, 10, 9, 3, 1
1503515724703,8, 42, 27, 2, 0, 2, -2, 0
1503515724725,-13, -13, -5, 0, -8, 3, 0, -6
1503515724741,4, -1, 0, -3, -4, 0, 2, 3
1503515724763,-1, -7, -8, -4, 11, 5, -3, 1
1503515724785,4, -13, -7, -3, -3, -3, 2, -2
1503515724802,5, 4, -3, -4, -5, 1, -4, 1
1503515724822,-4, 0, 6, -2, -5, -1, -3, -3
1503515724846,2, 1, -3, -2, 7, 0, 3, 0
1503515724868,0, 5, -2, 0, -1, 1, -3, 1
1503515724883,-17, 0, 3, -1, -7, -1, 1, 0
1503515724906,3, 10, -4, -1, 2, 0, 4, 2
1503515724927,9, -7, -9, -3, -5, -2, 0, 2
1503515724943,-3, -8, -6, 0, -5, -3, 0, -6
1503515724965,4, 2, 1, 2, 2, -1, 1, 5
1503515724987,-5, -3, -6, -3, -5, -3, -3, -16
1503515725004,-7, -7, -5, -3, -2, -2, 0, -1
1503515725025,5, 2, -2, -3, -3, 0, -1, 1
1503515725047,-11, -4, -3, -1, -4, 0, 3, -1
1503515725056,4, -6, -4, -2, -2, 0, -4, -2
1503515725078,5, -2, -9, -4, -1, -5, -1, -2
1503515725093,-7, -1, -5, -4, -3, -3, 1, -3
1503515725116,21, 3, -5, -4, -1, -2, -1, -4
1503515725140,-7, -9, -1, 0, -19, -2, 6, 3
1503515725153,6, 1, 0, -2, -12, 5, -5, -4
1503515725176,5, 5, 3, 2, 4, 1, -6, -3
1503515725198,-4, -10, -4, 2, 11, 1, 1, 1
1503515725213,-14, -13, -6, -5, -3, -6, -5, -8
1503515725236,-1, -2, -2, -5, -8, 1, 6, 7
1503515725243,-11, -3, 0, 2, -1, -7, -2, -6
1503515725265,-5, -3, -1, -3, 4, -1, 2, 8
1503515725288,1, -15, -8, -4, 0, -5, -8, 4
1503515725302,-12, -19, -6, -2, 5, 1, 3, -25
1503515725318,-5, -6, -6, 0, 3, 1, 0, -6
1503515725333,3, 3, -2, -1, -3, -3, -4, -12
1503515725355,-9, -4, -5, -4, 2, -2, -2, -10
1503515725378,-2, 0, 2, 3, 0, 1, -9, 0
1503515725393,-7, -1, 1, -3, 0, -3, -1, -15
1503515725415,-13, -5, -1, 1, 0, 0, 0, 0
1503515725441,15, 1, -1, -3, -26, -3, -3, -4
1503515725460,-12, -9, -3, 0, -1, -1, 2, -4
1503515725477,-16, -22, -14, -3, 2, 0, -6, -9
1503515725498,3, 1, -3, -1, 5, 3, 3, -9
1503515725506,-12, -6, -6, -5, -11, -3, 1, -41
1503515725527,-2, 0, 4, 3, -9, 0, -3, 14
1503515725543,9, -5, -2, -2, 2, -1, -4, 4
1503515725565,7, -6, -5, -2, 6, 0, -12, 8
1503515725587,-19, -13, -5, -3, 4, -1, 2, -17
1503515725602,3, 1, 5, 1, -12, 2, 12, 5
1503515725625,-14, -4, -7, -5, -2, -2, 15, -65
1503515725648,-9, 5, 4, 2, 0, 1, -8, 7
1503515725662,2, -5, 0, 0, -4, -2, 8, 20
1503515725685,6, -6, -5, -3, 1, 0, -5, 9
1503515725708,4, -2, -4, -6, -45, -3, -1, 8
1503515725722,7, 1, -1, -3, -4, -2, 1, 41
1503515725745,3, 10, 1, 4, 14, 3, -18, -4
1503515725767,16, -9, -10, -4, 7, -4, -5, 2
1503515725790,-21, -10, -1, -1, 6, 0, 0, 7
1503515725805,-6, 1, 2, 0, 3, -1, -3, -1
1503515725827,-4, -4, 0, -1, 2, -2, 6, -4
1503515725850,29, -7, -4, 0, 3, -2, -3, -5
1503515725865,2, -11, -9, -4, 0, -1, 2, -3
1503515725887,-12, -24, -6, 0, 0, 0, 2, -7
1503515725895,-5, 4, -4, -1, 0, -3, -4, 3
1503515725918,1, 15, 7, -1, -5, -3, -8, -9
1503515725942,34, 7, 5, 1, 1, 2, 4, 10
1503515725955,-14, -10, -4, -2, 0, -3, 0, -4
1503515725978,7, -8, -3, -1, -2, -2, 0, 1
1503515726000,-5, 2, -5, 0, 1, -3, 7, 2
1503515726016,4, 14, 1, -3, 0, 2, -4, 3
1503515726038,-2, 2, 1, 2, 2, -3, 5, 0
1503515726060,-8, 0, -4, -1, -1, -2, -4, -4
1503515726076,-2, 16, 0, 0, -2, -1, 0, 2
1503515726098,8, 7, 5, -1, 0, 0, 0, -3
1503515726120,-13, -17, -1, 2, 0, 1, 4, 2
1503515726135,-2, -7, -1, -2, -3, 1, 0, 0
1503515726158,-7, 15, 7, -2, -1, -1, -3, -2
1503515726180,4, -13, -2, -1, -1, -5, 0, -1
1503515726195,2, -8, -4, -1, 1, 5, -2, -2
1503515726219,6, 1, 4, 0, -3, -1, -3, -2
1503515726240,-16, -9, -6, 0, 0, 1, 1, 0
1503515726255,14, 0, -4, -1, -2, -3, -2, 4
1503515726278,-1, 10, 1, -3, 0, -2, 2, -7
1503515726300,-10, 6, 2, 0, -1, 0, 2, 2
1503515726315,0, 12, 6, 0, -1, -2, -2, 3
1503515726338,-9, -19, -7, 0, 0, -1, 4, 1
1503515726360,-3, -9, -5, 0, -2, 2, -2, -4
1503515726377,-3, -4, 0, -2, -2, -1, -3, 0
1503515726390,-4, -4, -2, -3, 1, -1, 3, 0
1503515726405,4, -6, -4, -1, 0, 1, -3, 2
1503515726427,-6, 11, 9, -1, -1, -3, -2, 2
1503515726450,-2, -17, -9, -1, 1, 1, -2, -2
1503515726465,-24, -1, 1, -4, -1, 1, -2, 2
1503515726487,6, 2, -1, -3, -5, -2, 1, -1
1503515726515,1, 21, 11, 2, 0, 1, 4, 0
1503515726525,7, -10, -2, 1, -1, -3, -6, -2
1503515726547,4, 4, -3, -2, -2, -1, -4, -4
1503515726570,-7, -16, -2, -1, -1, -1, -2, -1
1503515726585,7, -2, -5, -1, 0, -2, 0, -3
1503515726607,-9, 21, 0, -2, -2, -3, 2, 0
1503515726616,-18, 7, 6, 0, -1, -4, -3, -4
1503515726638,6, 6, 0, -3, -1, -3, -1, 2
1503515726660,-1, -16, -5, -2, 0, -2, -1, 1
1503515726675,-1, 1, 6, 2, 2, -1, -2, 0
1503515726698,-4, -17, -5, -2, 0, -2, 1, 1
1503515726720,-9, 27, 8, -3, -4, 0, 1, -2
1503515726743,10, 4, 2, 5, 0, -18, 2, 2
1503515726758,-1, -7, -2, 3, -2, 2, 2, -6
1503515726781,2, -4, -4, -3, -1, 2, -4, -6
1503515726802,-4, -13, -9, -2, -4, -8, -2, -2
1503515726810,-13, 27, 2, -5, -1, -2, -4, -5
1503515726832,1, -18, 2, -1, -3, -3, 0, 2
1503515726848,-1, -12, -10, -10, -7, 2, -4, -4
1503515726870,7, -3, -2, 4, -1, -17, 0, 1
1503515726892,-4, -3, 4, -2, -1, 1, -11, -4
1503515726908,-10, 16, 14, 1, 1, 0, -3, -5
1503515726923,-25, -28, -11, -3, 1, 1, -2, -2
1503515726938,-19, -20, -4, 2, 1, 1, -2, -2
1503515726960,5, 2, -5, -3, -4, -3, -3, 0
1503515726983,7, 15, 12, 4, 2, 0, -2, 0
1503515726998,-2, -10, -6, -2, 0, -4, 5, -1
1503515727020,9, 14, 7, -2, -3, 0, -5, -3
1503515727028,-7, 16, 6, 2, 3, 1, 4, 1
1503515727050,4, -5, 0, 3, 1, -27, -9, -3
1503515727072,-3, 0, -13, -13, -1, 9, 0, -1
1503515727088,2, -4, -2, -1, 0, 4, 1, 1
1503515727110,4, -8, -4, -4, -2, 3, 1, 1
1503515727132,23, 58, 12, 6, 1, -1, 0, -1
1503515727148,-7, 14, 9, 3, 0, 4, -1, -5
1503515727170,0, -22, -7, -1, 0, 0, 2, 1
1503515727192,6, -12, -2, -4, -2, 1, 3, -2
1503515727207,-11, 17, 7, 7, 0, 0, -2, 0
1503515727230,-10, -39, -10, -2, -3, -2, -4, -2
1503515727253,12, -7, -2, -3, -1, 1, -1, 2
1503515727267,-12, -9, 0, 2, 1, 0, 1, -3
1503515727291,15, 0, 3, 4, -2, -2, -3, -1
1503515727312,-15, 3, -3, -4, 1, -1, 1, 1
1503515727327,23, 46, 11, 2, 1, 2, 1, 2
1503515727350,-8, -13, -3, -1, 1, 1, -1, -2
1503515727372,-13, -9, -5, -3, -3, 0, -7, -5
1503515727388,2, -5, -1, -2, -2, -1, -1, 0
1503515727410,-3, -7, -10, -6, 0, 0, 1, 0
1503515727433,2, 21, 4, 0, -3, -2, -3, -2
1503515727450,6, -18, -8, -1, 0, -3, -3, -2
1503515727470,-6, -6, 0, -2, -2, 1, 5, -5
1503515727492,-2, 5, 4, 0, 1, 0, -4, 1
1503515727507,0, -22, -4, 0, 1, -1, 3, 0
1503515727531,-7, -12, -6, -3, 0, -1, -3, 3
1503515727557,1, 3, 1, 1, 1, -1, 3, 0
1503515727567,-3, 3, 1, 0, -2, -1, -1, 2
1503515727592,8, 7, 6, 3, 0, 0, -1, 1
1503515727622,-4, -3, 0, -2, 0, -3, -3, -2
1503515727642,0, -2, -5, -5, -1, -1, -3, -2
1503515727665,-7, 0, -1, 4, 0, -2, -1, -4
1503515727681,2, -2, -1, -3, -3, 1, -1, 0
1503515727702,26, 6, 0, -1, 1, -1, -1, 2
1503515727726,-4, 4, 1, -1, -1, -1, -1, 0
1503515727747,-3, 4, 1, 2, 0, 2, -4, 0
1503515727762,-1, -8, -3, -6, -1, -4, -1, -1
1503515727785,-1, 1, 0, -1, -2, -2, 3, 1
1503515727800,-5, -2, -3, 4, 2, 1, 3, -4
1503515727823,-9, 5, 2, -2, -1, 4, -2, 1
1503515727830,1, -1, -2, -1, -2, -2, 1, -1
1503515727852,-8, -3, -1, 0, 0, -1, -6, 0
1503515727874,-1, -9, -5, -2, -2, -2, 4, 0
1503515727890,-1, 15, 5, 0, 0, -3, -6, 1
1503515727913,0, -15, -8, -4, 0, 1, 3, 2
1503515727934,2, -1, -1, 3, 1, -2, 2, -2
1503515727972,-7, -8, -6, -4, -4, -1, 1, -5
1503515727989,-3, -11, -3, -3, -4, -2, 0, 0
1503515728011,1, 3, 7, -2, 1, -1, -8, -3
1503515728033,-8, -8, -10, -3, -1, 0, 4, 2
1503515728055,0, 0, -4, -1, -1, -2, 3, -1
1503515728063,-1, 5, 0, 1, -3, 1, -3, -1
1503515728086,0, 2, -1, -1, 1, -1, 2, 0
1503515728100,-10, -11, -4, -2, -1, 0, -4, -5
1503515728122,-1, 23, 11, -1, -1, 1, -4, 0
1503515728145,-3, -3, -1, 0, 0, -2, 2, 1
1503515728161,0, 0, -4, -3, -2, 1, 0, -2
1503515728182,6, 2, -1, -1, -2, -1, 1, 4
1503515728205,-3, -5, -5, 1, -1, -1, -3, -4
1503515728221,4, 2, 2, 1, 1, 1, 3, 2
1503515728242,-1, -3, -6, -1, 1, 2, -3, 1
1503515728265,5, 3, 2, 0, -2, 0, 0, 2
1503515728281,4, 4, 2, -4, -3, -4, -5, -3
1503515728302,-3, 0, 2, -2, -2, 0, 1, 1
1503515728325,-1, -2, -2, 0, 0, 2, 2, 0
1503515728340,1, 13, 2, 0, 3, -1, -1, 0
1503515728363,-19, -18, -11, -5, -4, -3, -3, -9
1503515728388,6, 3, 10, 5, 1, 0, 0, 4
1503515728400,-2, -2, -5, -1, -2, -1, 1, 0
1503515728425,2, 2, -1, 5, 1, -2, 2, -1
1503515728445,-6, -6, -1, -4, -1, -3, -2, -7
1503515728461,10, 45, 27, 1, -2, 1, 1, 3
1503515728482,-11, -7, -8, -1, 1, 1, 2, -1
1503515728505,-4, -12, -11, -2, -2, -1, 0, 0
1503515728523,1, -4, -1, 0, 18, -2, -1, 0
1503515728542,-11, -10, 3, 2, -5, 0, -2, -6
1503515728565,4, -5, -7, -2, -5, -1, 1, 3
1503515728589,11, 3, -4, 0, -1, 3, 3, 6
1503515728602,-4, -7, -3, -2, -3, 2, -1, 0
1503515728625,-5, -9, -3, -2, -2, -2, -1, -2
1503515728647,-1, -6, -5, -1, 0, -2, -5, 1
1503515728663,-5, 5, -4, -3, -7, -4, -4, -5
1503515728685,5, -9, -8, -1, 4, -1, -2, -2
1503515728715,0, -4, -2, 0, -3, -3, -1, -4
1503515728725,3, 1, 2, 0, -2, 0, 0, 3
1503515728746,3, 1, 4, -1, -1, 1, 0, 0
1503515728767,-1, -2, 0, -4, -4, -2, 0, 1
1503515728782,4, 8, 2, 1, 1, 2, -1, -1
1503515728805,0, 29, 13, 3, 0, 0, -1, -3
1503515728827,3, -17, -8, -5, -4, -2, -3, -2
1503515728842,-6, 3, 2, 0, 3, 0, 1, 0
1503515728865,3, -1, -2, -2, 2, 1, 1, 1
1503515728887,-3, -5, -5, -1, 1, 0, 1, -2
1503515728902,-6, 10, 13, 4, 0, -3, -1, 2
1503515728925,4, 11, 1, -3, -4, -2, -1, -2
1503515728947,-4, -10, -8, -2, 4, -1, -1, -4
1503515728962,2, -5, -6, -1, 3, 2, -4, 3
1503515728985,-11, -9, -2, -2, -14, 0, 0, 0
1503515728993,19, 2, -4, -3, -11, -6, -3, -1
1503515729014,-10, -8, 3, 5, 5, 1, 2, -3
1503515729037,7, 28, 22, 1, 0, 0, -3, -4
1503515729052,-2, -12, -8, 0, 9, 3, 1, 0
1503515729074,-7, -2, -2, 0, -3, -2, -3, -6
1503515729097,-11, -6, -7, -5, -2, -2, 1, 0
1503515729113,-2, -5, -3, -2, 1, -1, -1, 1
1503515729134,1, -1, 4, 1, 1, 0, 2, 3
1503515729160,5, 7, 2, -2, -4, -2, -1, 3
1503515729172,-9, -6, -5, -2, -2, 1, -1, -3
1503515729194,3, 1, 6, 1, -3, 0, 2, 3
1503515729217,-2, -6, -7, 0, 4, 3, 0, -1
1503515729232,2, 12, 2, 1, 0, -4, -3, -4
1503515729254,-1, -3, -6, -4, -3, 0, -1, -6
1503515729277,-5, -14, -4, 1, 0, -3, -2, -2
1503515729299,-8, -1, -4, 0, -2, 0, 1, 2
1503515729314,0, 2, 1, 0, -1, 0, -1, -4
1503515729337,1, -2, -3, -2, 0, 0, 6, 4
1503515729352,4, -5, -2, -2, -1, 0, -4, 2
1503515729368,-2, 5, 4, 1, 0, -1, 0, 2
1503515729382,-6, -2, 4, 6, 3, 1, -1, -2
1503515729405,18, -1, -4, -4, -4, 0, 0, -3
1503515729427,-5, 7, 3, 0, 0, -1, 3, 15
1503515729442,6, 6, -2, -2, -1, -1, -1, 0
1503515729465,-5, -3, 2, -2, -1, 0, 0, -1
1503515729487,-5, 26, 11, 3, 1, -2, -4, -7
1503515729510,-18, -3, 2, 0, -2, 0, 2, 1
1503515729527,-15, -9, -5, -1, 1, -1, -2, -5
1503515729547,1, -3, -5, -2, -1, 1, 0, 0
1503515729570,9, 2, -3, -3, -1, -2, -2, -7
1503515729585,8, -6, -5, -3, -1, 1, 1, 1
1503515729607,2, 3, 2, 0, -2, -1, -4, 3
1503515729631,-4, -7, -3, 0, 1, 1, -11, -1
1503515729645,1, -3, -2, -4, -3, 0, 5, 1
1503515729668,-12, -4, 2, 1, 0, -2, -1, -5
1503515729690,3, 32, 7, -1, 1, 2, 3, 2
1503515729705,-18, -18, -9, -5, -3, -2, -2, -6
1503515729729,-1, -6, 0, 1, 0, -2, 1, -2
1503515729750,5, -1, -2, 0, 1, -2, -3, 1
1503515729766,-3, -13, -1, -1, -2, 0, -3, 1
1503515729787,15, -2, 1, 0, -1, 2, 5, 0
1503515729797,6, -14, -7, -3, -2, 1, 1, 0
1503515729818,1, -2, -1, -1, 0, 1, 2, 16
1503515729840,0, -3, -2, -1, 1, -2, -3, -5
1503515729863,0, -4, -1, -2, -3, -1, -2, -6
1503515729878,1, 8, -5, -2, -3, 1, 7, 0
1503515729901,-1, 4, -1, 0, 1, 1, 0, -1
1503515729922,-7, -15, -3, 0, -1, -3, -4, -5
1503515729941,3, -5, -4, 0, -2, 0, -2, -3
1503515729962,-4, -2, 1, 1, 0, -3, -3, -1
1503515729982,-1, 5, 0, 0, -1, 0, 1, -3
1503515729998,2, -6, -1, -1, -2, -1, -1, -2
1503515730020,2, -3, 0, -3, -1, 1, 1, 1
1503515730036,2, 5, 1, -1, 1, -2, -6, -4
1503515730059,-2, -4, 0, 0, 0, 2, 4, -1
1503515730081,0, -7, -4, -3, -1, -1, 1, 2
1503515730097,-17, -20, -4, -3, -2, -1, -4, -5
1503515730118,4, 1, -3, -1, -2, -1, 6, 2
1503515730140,4, 0, 1, 1, 0, 0, 1, -1
1503515730155,0, 3, 1, 1, -1, -1, 0, 0
1503515730178,-11, 0, -2, -2, -3, -3, -2, -3
1503515730201,7, -10, -1, 0, -2, 1, 0, 0
1503515730215,-2, -8, -5, -3, 0, -2, -3, -3
1503515730238,4, 2, 2, 0, 0, 0, -2, 0
1503515730260,11, 7, 1, -3, 1, 0, 0, 0
1503515730275,-15, -3, 1, 10, 0, 1, 0, -2
1503515730298,13, -3, -3, -2, 0, -1, 2, 3
1503515730320,-4, 18, 7, -1, -1, -1, -7, -4
1503515730336,-8, -7, -5, -5, -3, 2, 1, 1
1503515730358,-3, 5, 1, -3, -1, -5, -2, 3
1503515730381,8, -4, -3, -4, 1, 4, 1, 0
1503515730397,-4, 0, -2, 1, -2, -4, -5, -4
1503515730418,-5, -8, -3, -5, -3, -3, 1, -4
1503515730440,-1, 0, 4, -4, -1, -2, -3, -1
1503515730466,-1, 7, 3, 4, 1, 1, 6, 0
1503515730479,-1, -4, -5, 2, -1, 2, 2, 0
1503515730500,0, 6, 4, -2, -2, -2, -4, -3
1503515730523,-7, -10, -7, -2, -2, -3, 0, 0
1503515730538,-5, 1, -1, -1, 0, -4, -6, -8
1503515730567,1, -3, -3, 0, 2, 1, -1, 1
1503515730583,3, 8, 6, 3, 0, -2, -2, 1
1503515730600,15, 19, 5, 2, 1, 2, 4, 6
1503515730620,-5, -12, -13, -5, -1, 1, -1, -1
1503515730643,-6, 0, 1, 1, 1, 2, 0, 0
1503515730658,12, -3, 1, 0, 2, 2, -2, 1
1503515730681,-18, -8, -1, -2, -4, 1, 10, 3
1503515730703,-2, -20, -6, 1, 3, -1, -10, -14
1503515730718,-1, 1, 1, -3, -4, -1, 0, 1
1503515730748,-4, -2, -2, -3, 0, -2, -9, -7
1503515730771,1, -13, -7, -3, -3, -3, 2, -1
1503515730794,-5, -7, -10, -5, -3, -1, 2, -3
1503515730808,18, 12, 3, 0, -2, -2, -2, -10
1503515730830,1, 13, 9, 2, 2, 2, 8, 2
1503515730852,-4, 4, 7, 4, 2, 0, 0, 8
1503515730867,-21, -14, -10, -5, -3, 0, 1, -13
1503515730883,16, 9, 3, 0, 0, -2, -7, 0
1503515730936,-25, -3, 1, 1, 0, 2, 4, 14
1503515730950,-7, -5, -4, -1, -1, -2, 5, -6
1503515730972,7, -9, -7, -3, -1, 1, 0, 1
1503515730987,23, 13, 1, -3, -1, 0, -2, -5
1503515731010,-5, -3, 8, 6, 0, -2, 2, -7
1503515731034,-4, 3, -4, -3, -2, 1, -5, -4
1503515731048,-17, -7, 0, 0, 1, 1, -7, -20
1503515731070,-7, 3, -7, -2, -2, -2, -1, -1
1503515731092,6, 2, 1, 0, -1, -2, -3, 4
1503515731107,17, 2, -5, -3, -3, -1, -3, 0
1503515731130,-2, -16, -6, -1, 0, 0, -4, -4
1503515731152,2, -1, 5, -3, -2, 10, 6, 8
1503515731168,6, 2, 8, 0, 0, -2, -2, 2
1503515731190,-6, 7, -4, -3, -1, -1, 1, 1
1503515731212,2, -10, -5, 0, 0, -2, -2, 0
1503515731227,-10, -8, -4, 0, -2, -3, 2, 2
1503515731250,4, -1, 1, 2, 1, -3, -1, 1
1503515731272,-8, -13, -5, -3, -1, -2, 1, 1
1503515731287,11, -20, -7, -1, -1, -3, -3, -5
1503515731310,15, -8, -4, -2, 1, -1, 2, 0
1503515731332,-22, 8, 3, -4, -5, -26, -3, -6
1503515731354,5, 9, 5, 3, 3, 7, 2, -1
1503515731370,6, -2, -1, -4, -5, 0, -1, -2
1503515731385,-15, 0, 1, -2, -2, 5, 2, -2
1503515731402,0, -20, -7, -1, 0, -4, -5, 0
1503515731423,0, -18, -7, -1, -2, -19, 2, 0
1503515731446,-1, 0, -2, -4, -2, 2, -8, 1
1503515731460,-12, -8, -16, -9, 1, 5, 2, -3
1503515731506,12, 15, 13, 3, -3, -4, 4, 4
1503515731516,-27, -10, 2, 0, -2, -2, 1, -3
1503515731537,-7, -10, 1, 14, 8, 1, 1, -1
1503515731550,14, 5, -6, -9, -5, 0, 2, -3
1503515731572,-13, -6, -10, -8, -6, -3, -7, -2
1503515731595,16, 5, 10, 2, 1, 4, 2, 0
1503515731610,-2, 10, 2, -1, -2, 0, -3, 0
1503515731632,-11, -15, 0, 2, 0, -1, 3, 1
1503515731655,17, 10, 10, 6, -3, -20, -3, 0
1503515731671,-13, -12, -14, -8, -4, 3, -4, -6
1503515731692,22, -10, -7, -5, 0, 2, 1, 1
1503515731701,4, 6, 0, 0, 3, 5, -1, 1
1503515731723,-14, -8, -6, -2, 0, 1, 0, -1
1503515731745,-1, 9, 10, -1, 1, 0, 0, 1
1503515731761,-4, -11, -3, -1, -1, -1, 1, 0
1503515731783,-25, -11, 8, 13, 6, 2, 0, -1
1503515731806,23, 34, 7, -1, -2, 0, 0, 1
1503515731820,-18, 2, -5, -6, -3, -1, -2, -6
1503515731850,8, -7, 5, 8, -2, -3, -2, -1
1503515731865,-3, 8, -16, -14, -6, 2, 2, 4
1503515731881,-12, -8, -3, -2, -2, -3, -3, -6
1503515731905,-2, -8, -4, 0, 1, 0, 1, -1
1503515731925,12, -9, 7, 1, 0, -1, -5, 0
1503515731940,-3, -9, -6, -1, 0, 0, 1, -1
1503515731963,22, -3, -3, -2, 0, -1, 1, 5
1503515731985,-30, -10, 3, 6, 0, -2, 0, -3
1503515732000,7, 17, 1, -3, 0, 0, -3, 0
1503515732023,-8, -25, -21, -6, -3, 0, 1, -2
1503515732075,-12, -7, -3, -3, 0, -1, -1, -2
1503515732090,6, 4, 3, 0, -2, -2, -1, -5
1503515732112,8, 16, 4, 5, 3, 2, 3, 1
1503515732135,0, 6, 1, 1, -2, -3, -2, -2
1503515732150,2, -7, -5, 1, -2, 1, -2, 1
1503515732174,-3, 14, -2, -4, -1, -1, 0, 0
1503515732195,2, -2, -3, -4, -1, 0, -3, -2
1503515732204,-3, 4, -6, -2, -1, -2, -2, -2
1503515732225,12, 8, 6, 1, 1, -1, -3, 0
1503515732241,-1, 8, 5, -1, -1, 0, 0, -3
1503515732264,0, 1, -4, -4, -1, 1, -3, -1
1503515732285,-8, 0, 3, 4, 0, -3, 3, -2
1503515732308,-8, -2, -5, -2, -1, 1, -1, 1
1503515732384,-15, 9, -7, -1, -1, -2, -1, -4
1503515732388,-7, -4, -5, -3, 0, -1, -2, -4
1503515732405,0, 1, 5, 3, 0, -3, 0, 2
1503515732427,-13, -7, -1, -1, -2, -2, -3, -3
1503515732443,0, -5, 1, 1, 0, 0, -2, 0
1503515732465,2, 3, 0, -1, -2, 1, 1, 1
1503515732487,6, 6, -3, -2, -2, -2, -1, 1
1503515732503,4, -11, -1, 0, 0, -2, -1, 2
1503515732525,4, 5, 2, 1, 0, 0, 0, -1
1503515732547,1, -1, -6, -2, -2, -1, 0, -15
1503515732563,-2, -1, -5, 1, 1, -1, -1, 1
1503515732585,9, 7, 4, -1, -1, 1, -1, 6
1503515732609,-2, -8, -1, 1, -1, 0, -3, 2
1503515732623,-10, -6, -2, -1, -2, -2, -2, -3
1503515732645,-1, -3, -5, -3, -1, -2, -1, 0
1503515732667,9, 4, 1, -1, 0, 0, 1, 1
1503515732683,3, 3, 1, -2, -1, -2, 0, 0
1503515732705,0, -9, -5, 1, 0, 0, 0, -1
1503515732727,-2, -6, 2, 5, -1, -2, -2, -1
1503515732747,-6, -4, -4, -5, -1, -1, -1, -1
1503515732764,0, 9, 6, 1, 2, 0, 0, -1
1503515732787,1, 5, 2, 3, -2, 1, 0, 0
1503515732803,-4, -4, -6, -5, -2, -1, 1, -1
1503515732825,-2, -14, -11, -12, 0, 0, -2, -3
1503515732847,3, 10, 3, -4, -1, -1, 0, 0
1503515732863,-1, -2, -3, -2, -2, 1, -2, -1
1503515732886,-4, 2, 1, 2, 0, -1, -1, -1
1503515732907,2, 3, 1, 0, -1, 0, 0, -1
1503515732923,-3, 1, 1, -1, -1, 1, -1, -1
1503515732975,2, 15, 4, 3, 0, 0, 0, -1
1503515732982,-1, -1, 1, 5, 0, -3, -4, -4
1503515732984,0, 3, 2, -2, -2, -2, -1, -2
1503515733005,8, -8, -10, -3, -2, -1, 0, 1
1503515733027,1, -5, -3, -1, 2, 0, -1, 1
1503515733044,0, 11, 8, 2, -1, 0, 0, 0
1503515733065,-5, -10, -2, -2, 0, -3, -1, 0
1503515733087,-5, 1, 1, 1, -1, -1, -2, 0
1503515733103,-6, -26, -5, -3, -1, 0, 1, 0
1503515733124,-2, 1, 4, 0, -2, 1, 0, 1
1503515733132,-2, 4, -1, -4, -1, -3, 1, -3
1503515733155,1, 5, 1, 4, 0, -1, -3, -2
1503515733185,1, 21, 4, 0, 0, 0, -2, -1
1503515733192,-2, -16, -10, -5, -3, -2, -2, -1
1503515733215,-2, -1, -1, -2, -1, 1, 0, -2
1503515733230,1, -6, -2, -3, 0, 0, 0, 0
1503515733245,-2, 4, 0, 1, -1, 0, 2, 0
1503515733267,4, 1, -4, -1, -2, -2, 0, 0
1503515733290,3, -1, -3, 0, -3, 0, -2, -2
1503515733305,0, 18, 2, -2, -1, -1, 1, -1
1503515733327,-2, -4, 1, 0, 0, -1, -2, 0
1503515733350,1, 1, 2, -1, -1, -1, -2, -2
1503515733365,0, 2, 0, 1, 1, -2, -2, 1
1503515733388,1, -2, 0, -3, 1, 1, 0, -1
1503515733410,-9, -9, 1, 6, 0, -1, -4, -4
1503515733425,5, -1, -3, -4, -1, 3, 1, -1
1503515733447,0, 1, -1, -1, -1, 0, 0, 2
1503515733470,-10, -4, -1, -4, -5, -2, -1, -1
1503515733485,4, 3, 0, -1, 0, -3, -1, 1
1503515733507,-15, -6, 2, 1, -1, 2, 0, -2
1503515733532,2, 6, -2, -1, 1, 0, -1, -1
1503515733547,-3, 2, 0, -2, -2, -1, 0, 0
1503515733567,6, 1, 0, -2, 0, -2, -1, 3
1503515733591,6, 4, 3, 7, 1, 1, 0, 0
1503515733615,5, -7, -4, -2, -1, -1, -2, -1
1503515733627,-1, 0, -1, 1, -1, 0, 1, -3
1503515733650,0, 0, -1, -4, -2, -2, -2, -1
1503515733664,3, 0, 0, 2, 0, -2, -3, -1
1503515733681,14, 0, 1, -1, -2, -3, 1, 2
1503515733695,-23, -5, -1, 2, 2, -2, 0, -2
1503515733717,0, 8, 1, -1, -2, 1, 0, 0
1503515733739,-7, -3, 1, -4, -4, -4, -2, -5
1503515733755,1, -8, -4, -1, 0, 1, -1, 0
1503515733770,4, -15, -10, -4, -1, 0, 0, 3
1503515733785,-8, -2, 4, -2, -1, -3, 0, -1
1503515733807,-6, 1, 1, 0, -3, 0, -2, -1
1503515733829,-4, -1, 2, -2, -1, 0, 0, 0
1503515733836,0, -6, -2, 0, 1, -3, -1, -2
1503515733859,-2, -3, -4, -3, -3, 0, -3, 1
1503515733875,0, 2, 9, 4, 1, 1, 0, 1
1503515733896,-21, -8, -6, 1, -3, -2, 0, -2
1503515733905,16, -5, -11, -3, 0, -4, 0, 0
1503515733927,-9, -2, -2, 0, 1, -1, -2, -1
1503515733950,-5, -4, 0, -2, -7, -1, -1, 0
1503515733965,0, 0, 0, -1, -2, -3, -3, -1
1503515733987,-3, -3, -6, -2, 1, 1, 1, 1
1503515734009,-5, -16, -7, 0, 2, -1, 0, -2
1503515734025,15, 0, -3, -2, 0, 0, -1, 0
1503515734049,-8, -7, 0, 1, 0, -1, -1, -2
1503515734070,-7, 0, 0, -4, -2, -1, -1, -2
1503515734086,-13, -8, 1, 4, 2, 0, -2, -2
1503515734107,-3, 2, 0, -2, -2, 0, -2, -2
1503515734130,0, 3, 1, -2, -1, -1, -1, 0
1503515734152,-4, -4, 2, 2, 3, 3, 0, 0
1503515734167,-1, 24, 9, 0, -4, -1, -2, -1
1503515734190,-5, -5, -3, -3, 0, -1, 0, 0
1503515734212,7, -1, 1, 0, 2, -1, -1, -2
1503515734227,-6, -4, -3, -2, -1, -1, 0, -3
1503515734251,9, 2, -1, -4, -4, -1, -2, 1
1503515734258,1, 0, 1, 1, 0, -1, -3, -1
1503515734279,-12, 24, 11, 0, 0, -1, -2, -7
1503515734301,8, -3, -5, -1, 0, -1, -1, 4
1503515734317,-2, -7, -1, -4, -1, 0, 0, 3
1503515734332,-6, 4, 0, -1, 0, -1, -1, 0
1503515734347,-7, -7, -4, 0, -1, -2, -3, 2
1503515734370,-1, 0, 2, 2, 1, -2, 1, 1
1503515734400,0, -4, -3, 1, 1, 1, -1, 1
1503515734422,-9, 7, 10, 1, 1, -2, 0, -4
1503515734436,0, -3, -15, -7, -3, -1, 1, 2
1503515734460,10, 6, 1, 0, 0, 1, -1, 17
1503515734481,-6, -10, -5, -2, -2, -3, -3, -1
1503515734497,-2, -2, 2, 0, -1, -2, -5, -13
1503515734519,-26, -53, -11, -1, -1, 0, 1, -3
1503515734541,0, 5, -5, -3, -2, -2, -2, 6
1503515734557,5, 6, 1, 0, -3, -2, -3, -11
1503515734579,0, 4, 0, -3, 0, -4, -9, -7
1503515734601,6, 7, 1, 1, 1, 1, 5, -6
1503515734625,9, 31, 39, 11, 2, 3, 1, -3
1503515734640,-3, 29, 0, 3, 0, 1, -1, 6
1503515734662,-9, 7, 4, 0, -1, 0, -3, -3
1503515734670,-11, 0, -3, -2, -1, -3, -3, -14
1503515734692,-10, -1, 0, 1, 2, -1, 0, -3
1503515734707,2, 0, 4, 1, -1, -1, -1, 4
1503515734729,-2, 2, 0, -1, 0, 1, -4, 7
1503515734745,14, 5, -4, -4, -4, 2, -1, 1
1503515734761,-14, 0, -2, 0, -1, 4, 0, -19
1503515734782,-13, -7, -3, -3, -2, -2, -3, -3
1503515734790,6, 4, 0, -2, -4, -2, 1, 2
1503515734812,16, 4, -2, -2, 0, -2, -7, 12
1503515734828,-1, 2, 3, 1, -2, 0, 0, -2
1503515734849,21, 2, -1, -2, -2, -3, -1, 0
1503515734872,-1, -1, -6, -3, 1, -2, -2, 4
1503515734887,-11, -2, -2, -1, -3, -2, -3, -10
1503515734909,3, 0, 2, 1, 2, 1, 1, 9
1503515734926,-8, -5, -2, -1, -1, -1, 0, 2
1503515734940,-12, -5, -4, -2, -1, -1, -4, -1
1503515734963,18, -2, -6, -3, -5, -4, -1, 33
1503515734987,5, 16, 12, 3, 2, 1, 4, 2
1503515735000,-7, 7, 0, 0, 1, -2, 1, -6
1503515735023,7, -5, -6, -2, -1, -1, 0, -3
1503515735045,12, -3, -2, -5, 1, -2, -3, -2
1503515735060,-18, -10, -2, -3, -6, 2, 0, -1
1503515735082,-13, -4, -7, -3, 1, -6, 0, -7
1503515735105,2, -19, -7, -1, -1, 5, -4, -11
1503515735121,-20, -4, 1, 6, 3, 0, -2, -18
1503515735135,-10, -8, -2, 1, 2, -2, 0, 3
1503515735149,-3, 1, -3, -4, -1, 0, 0, 0
1503515735172,8, 6, 5, 1, 1, 2, 3, 21
1503515735195,-3, -2, -2, 0, 0, -1, -2, 4
1503515735209,-19, -11, -2, 1, 1, -2, -1, -9
1503515735232,20, 2, 0, -5, -5, -4, -6, 1
1503515735255,-10, -1, 4, 2, -1, 4, 0, 7
1503515735269,1, -1, -2, -2, -2, -2, -3, -11
1503515735292,2, -4, -4, -4, -2, -1, -1, -14
1503515735314,-12, 1, 1, 1, 1, -1, 1, -8
1503515735330,6, -20, 0, 1, -1, -2, 0, -2
1503515735352,15, 4, -2, -3, 0, -1, 2, 4
1503515735374,11, 13, -1, -4, -2, -1, -1, 5
1503515735382,-5, -4, -2, -3, -2, -7, -23, -1
1503515735390,-6, 1, -5, -2, -1, -1, -1, -4
1503515735412,-6, 9, 3, -2, -1, 0, 3, 2
1503515735434,-16, -4, -3, 0, -1, -3, 0, -5
1503515735449,-10, 3, 2, 0, 0, 0, -1, 3
1503515735472,11, 22, 3, -2, -1, 0, 0, 0
1503515735495,17, 4, 0, -1, -3, -4, -3, 11
1503515735509,-4, 0, -1, -1, 1, 0, -2, -10
1503515735532,-13, -3, 1, 0, 0, -1, 2, 2
1503515735557,5, -8, -4, -2, 0, -4, -2, 3
1503515735569,-20, -1, 15, 3, 2, 3, -12, -1
1503515735592,-5, -11, -9, -4, -3, 0, 0, -2
1503515735614,2, -13, -7, -2, -2, 1, 2, -5
1503515735629,-5, -1, 3, -3, -1, -1, -3, 1
1503515735645,31, 6, 3, 1, 7, 4, 3, 9
1503515735660,-4, 8, 3, 0, -3, -2, 5, -16
1503515735692,7, 9, -1, 0, -2, -1, -5, -6
1503515735712,-10, -5, 4, 1, 0, 0, 3, -5
1503515735735,6, 9, 10, 5, 0, 1, -2, -3
1503515735743,2, -13, -9, -3, -2, -3, 1, 0
1503515735765,1, -11, 2, 0, -1, -1, -1, -5
1503515735772,-19, -2, -7, 0, 2, 0, -1, -9
1503515735795,7, 13, 3, -2, -4, -4, -3, -3
1503515735809,-8, -10, -1, -2, 0, -3, -11, -1
1503515735833,-1, -14, -5, -3, -4, -1, -15, 2
1503515735855,23, 18, 13, 5, 2, 1, 10, 20
1503515735870,34, 21, 6, 2, 1, 0, 1, 3
1503515735892,-28, -15, -5, 3, 0, 6, 13, -18
1503515735901,5, -1, -5, 20, 32, 2, -8, 3
1503515735925,-1, -1, -1, -6, -9, 3, 2, 7
1503515735930,2, -2, 1, 1, 1, -2, -1, -6
1503515735952,-36, -13, -4, -8, -12, -4, -5, -44
1503515735975,-4, 4, -2, -2, -2, -1, -1, 6
1503515735989,33, 12, 2, -2, -2, 10, 15, 25
1503515736005,15, 5, 0, -3, -4, -3, -4, 0
1503515736027,40, 18, 2, 2, -3, -1, 0, -10
1503515736043,-13, -15, -9, -6, -3, 2, -6, -17
1503515736065,-6, 3, 1, -4, -6, -1, -1, -20
1503515736087,-10, -3, -2, 1, 14, -3, 4, -4
1503515736096,-1, 7, -3, -9, -21, -11, -1, 7
1503515736117,-1, -1, 1, -1, -3, 2, -6, 4
1503515736132,14, 14, -1, -2, -8, -4, 2, -9
1503515736154,14, -9, -6, -7, -18, 1, 1, 12
1503515736177,10, 12, 2, 0, 1, 0, -1, 2
1503515736193,16, -3, -3, -1, -1, -24, 0, -2
1503515736215,-24, 0, 2, 5, 56, 18, 1, 4
1503515736237,-17, -5, -2, -6, -16, 4, 5, -2
1503515736252,10, 10, 16, 3, -4, 1, -3, -5
1503515736275,-1, -4, -7, -5, -9, -1, -2, -5
1503515736297,-9, -6, 0, 0, -1, 3, -1, 1
1503515736312,7, 8, 2, 1, -5, -1, -8, 10
1503515736335,-26, -16, -9, -3, 5, 0, 4, -5
1503515736357,20, -11, -3, -3, -12, -1, -1, -4
1503515736372,-23, -15, -10, -1, -1, 0, 1, -1
1503515736394,9, 4, -1, -2, -2, -2, 1, 7
1503515736417,-32, 5, 4, 0, 4, 3, 5, 14
1503515736432,8, 5, 0, -2, -9, -2, -4, -4
1503515736454,-13, -7, -3, 0, 1, 3, 1, -8
1503515736477,37, 5, -9, -4, -6, -1, 2, -2
1503515736494,8, -8, -6, -1, -5, -21, -8, -5
1503515736516,6, 14, 7, 2, 0, 2, -1, -6
1503515736537,-30, -8, 0, 1, -5, 2, -2, -2
1503515736552,22, 10, 3, -2, 0, 0, -1, 0
1503515736574,6, -1, 0, 2, 0, 5, 0, -3
1503515736583,19, 0, 2, 3, 18, -3, 1, 20
1503515736605,-7, -11, -2, -3, -10, -2, -1, -1
1503515736629,-24, 1, 3, 2, 2, 6, -2, -8
1503515736642,37, 7, -4, -1, -2, 0, 4, 13
1503515736657,-13, -5, -14, -2, -1, 2, 1, 3
1503515736672,58, -13, -6, -2, -7, 2, -1, 10
1503515736695,0, 5, 5, 3, -2, 3, -3, 0
1503515736703,9, -17, -13, -1, -8, -8, -1, 8
1503515736725,-21, -7, 2, 0, 2, -6, 0, -2
1503515736747,32, -24, -14, -5, -5, -5, -15, -47
1503515736764,44, 16, 1, 0, 0, -5, 2, 25
1503515736785,-8, 21, 4, -2, 0, 1, 1, 15
1503515736807,1, 3, 1, 2, 2, 1, 6, 13
1503515736815,-50, -18, -9, -7, -5, -5, -9, -26
1503515736838,-32, -15, -12, -3, -3, 3, -3, -17
1503515736852,-5, 6, -5, -3, 0, -4, -4, -11
1503515736874,1, -1, -9, -1, 2, 6, 8, -3
1503515736897,19, -9, 0, -1, 1, 0, 1, 6
1503515736912,-15, -6, -4, -2, 0, -1, -3, -67
1503515736934,22, 18, -3, 1, -1, -3, -3, -1
1503515736957,-14, -2, -2, -4, -4, -22, 1, 18
1503515736979,8, 4, -2, 0, 3, 6, 0, 9
1503515736994,52, 51, 18, -1, 0, 3, 3, 13
1503515737017,-43, -30, -13, -4, -3, 1, -2, 28
1503515737039,-19, -9, 0, 0, 1, 0, -3, -5
1503515737054,12, -2, -2, -1, -3, 4, -4, -2
1503515737077,-1, -8, -3, -1, 0, -1, -3, -9
1503515737099,-22, 81, 38, 8, 3, 1, -1, -8
1503515737114,4, -30, -17, -4, -2, -2, -4, -13
1503515737137,-3, -15, -6, 0, -3, -1, 1, 4
1503515737159,11, -9, -3, -1, 1, 1, 3, 3
1503515737174,4, -7, -5, -1, -1, -1, -4, -3
1503515737198,52, -9, -13, -4, -3, -4, 0, 8
1503515737219,-43, -20, -7, -2, -2, -1, 1, -36
1503515737235,-7, -4, 1, 0, 0, 2, 1, 4
1503515737257,-2, 5, 5, 0, 1, -2, 0, 8
1503515737285,-3, -9, -4, -4, 1, 1, 1, 0
1503515737294,10, -3, -2, 2, -1, 0, -1, 1
1503515737317,15, -3, -2, 1, -1, 0, 1, 7
1503515737340,-16, 0, 3, -6, -3, -3, -3, 4
1503515737354,1, 29, 18, 3, -2, -2, -3, -21
1503515737377,-1, -19, -15, -2, 0, -1, 0, 6
1503515737399,4, 5, 1, 0, -1, -2, 0, 6
1503515737414,0, 3, -1, -2, -2, -1, -2, 5
1503515737437,-7, -5, -1, 2, 0, 1, 2, 12
1503515737459,-14, -12, -3, -1, 1, 1, 4, 32
1503515737474,-18, -6, -3, -3, -1, 0, -1, 3
1503515737490,6, -11, 2, 0, -2, -1, 2, 1
1503515737505,12, 5, 7, -1, 0, -1, -1, -7
1503515737526,24, 17, 0, -1, -1, 1, 0, 6
1503515737535,4, 1, -1, -1, 1, -1, -1, 4
1503515737557,-3, 2, 3, 1, -1, -1, 5, -10
1503515737579,-10, 57, 51, 7, 1, 2, -1, -8
1503515737594,-6, -29, -19, -6, -3, 1, -8, -4
1503515737617,-6, -11, -12, -2, 0, -3, -2, -6
1503515737639,-8, -7, -7, 2, 2, -2, -4, -1
1503515737654,-3, -6, -4, -2, -1, -3, -2, -6
1503515737677,9, -3, -4, -3, -5, 0, 1, 2
1503515737701,-10, -7, -1, -1, -1, 1, 1, 1
1503515737714,1, 0, -2, 0, -3, -1, -2, -3
1503515737737,-3, 1, -5, -4, -4, -1, -2, -7
1503515737759,4, 0, -1, 3, 4, 0, 0, 0
1503515737774,-10, -5, -4, -3, -1, -1, -1, 0
1503515737797,0, 32, 6, -3, -4, -3, -1, -1
1503515737819,-12, -30, -14, -2, -1, 0, 0, -5
1503515737841,-3, -3, -1, -2, -2, -1, -2, -2
1503515737857,3, 0, 2, 9, 25, 5, 1, 0
1503515737879,2, -5, 0, -2, -9, -3, -1, -1
1503515737902,-13, -5, 2, 2, 1, -1, -3, -6
1503515737910,32, 26, 6, 0, -3, 2, -1, 23
1503515737932,-6, -18, -14, -3, 2, -1, -2, -8
1503515737947,-11, -2, 4, 1, 2, 1, 1, -10
1503515737970,3, -3, -1, -1, 8, 3, -1, -2
1503515737992,-6, -2, 0, 0, -6, 11, -1, -4
1503515738008,4, 4, 0, -4, -6, -5, -3, -5
1503515738029,16, -1, -3, -5, -2, -2, 1, -3
1503515738052,-12, -4, 4, -1, 1, -2, -3, -2
1503515738071,-2, 1, -12, 0, 0, -3, 0, 3
1503515738089,3, 13, 9, 1, -1, -2, 0, 1
1503515738112,-14, -15, -3, -2, -1, 1, -5, -8
1503515738127,34, -2, -1, 1, -2, -3, -1, -3
1503515738150,0, 0, -1, -1, 1, 0, 2, 5
1503515738172,-8, -2, 3, 0, -1, 0, 2, 30
1503515738187,2, 2, 5, 4, 1, 0, 2, -3
1503515738209,-8, -20, -3, -1, 1, -2, -2, -6
1503515738239,-21, -3, -2, -1, -2, -1, 0, -5
1503515738247,-4, 7, -1, -4, -2, -3, -2, -5
1503515738272,4, 5, -4, 2, 1, -1, -2, -6
1503515738292,-1, -6, -10, -5, -2, -1, -8, -4
1503515738307,3, 5, 3, 0, -2, -1, -3, -2
1503515738329,-12, -3, 2, -2, -1, -2, 3, 1
1503515738352,-3, -14, -1, -3, -3, -3, -1, -4
1503515738368,-2, -8, -6, 0, 1, 0, -2, -4
1503515738389,2, -1, -4, -2, 0, -4, -1, -5
1503515738412,-4, 10, 2, -2, -2, 0, -5, 3
1503515738427,33, -3, -3, 1, 3, 0, 2, 13
1503515738441,0, 2, -3, 0, 0, 0, 1, 13
1503515738457,4, 5, 2, -2, -2, -2, 1, 0
1503515738480,-12, -3, 0, -3, -4, 2, 2, -1
1503515738488,4, 6, 4, 4, 5, 1, 1, -2
1503515738510,8, 16, 14, 1, -1, -1, 0, 11
1503515738532,25, 22, 12, 6, 1, 2, 1, 6
1503515738540,-17, 0, -1, -1, -5, 1, 1, -5
1503515738562,6, 5, 0, 2, 0, 1, 2, 0
1503515738577,4, 3, 1, -1, 0, 0, 7, -1
1503515738602,9, 9, 2, 4, 6, 0, -2, 0
1503515738622,0, 1, -4, -4, -4, -3, 1, 5
1503515738644,-5, 26, 8, 2, -2, 4, 0, -13
1503515738659,-9, -10, -7, -4, -3, -3, -3, -5
1503515738682,11, 10, -1, -3, -2, -4, -6, 1
1503515738697,-1, -5, 1, 1, 7, 2, -1, 3
1503515738719,-5, -8, -3, -2, -4, -2, -2, -9
1503515738741,-6, -4, 0, -1, -4, -3, -4, -1
1503515738757,-7, 25, 33, 13, 3, 4, -2, 3
1503515738780,9, -8, -12, -2, -3, -3, -1, 1
1503515738802,-1, -2, -4, -4, -5, -3, -3, -6
1503515738824,-2, -8, -2, -2, 0, 2, 1, 8
1503515738843,56, 16, 0, -1, -1, -2, -2, -11
1503515738861,-17, 1, -3, -3, -1, 1, 0, 6
1503515738884,-5, 18, 9, 5, 0, 1, -1, -13
1503515738900,-11, -18, -10, -1, 1, -1, 2, 2
1503515738921,12, -20, -8, -8, -4, -4, 5, 29
1503515738944,-63, -16, -5, -1, -3, -1, -1, -6
1503515738959,-6, 17, 9, 3, 1, -11, 0, -1
1503515738982,25, -9, -12, -1, -1, 2, -2, -12
1503515739004,4, -7, -5, 0, 1, 3, -4, 3
1503515739019,2, 4, 1, -1, 0, -1, 0, 8
1503515739042,7, 5, 4, 2, -1, 1, -6, -16
1503515739064,-14, -20, -6, -5, -5, 0, -3, 7
1503515739080,-17, -37, -5, -5, -1, 0, 0, -10
1503515739102,9, 10, 1, 1, 1, 1, -2, -1
1503515739124,10, 7, -1, -1, 1, -1, 2, 2
1503515739141,1, 0, 0, -1, -2, 0, 2, 1
1503515739161,9, 12, 0, -3, 1, 2, 2, 9
1503515739187,48, 33, 13, 3, 0, 0, 0, 1
1503515739199,-22, -14, -4, -1, 0, -1, -3, 3
1503515739221,-1, -7, -5, -3, -2, -3, 1, -4
1503515739244,2, 0, -2, 0, -2, -2, -1, 4
1503515739261,0, -6, -4, -2, 1, -4, -9, -4
1503515739283,-11, -1, 0, 0, 0, 0, -1, -4
1503515739304,-11, 0, 1, -1, -2, 2, 1, -1
1503515739320,-11, -5, -3, -1, -4, -2, -1, -2
1503515739342,2, 2, -1, -1, 2, 2, 2, -4
1503515739364,-3, -3, -2, -1, -1, -1, -1, 0
1503515739379,0, 21, 12, 0, -1, -1, 0, 1
1503515739401,-23, -19, -6, 0, -2, 0, 1, 15
1503515739424,7, 1, -1, 0, 0, -3, -6, -11
1503515739440,-8, -3, -2, -1, -1, 1, 4, -11
1503515739461,33, -3, -2, -1, 1, -2, -3, -1
1503515739484,-16, -32, -23, -4, -2, 2, 1, 10
1503515739499,-15, -1, -4, -6, -2, -3, 5, 6
1503515739521,-6, 3, 2, 2, -2, -5, -6, -3
1503515739544,2, 10, 7, 1, 0, 2, 3, -7
1503515739559,-13, -3, 1, 0, 2, 0, -2, -7
1503515739581,7, 10, 5, -1, -4, 0, 3, -2
1503515739590,7, 6, 0, -2, 1, 0, -5, 2
1503515739612,28, 8, -4, 2, 0, -2, -4, -1
1503515739634,-24, -14, -2, -1, -1, 4, 2, 0
1503515739650,5, 10, 0, 0, -1, 0, 2, 3
1503515739672,-3, -13, -9, -4, -1, -1, -2, 4
1503515739694,1, 8, 6, 0, 0, -1, -2, -2
1503515739711,-4, -10, 4, -1, -3, 2, -4, 1
1503515739732,31, 3, -2, -1, 2, 6, 1, 2
1503515739754,-22, -19, -6, -1, -1, -3, 3, 2
1503515739778,-4, -1, 0, 0, 1, 1, 4, 0
1503515739792,1, 2, -3, 1, 1, 0, -1, 0
1503515739814,-19, -7, -1, -1, -2, -3, 3, -3
1503515739837,-2, 3, 0, -1, -1, -1, -4, 1
1503515739853,-1, 9, 0, 0, -2, 0, -2, 0
1503515739874,6, 6, 2, 0, -2, -2, -1, -6
1503515739897,-5, 0, -1, -2, -1, 1, -1, 2
1503515739912,-26, -13, -2, -1, 2, 5, -1, -2
1503515739927,7, -3, -1, 0, 0, 8, 10, 1
1503515739950,6, 4, -2, 0, -1, -2, -4, -2
1503515739965,2, 0, -1, -2, -1, 1, -2, -2
1503515739987,12, 3, -4, -1, 0, -2, -3, -1
1503515740011,16, -20, -7, 2, 0, -2, -2, 0
1503515740025,-22, 0, 0, -1, -2, 0, -3, -2
1503515740048,19, 8, 4, 1, 2, 3, 8, 4
1503515740070,12, 5, -3, -5, -5, -6, -3, 0
1503515740086,-9, 8, 13, 1, 1, 1, -2, 0
1503515740108,10, 1, -10, -1, -1, -4, -5, -1
1503515740130,-16, -14, -3, -1, 0, -1, 1, -1
1503515740147,-8, -9, 1, 2, 2, -2, 1, -1
1503515740167,-8, -26, -5, 0, 1, 8, -3, -3
1503515740183,4, -3, -7, -4, -3, -4, -2, 1
1503515740205,-12, 16, 1, 2, 0, 2, -1, 1
1503515740227,6, 3, 2, 2, 0, -2, -1, -3
1503515740250,-9, -7, -5, -5, -2, -2, 0, 0
1503515740265,0, 1, -5, -12, -2, -2, -1, -1
1503515740287,16, -13, -14, -5, -3, -2, -1, 4
1503515740310,-1, -8, 7, 3, 0, 0, -1, 4
1503515740325,-5, 6, 0, -1, -2, 1, -1, -5
1503515740347,-6, 15, 9, 6, 3, -4, -2, -4
1503515740370,11, 9, 5, 4, -2, -2, -2, -1
1503515740385,-5, 1, -6, 0, -3, 1, -4, -2
1503515740407,-12, -11, -2, -2, -1, -3, 1, -2
1503515740430,-7, 8, 3, 2, -1, 0, -3, 2
1503515740451,8, 5, 1, -5, -2, 0, -3, -2
1503515740467,-3, 0, -7, -1, 2, -2, 1, 0
1503515740490,-1, 3, 4, 0, 0, -3, -1, -2
1503515740505,2, -8, 3, -2, 1, 1, 3, 1
1503515740527,-19, -18, -5, 5, 1, 2, 2, -1
1503515740550,12, 14, 5, 0, -5, -2, -6, -2
1503515740565,11, 13, 13, 7, 3, -1, 2, 2
1503515740587,-1, 1, -10, -7, -3, 0, -1, -1
1503515740610,-6, -8, -7, -6, -2, -1, 3, -1
1503515740625,-6, -8, -1, 0, -3, -1, -1, -3
1503515740651,22, 11, 1, -5, -2, -1, -1, 1
1503515740670,-13, -19, -4, 5, -1, -1, -1, -1
1503515740685,7, 7, -7, -2, 2, 1, 1, 2
1503515740707,0, -8, -2, -5, -4, 0, 0, -3
1503515740730,12, 12, 7, 4, 1, -2, -2, -5
1503515740745,-27, -30, -3, 1, 0, -3, 0, -3
1503515740767,2, 10, 4, -3, 0, -1, -2, 0
1503515740790,5, 11, -1, -4, -6, -2, -1, 2
1503515740812,-5, -6, -3, 0, 0, -2, -1, -3
1503515740834,0, 30, 14, 8, 4, 1, 2, 2
1503515740851,14, -1, -7, -4, -3, 0, -1, 4
1503515740865,-2, -10, -2, -4, -1, 0, 0, -1
1503515740887,-1, 10, 3, -3, -1, 1, -1, -1
1503515740910,1, -2, 1, 1, 0, -2, -1, -2
1503515740918,4, 6, 5, -1, 1, -2, 1, 0
1503515740939,7, -5, -5, 1, 0, 1, -1, 16
1503515740954,15, -12, -5, -3, -2, -2, 0, -3
1503515740977,-3, -22, -6, 0, 0, 1, -2, -4
1503515740999,-1, -3, -1, 1, 2, -2, -2, -5
1503515741014,-1, 7, 3, 0, 0, -2, 0, -4
1503515741037,-5, -2, -2, -1, -1, 2, 0, -2
1503515741060,13, 9, 3, 1, 1, -1, -2, -2
1503515741074,2, 1, -4, -4, -3, -1, 0, 0
1503515741091,-2, -12, -8, -3, -2, -2, 0, -2
1503515741105,0, 4, 1, 0, -2, -1, -1, 1
1503515741127,0, -3, -3, -2, -2, 0, -1, 0
1503515741151,1, -4, -6, -6, -2, -1, 2, -2
1503515741165,0, -2, -1, 4, 1, 0, -4, -2
1503515741187,0, -3, -3, -2, -2, -3, 1, 0
1503515741210,0, -2, -1, 1, -4, -2, -1, -1
1503515741225,-2, -3, 6, 4, -1, 0, -1, -1
1503515741247,-3, -6, -11, -3, -1, -2, -3, -3
1503515741270,-3, -3, -3, -4, 0, -2, -1, -2
1503515741286,2, -2, -1, -2, -2, 1, 2, 1
1503515741307,0, 2, 2, -4, -1, 0, -3, 0
1503515741330,-2, 3, 2, 1, 1, -2, 1, 1
1503515741345,0, 0, 10, 6, -1, 1, -2, -1
1503515741368,-9, -8, -9, -2, -2, -1, -2, -1
1503515741390,-1, 0, 1, -2, -2, -2, 2, -2
1503515741405,-3, 5, 2, -1, 0, 0, -4, -1
1503515741428,0, -3, -6, -1, -1, 2, 0, -1
1503515741450,-2, 4, -3, -1, 1, -1, 0, 1
1503515741465,5, 7, 2, -3, -2, 0, -2, -2
1503515741493,16, -3, -3, 0, 0, 2, 1, 1
1503515741510,2, 10, -1, -2, -2, -2, -1, -1
1503515741525,-3, 2, 2, 0, 0, -3, 1, -2
1503515741547,-3, -9, -2, -3, -2, -1, -1, 0
1503515741570,-10, -5, -1, 0, -1, -4, -3, 0
1503515741593,2, -6, -2, 0, 2, 1, 0, -1
1503515741607,-4, 1, 6, 2, -1, -1, -2, -4
1503515741630,-4, -7, -7, -2, -1, 0, -1, -1
1503515741653,14, 5, -2, -4, -2, -2, -1, 1
1503515741693,-8, -7, -5, -2, 1, -1, 0, 0
1503515741706,-9, -13, -6, 1, 0, -1, -1, -2
1503515741725,1, 26, 26, 5, 1, -1, 1, 0
1503515741742,-17, -12, -16, -5, -3, -2, -2, -4
1503515741757,8, -3, 1, 4, 1, -1, -1, 3
1503515741780,-11, -7, -3, -2, -3, 0, -2, -4
1503515741802,-13, -3, -2, -2, -1, -4, -1, -4
1503515741817,17, 5, -2, -1, -5, 3, 1, 3
1503515741839,-2, 5, 1, 0, -1, -2, 0, 2
1503515741862,18, 8, 0, -3, -14, -4, -2, 2
1503515741897,-1, 0, -1, 1, -4, -1, -2, -2
1503515741910,0, -1, 2, 1, 3, 0, -1, 2
1503515741930,0, 11, 11, 1, -6, -1, -3, 2
1503515741952,2, -12, -8, -2, 0, 1, 0, -1
1503515741967,3, 6, 1, 0, 1, -3, -3, -1
1503515741990,-2, -7, -7, -3, -6, 1, 5, -5
1503515742012,2, 3, -1, 0, -2, -3, 3, 6
1503515742028,5, -2, -2, -2, 2, 3, 1, 0
1503515742050,0, 5, 1, -1, 0, -2, -5, -5
1503515742079,11, 10, 5, -1, 0, -1, -1, 7
1503515742089,-14, -10, -4, 0, -2, -1, -2, -4
1503515742110,-3, -4, -3, 1, 20, 1, -1, -4
1503515742132,3, -4, -2, -4, -5, -2, 0, 1
1503515742147,2, -3, -2, 0, -3, 0, 1, 0
1503515742170,-13, 17, 8, 3, -2, -2, -2, -6
1503515742192,10, -5, 0, 1, -2, 0, -2, 2
1503515742207,-2, -9, -9, -1, -2, -1, 0, -3
1503515742230,0, -6, -3, -1, -2, 2, -2, 2
1503515742252,0, -3, 0, 0, -2, 0, -2, -5
1503515742267,-11, -9, -6, -4, -3, 1, -1, -2
1503515742292,-1, -18, -12, -4, -4, -1, 1, 2
1503515742312,3, 1, 1, 0, 0, 0, -2, -2
1503515742329,4, 9, 1, 1, -1, -4, -2, -1
1503515742350,5, -14, 0, 0, 0, 0, -1, -1
1503515742372,-6, 2, 2, 0, -2, 0, -3, -1
1503515742387,-2, 5, -1, -1, -1, -3, -2, -10
1503515742410,8, 13, 2, 1, -3, -1, 2, -1
1503515742432,-19, -11, -6, -7, -1, -2, -1, -2
1503515742447,2, 1, -4, -4, -3, -1, 0, 2
1503515742470,1, 8, 1, 0, 0, 0, 3, -3
1503515742492,0, 3, 2, 3, 0, 0, -2, 5
1503515742507,-1, -7, -2, 0, 0, 0, 1, 1
1503515742530,-4, -2, 1, -1, 0, -2, -3, -2
1503515742552,-2, 4, -2, -1, -2, -3, -2, 4
1503515742574,-6, -10, -6, -3, -3, 0, 0, 0
1503515742592,8, -4, -1, 0, 1, 0, 2, 1
1503515742611,1, 7, 1, 1, -2, -1, -4, 1
1503515742634,13, -27, -8, -2, 2, -1, -1, 1
1503515742659,-9, 8, 10, 2, 2, -2, 0, 1
1503515742672,-11, -10, -8, -4, -3, 1, -1, -6
1503515742694,3, 11, 2, 2, 3, 0, -8, -3
1503515742710,-2, 4, 3, 1, 0, 2, 4, -1
1503515742732,3, 10, 1, -2, -1, -3, 3, -2
1503515742754,7, 37, 36, 9, 2, 1, 4, 3
1503515742770,-5, 28, 5, -4, -7, -2, 2, 2
1503515742793,-10, -24, -6, 0, 0, -1, -4, -6
1503515742814,4, -6, -3, -1, 1, -1, 2, 2
1503515742830,2, -12, -10, -2, -1, -2, 0, 3
1503515742852,1, -3, -10, -3, -3, -1, -6, -3
1503515742874,0, -23, -12, -2, -3, -3, -6, -6
1503515742890,-1, -10, -11, -3, -1, -1, -6, -3
1503515742911,-3, 4, 5, 0, 0, 0, 3, 1
1503515742935,-2, 0, 0, -1, 0, -1, -3, -1
1503515742942,-4, -4, -1, 0, -1, -2, -1, -2
1503515742966,-4, 1, 2, 2, 3, 1, 1, 0
1503515742979,-7, -6, -3, -1, -1, 0, 0, -5
1503515743002,2, 34, 17, 5, 0, -2, -5, -6
1503515743023,-6, -13, -8, -3, -1, -1, -1, 2
1503515743039,-5, -10, -4, -2, -3, 0, 1, 2
1503515743064,1, -4, -4, -1, -1, -1, -3, -5
1503515743083,1, 1, 1, 0, 0, 0, 1, 8
1503515743100,-30, 1, 7, -2, -4, -4, -11, -11
1503515743122,17, -7, -17, -5, -4, -3, -1, -21
1503515743143,-9, -6, -1, 1, 0, -1, 0, -2
1503515743152,2, 7, -1, 0, -1, -1, -3, -12
1503515743174,-5, 3, 3, -3, -3, -2, -5, -5
1503515743190,-18, -9, -3, 0, 0, -2, -4, -42
1503515743211,-20, -16, -6, -4, -1, -1, 1, 4
1503515743234,8, -11, -3, 0, 1, -14, 1, -1
1503515743250,14, 35, 23, 7, 2, 6, 1, 10
1503515743273,-2, -7, -9, -4, -2, 2, -4, 0
1503515743296,3, -2, -2, -3, -2, -9, -16, 6
1503515743310,11, 1, -1, -1, 2, -9, 7, -27
1503515743332,-25, -6, -2, -1, -4, 6, 2, 4
1503515743354,-2, -23, -15, -2, 3, 4, 1, 7
1503515743383,15, -4, -10, 0, -2, 5, 5, 8
1503515743391,10, 4, 6, 0, -3, -3, 3, -23
1503515743414,-8, 3, -2, -2, 0, 0, -2, -2
1503515743431,11, 23, 15, 3, 0, 3, -1, 2
1503515743452,-6, -6, -3, -2, -3, 0, -2, 10
1503515743474,-10, -21, -7, -4, -1, -5, -3, -2
1503515743497,-4, 9, 1, 1, -1, 5, -3, -1
1503515743514,6, -14, -4, 0, 1, 1, 1, 8
1503515743534,-3, 7, 3, -1, -1, 1, 1, -1
1503515743557,-4, -3, 1, 1, 1, 1, -2, 6
1503515743572,2, 6, 3, 0, -2, -3, 2, -4
1503515743602,-4, 8, 0, -1, -1, -1, -5, 1
1503515743617,2, 5, 7, 1, 0, -2, -1, 2
1503515743632,23, -4, -12, -5, 1, 2, -2, 1
1503515743654,-1, -15, -2, -2, -3, -2, 4, -2
1503515743676,-19, -2, -1, 0, 0, 0, 0, 0
1503515743691,8, -5, -3, 2, 2, 4, -6, 0
1503515743706,-5, 0, -2, -2, 0, 8, 0, 0
1503515743721,4, 23, 4, -2, -1, -2, 2, -2
1503515743743,10, -7, 1, 0, 1, 0, -13, 5
1503515743766,-1, -3, 4, 0, -3, -1, -1, -10
1503515743781,1, -2, -5, -3, -2, 0, -1, -2
1503515743803,3, -2, -1, 1, -1, 0, 2, 0
1503515743826,6, 4, 1, 0, -1, -2, 1, 0
1503515743835,9, 9, -2, 1, -2, -5, -3, -3
1503515743857,-5, -15, -8, -4, -2, -5, 2, -2
1503515743872,19, -7, -2, -1, 1, -2, 2, 4
1503515743894,-14, 5, 5, 2, 1, -3, 1, 1
1503515743916,16, 25, 12, 4, 2, 1, -3, -1
1503515743933,-27, -23, -11, -5, -5, -5, -4, -6
1503515743954,4, -30, -6, -7, -1, -2, 3, 0
1503515743977,16, 6, -4, -2, -1, -1, 0, -1
1503515743991,5, 2, -5, 2, -5, -3, -3, -1
1503515744014,3, 19, 5, 3, 1, -2, -2, 0
1503515744037,-1, -4, 3, -2, -4, -1, -4, 0
1503515744052,-7, 8, 12, 10, 7, 1, 0, -1
1503515744074,-5, -1, -4, -3, 1, 4, 0, -4
1503515744082,21, 13, -2, 1, -1, 0, -3, 0
1503515744111,-11, 22, 11, 0, -4, 0, 0, -2
1503515744113,-5, -20, -8, -4, -2, -1, -2, 2
1503515744134,9, -10, -1, 2, 0, -1, -1, 1
1503515744157,9, 18, 7, 1, -1, 11, 0, -2
1503515744172,-13, -22, -5, -1, -3, 0, -3, -2
1503515744194,-7, -3, -8, -7, -5, -7, 3, -2
1503515744217,-13, 25, 9, 3, -1, -4, -3, -3
1503515744233,8, -15, -9, -2, 1, -1, 1, 2
1503515744254,0, 14, 1, -1, 0, -3, -3, 1
1503515744277,-4, 4, 7, 4, 1, 4, -2, -2
1503515744292,-3, -16, -5, -1, 1, -2, -1, 0
1503515744314,-6, -3, 5, 2, 0, -2, 0, 2
1503515744337,5, 8, -2, -6, -1, -4, -1, -1
1503515744352,2, -6, -11, -9, -4, -4, -2, -4
1503515744374,-8, 2, -4, -3, 0, 0, 1, -3
1503515744397,-4, 0, 3, 1, 0, 0, 0, -2
1503515744420,36, -2, 0, 4, -1, 0, -1, 1
1503515744435,4, -1, -3, 0, -1, -1, -2, -2
1503515744457,-3, -2, 10, 5, 0, 0, 1, 2
1503515744479,-22, -3, -4, 1, 3, 0, -1, -4
1503515744494,-5, -8, -6, -5, -4, -3, 4, 1
1503515744517,0, -20, -6, -4, -2, 0, -1, 2
1503515744539,-13, -15, -5, -4, 0, -2, -3, -1
1503515744554,7, 11, 9, -1, 0, -1, -1, -1
1503515744578,0, 19, 6, 3, 1, -1, -1, -2
1503515744602,14, -1, -3, 0, -1, 0, 0, 2
1503515744614,7, 18, 1, -2, -1, 1, -2, 0
1503515744637,6, -7, -8, -3, -2, -2, -2, -2
1503515744659,-11, -4, 4, 3, -2, -3, 0, 0
1503515744675,-18, 2, 1, 0, 0, -1, -1, -6
1503515744697,19, 6, 4, -2, -1, 1, 5, -2
1503515744719,-11, -4, -5, -1, -2, -1, -2, 1
1503515744736,8, 27, 2, -7, -2, 0, -1, 3
1503515744757,-4, -5, -3, -2, 0, -1, -3, -1
1503515744779,-1, -12, -9, -3, -1, 1, 1, -1
1503515744794,2, 2, 8, 0, 1, 0, -1, -1
1503515744817,-5, -13, -6, 1, 0, -2, 0, -2
1503515744840,-9, -3, 2, 1, 1, 1, -4, -7
1503515744854,0, -1, -4, -1, -2, -1, 1, 2
1503515744877,1, 21, 11, 4, -2, 0, -1, -1
1503515744884,-7, -3, -9, -6, -1, 0, -4, -3
1503515744906,5, 18, 5, -1, 0, 1, 1, 0
1503515744928,1, -2, -1, -2, -2, -2, -2, 0
1503515744944,1, -7, -1, 1, 0, -3, -2, 1
1503515744966,5, 1, -2, 0, 0, 0, 0, 3
1503515744989,-3, -3, -1, -6, -3, 0, -2, 0
1503515745005,-2, -4, -4, -2, -1, 1, -2, -1
1503515745026,5, -1, 3, 3, 3, 0, -2, -4
1503515745049,-2, 0, 5, 3, -2, 0, -1, 1
1503515745072,1, -3, -5, -2, -1, 1, -2, -1
1503515745087,-2, 0, -1, 1, 0, -4, -1, -3
1503515745110,2, 1, 4, 4, 3, 0, 1, -1
1503515745132,-1, 0, 4, -4, -2, -2, 2, 2
1503515745147,-2, 11, -2, -4, -1, 0, -4, -2
1503515745172,-4, -8, -2, 0, -1, 1, -1, -2
1503515745192,1, 0, 7, 11, 2, -3, -2, -2
1503515745207,-4, -5, -7, -4, -4, 0, 5, -3
1503515745230,1, -3, -4, -6, -1, -1, 1, -3
1503515745252,0, 0, 0, -2, 1, -2, -3, 0
1503515745267,-2, -4, 0, -3, -1, 1, -2, 0
1503515745290,-5, -5, -4, -4, -4, -1, -1, -2
1503515745312,-4, -10, -12, -8, -1, -2, -5, -2
1503515745327,0, 0, -1, 3, 5, 1, 2, 2
1503515745350,-5, -3, -2, -6, -5, -3, -9, -8
1503515745374,1, 0, 5, 4, -1, 2, 2, 1
1503515745395,2, 1, -5, 1, -2, -2, -1, 2
1503515745410,-1, -11, -6, -5, -1, -3, 3, 1
1503515745432,-2, 6, 3, 2, 0, -1, -2, 0
1503515745448,3, 1, -1, -7, -5, 2, -1, 0
1503515745470,-1, -1, 3, 12, 8, 0, 2, 2
1503515745492,0, 2, 1, -2, -4, -2, -3, -1
1503515745507,-1, 0, -2, -3, -3, 0, 3, -1
1503515745530,0, 4, 2, -4, -4, -4, -3, -3
1503515745553,4, 2, 0, 1, 1, -2, 0, 2
1503515745567,-3, 0, 0, 2, -1, 0, -2, -1
1503515745590,-2, -5, -4, -8, -2, 1, 1, 0
1503515745612,1, 3, 5, 11, 5, 2, -1, 1
1503515745627,1, -3, -2, -5, -4, 3, -2, 0
1503515745650,0, 13, 2, 0, 0, -4, 0, 1
1503515745674,-5, -6, -4, -2, -1, -4, -3, -5
1503515745687,-9, -5, 1, 2, 0, -3, 0, -3
1503515745710,4, 0, 3, 0, -1, -1, 1, 3
1503515745732,-1, -9, -11, -4, -1, 0, -1, -4
1503515745747,-5, -4, -2, -4, -3, -3, -3, -4
1503515745770,4, 5, 3, -2, -4, 1, 2, 2
1503515745792,-5, 4, 1, -4, -6, 0, -1, -1
1503515745809,1, 2, 4, 16, 8, 4, 0, 1
1503515745830,2, 0, -2, -6, -3, -3, -5, -5
1503515745852,-1, -5, -4, -4, -2, -3, 0, 0
1503515745867,2, 0, -1, -1, 1, 1, 1, 2
1503515745896,-1, 3, 1, 1, 2, -2, 3, -1
1503515745912,-5, 9, -4, -5, -2, -1, -2, -5
1503515745927,-6, -17, -3, -4, -1, -2, -2, 0
1503515745950,4, 3, 3, 0, 0, -1, -3, 2
1503515745972,10, 1, 2, -3, -2, -3, 5, 3
1503515745988,-2, -2, 0, -8, -7, 0, 0, -1
1503515746011,4, 4, 0, -5, -2, 0, -2, 1
1503515746032,-5, -6, -3, 3, 2, -2, -2, -1
1503515746048,-2, 1, 2, 1, 1, 0, 0, -3
1503515746070,-1, 0, -1, 2, -7, 0, -1, 0
1503515746080,3, 2, -1, -4, -6, -3, 1, -3
1503515746106,1, 1, 0, -3, -8, 0, 4, -2
1503515746122,-4, 0, -2, -1, -3, 0, -2, 0
1503515746137,-3, -10, -2, -5, -6, -3, -3, -2
1503515746160,-1, 0, 2, 3, 6, 1, -3, 3
1503515746182,3, 1, -2, -11, -5, 0, 1, 2
1503515746196,10, 6, -1, -2, -4, -4, -1, 1
1503515746220,-9, -4, -2, 2, -3, 0, -5, 0
1503515746244,11, 8, -1, -8, -1, -4, 1, 3
1503515746257,-1, 0, 0, 8, 4, 0, -3, -2
1503515746281,-3, -2, 0, 2, 2, 4, 0, -3
1503515746302,-6, -30, -12, -1, -1, -4, 0, 0
1503515746324,15, 17, 4, 5, 4, -1, 8, 9
1503515746339,-1, -2, -7, -1, -3, -1, -9, -5
1503515746362,-8, 1, 5, 0, 2, 2, 1, -4
1503515746385,0, 4, 3, -2, -10, 1, -3, -6
1503515746399,-7, -2, 3, 4, 17, -4, -4, -4
1503515746422,15, 19, 2, -8, -8, -2, 4, 5
1503515746445,-8, -8, -1, 3, 0, -3, 1, -2
1503515746459,-6, -4, -2, -3, -5, -2, 1, -3
1503515746482,-3, -3, 1, 4, 3, -3, -3, -2
1503515746504,-2, -4, -3, 1, 3, 2, -8, -1
1503515746520,-5, -3, -1, 4, -5, -3, -3, -7
1503515746542,5, -5, -6, -9, -7, -1, -2, 3
1503515746564,-5, -1, -6, -2, -1, 1, -4, -3
1503515746581,2, 10, 4, -11, -10, 0, -4, 4
1503515746594,-11, -12, -7, -6, -15, -1, -8, -10
1503515746612,4, 3, -2, -3, -3, -1, -3, -1
1503515746632,7, 6, -9, -2, 1, -1, 0, 1
1503515746654,-15, -27, -12, -11, -14, -2, -3, -4
1503515746670,-3, -6, -1, 0, 2, 2, 1, -2
1503515746692,6, 2, 0, 8, 23, -1, -4, 1
1503515746714,-11, 1, 4, 3, -1, -1, 0, -8
1503515746730,1, -1, 4, -1, 1, -3, 2, 2
1503515746752,-3, 3, -4, -5, -9, -3, -3, -2
1503515746774,-1, 2, -2, -7, -9, -3, -3, 0
1503515746790,3, -2, -1, 2, 4, 3, 4, 1
1503515746814,3, 15, 4, 3, 0, -1, -1, 4
1503515746835,3, -2, -6, -1, 1, -2, 1, 2
1503515746842,-7, -6, -3, -11, -7, -5, -5, -4
1503515746865,0, -1, -2, -1, -2, -2, -3, 0
1503515746881,-2, -2, 1, -10, -14, -2, -4, -2
1503515746901,2, 7, 2, -1, 0, 2, 2, -1
1503515746938,-6, 2, 3, 9, 7, 2, -1, -3
1503515746941,2, 6, -3, -3, -5, -3, -4, 0
1503515746962,1, 0, 0, -3, -1, 2, 4, 2
1503515746984,-1, -1, 4, 5, 1, -6, -5, -5
1503515746999,-2, -4, -3, 0, 3, 3, 3, 1
1503515747022,4, 23, 10, 4, 1, 1, 2, 8
1503515747044,1, 2, -2, 4, 1, -2, -6, -3
1503515747059,2, -2, 2, 21, 7, 3, -1, 2
1503515747082,-10, -17, -8, -15, -11, 10, 4, -6
1503515747104,2, 10, -1, -5, -3, 0, -2, -1
1503515747119,5, -2, -5, -2, -2, -3, -3, 4
1503515747142,6, 1, 0, 1, 8, -4, 8, 4
1503515747164,1, -1, 1, -5, -11, -5, -1, -4
1503515747182,-8, -16, -4, -4, -1, 1, -8, -4
1503515747195,-1, -8, -10, -7, -2, 2, -1, -5
1503515747217,-4, -9, -3, 0, 6, 1, 3, 0
1503515747232,-8, 3, 7, 8, 2, 0, 3, -1
1503515747255,-3, -10, 1, 18, 17, 5, 8, 2
1503515747276,-4, 7, 4, -2, -1, -3, 2, -5
1503515747292,1, 19, 5, -6, -5, -1, -4, 1
1503515747316,2, -10, -5, -3, 3, 1, -3, 5
1503515747336,-3, -5, -5, -5, -3, -6, 0, -8
1503515747353,2, 0, -4, -6, -5, -3, 13, -4
1503515747367,-3, -9, -4, -4, -3, -4, 9, 0
1503515747383,-5, -7, -6, 2, 10, -1, -1, -3
1503515747397,5, 2, -1, -1, -8, -2, -4, 3
1503515747412,2, 2, 1, 0, 1, -1, -4, 1
1503515747434,0, 2, 2, 2, 1, 0, -4, 1
1503515747457,6, 54, 16, 1, 0, 1, -3, -4
1503515747472,0, -15, -8, -8, -10, -3, -9, -1
1503515747495,1, -5, -2, -5, -2, 1, 0, 1
1503515747519,-1, -3, -2, 8, -3, 0, 3, -1
1503515747532,0, -11, -4, -4, -1, -1, -4, 1
1503515747556,-6, -11, -1, 1, 1, -1, 0, -1
1503515747576,0, -7, -4, 1, 1, 0, -2, -1
1503515747593,-4, -10, -5, -5, -2, -2, -3, 2
1503515747614,-10, -7, -4, -4, 2, -1, 1, -5
1503515747637,0, 14, 6, 17, 14, 3, -1, -1
1503515747652,0, -7, -1, 3, 4, -2, -3, 0
1503515747674,1, 3, -1, -4, -5, -2, 0, 0
1503515747702,8, 4, -2, -5, -4, 2, 1, 4
1503515747712,2, 1, 2, -2, -3, -4, 5, 1
1503515747734,1, 4, 3, 0, -2, 0, -1, -2
1503515747757,0, -5, -1, -1, 8, -6, -1, -1
1503515747772,-3, -5, -2, -6, -3, 2, -1, 1
1503515747794,0, 2, -5, -4, -4, 2, -4, -5
1503515747818,-6, -9, -4, -1, -3, -1, -2, -2
1503515747832,-4, -3, 1, -2, -1, -1, 0, 2
1503515747861,-5, 6, 0, -2, 0, 0, -2, -7
1503515747877,-2, -13, -8, -3, -5, -2, -4, -6
1503515747892,-2, -1, 7, 2, 1, 0, -1, 0
1503515747914,0, 0, -2, -2, -2, -2, 3, 0
1503515747936,0, 2, -3, -4, -3, -2, -4, 0
1503515747952,1, -2, -6, -7, -4, -1, -1, -1
1503515747974,-1, 4, 1, 2, -1, -1, -2, -2
1503515747997,2, -18, -4, -1, -1, -1, 1, 2
1503515748012,0, 2, 0, 2, 0, -1, 3, 2
1503515748034,0, -2, -2, 0, 1, 1, 4, 3
1503515748057,-7, -2, 2, 7, 11, 0, -8, -6
1503515748072,4, 3, 5, -1, -2, -1, 0, -1
1503515748094,3, 11, 8, 0, 0, 2, 0, -1
1503515748116,-5, -7, -8, -4, -7, -4, -2, -3
1503515748139,-2, 2, 2, -2, -3, 0, 2, 1
1503515748155,0, -2, -2, -1, 3, 0, -2, 1
1503515748183,0, -2, -6, 1, 3, -1, 1, -2
1503515748199,-4, -5, -2, -3, -3, -2, -3, -4
1503515748214,7, 25, 4, -3, -1, -2, -3, 1
1503515748236,-14, -24, -18, -5, -2, -1, -1, -5
1503515748259,6, 9, 5, 2, -2, -1, 3, 3
1503515748274,1, 5, -2, -4, -5, -2, -6, 0
1503515748289,-2, -4, -3, 1, 1, 1, 1, -1
1503515748304,1, 0, -1, -3, -6, -3, -4, -1
1503515748327,9, 2, 1, 4, -3, -1, 1, 8
1503515748348,-9, -13, -3, -8, -11, -1, -4, -3
1503515748364,-3, 0, -1, -1, -1, -3, -7, -9
1503515748388,-6, -7, -4, -5, -7, -4, 0, -3
1503515748408,0, 1, 2, 3, -1, -3, 3, -2
1503515748426,-1, -4, -1, 2, 10, 1, -1, 0
1503515748446,-6, -2, -3, -5, -3, 1, -3, -3
1503515748468,4, 4, -9, 3, 9, 3, 2, 5
1503515748492,-12, -6, -10, -3, -1, -2, -1, -7
1503515748514,2, 4, 7, 7, 6, 3, -3, 1
1503515748529,2, -4, 0, -3, -3, 2, -4, 4
1503515748537,-6, -7, -7, -1, -5, -3, -3, 4
1503515748560,-2, -5, -2, 2, 3, -4, 2, -4
1503515748574,-2, -1, -4, 1, -1, -4, 0, -2
1503515748597,-14, -15, 3, -2, 7, 1, 0, 0
1503515748619,-14, -34, -9, -4, -17, 1, -6, -4
1503515748634,8, 14, 4, -3, -2, -1, 4, 3
1503515748657,-3, -7, -2, 3, 5, 2, -2, -2
1503515748679,2, 16, -2, 0, 2, 0, 2, 3
1503515748695,1, -5, -8, -3, 2, -2, -3, -2
1503515748716,1, 1, 0, 0, 1, -3, 0, -1
1503515748739,-1, 1, 9, 1, -1, -3, -3, -1
1503515748762,-4, 5, -6, -2, 0, 1, 3, -4
1503515748776,4, 3, -5, -3, -1, 0, 2, 0
1503515748800,3, 13, 5, -4, -4, -1, 3, 1
1503515748814,-2, 0, 3, -1, 4, -1, -4, -3
1503515748837,9, 17, 2, 8, 4, 1, -4, 1
1503515748859,2, 3, -1, -5, -4, 0, 0, 2
1503515748877,-3, -9, 0, 6, 3, -3, 1, -5
1503515748897,3, -6, -4, -7, -7, -2, -6, 3
1503515748923,12, 53, 25, 8, 1, -1, -1, 4
1503515748942,-6, -27, -14, -4, 4, 2, 0, -5
1503515748960,-4, -6, 1, -8, -7, -2, -3, -3
1503515748990,1, -4, -1, -1, -1, -2, 0, 0
1503515749000,12, 12, 23, 7, 1, 5, 3, 4
1503515749017,-7, -28, -14, -5, -4, -3, -1, -3
1503515749040,-9, -23, -8, 5, 4, 1, 4, 4
1503515749055,-4, -1, -3, 2, 4, 1, -4, -5
1503515749076,-4, 0, -6, -6, -3, 0, 2, -2
1503515749099,-3, -3, -8, -4, -4, -4, -1, 2
1503515749124,0, 0, -1, 7, -5, -4, -4, -3
1503515749129,2, -2, -4, 2, 3, 1, 2, 2
1503515749151,-1, 11, 5, 1, -5, -6, -7, -5
1503515749168,-1, 6, 2, -3, -3, 1, -2, -3
1503515749189,0, -11, -10, -5, -4, -4, -1, -1
1503515749211,7, 2, 8, 3, 4, 1, 2, 7
1503515749227,-2, -8, -6, 3, 6, 3, 3, 0
1503515749249,-1, -4, -3, -4, -6, 1, -1, -3
1503515749271,-1, -9, -1, 1, 1, 0, -2, 2
1503515749287,-2, -4, -1, 0, -5, -2, 2, 2
1503515749308,-6, -8, -5, -3, 2, 0, -2, -2
1503515749331,-1, 4, 3, 1, 5, 0, 1, 2
1503515749340,-1, -3, -2, 2, 3, -3, -4, -3
1503515749362,-4, -1, -2, -12, -11, -3, -2, -3
1503515749377,-4, -5, -3, -1, -5, -3, -3, -5
1503515749401,-19, -6, 5, 6, 5, 0, -8, -19
1503515749422,3, -3, -3, -1, -13, -1, -1, 5
1503515749438,-3, -6, 2, 8, 7, -2, -5, 3
1503515749461,-9, -3, -5, -7, -4, -6, 2, 3
1503515749481,-2, 0, 3, -4, -3, 0, -2, -3
1503515749497,10, 8, -4, -36, -17, -7, -2, 5
1503515749519,-10, -6, -2, 1, 6, -2, -1, -2
1503515749531,-4, -3, 0, 4, -9, 6, -11, -2
1503515749542,4, -1, -1, 0, -17, -1, 0, 3
1503515749556,16, 14, 3, 6, 3, -10, 10, 15
1503515749579,-7, -3, -1, 3, 14, -10, -6, -6
1503515749602,-8, -1, 2, 12, 17, -2, 6, -1
1503515749617,-8, 21, 7, -1, 13, 12, 3, -2
1503515749639,0, -8, -2, 4, 8, 4, 0, -3
1503515749663,2, -4, -3, -4, -12, -2, -5, -8
1503515749677,-1, -15, -7, -2, -1, -1, -29, -2
1503515749699,-9, -20, -6, 2, -9, 1, 16, -5
1503515749707,11, 5, 3, 0, 13, -6, 17, 9
1503515749729,-10, -8, -2, 6, 12, 6, 4, 2
1503515749751,4, 2, 1, 7, 5, -4, -2, 5
1503515749767,5, 9, 1, -3, -8, 1, -8, -1
1503515749788,22, 32, 9, -11, -27, -5, 0, 5
1503515749811,-13, -9, -4, 4, 14, 3, -6, -4
1503515749830,-9, -6, 0, -5, -12, -2, -15, -10
1503515749848,-2, -8, -6, -3, -1, 0, -14, 0
1503515749872,2, -2, 1, -3, 7, -1, 5, -2
1503515749896,-8, -10, -2, -1, 0, 0, 4, -3
1503515749908,0, -2, -2, 1, 2, 0, 6, -1
1503515749931,-3, -12, -3, 4, 3, 3, 6, 7
1503515749946,16, 18, 14, 4, 2, 0, 1, 1
1503515749968,3, 9, -9, -5, -3, -4, -2, -2
1503515749991,-12, -14, -7, -6, 2, -4, -5, -6
1503515750013,-1, 7, 4, 3, -4, -4, -1, -1
1503515750029,0, -4, 3, 2, 8, -3, 2, -3
1503515750051,-4, 5, -2, -5, -25, -5, 2, 4
1503515750073,3, 1, -3, -4, -9, -5, -7, -2
1503515750088,-5, -14, -7, -3, 16, 2, 2, -1
1503515750111,6, 11, 4, 5, 6, 3, -3, -1
1503515750134,4, 14, -1, -2, -31, -1, 0, 1
1503515750148,-3, -10, -5, 3, 2, 3, -2, -6
1503515750171,-6, -4, -2, -6, -5, 1, 0, 2
1503515750193,-5, -5, 0, -15, -57, -6, 0, 3
1503515750202,-6, -6, -6, -3, 6, 0, 2, -2
1503515750224,5, 8, 1, -5, 1, -3, 2, 1
1503515750240,-6, -7, -7, -7, 9, -3, 1, 5
1503515750264,-13, -4, 1, -4, -2, -5, -8, -6
1503515750284,-8, -7, -4, -5, -14, 2, 0, 2
1503515750299,-8, -6, -3, 3, 10, 0, 3, -1
1503515750321,-3, -5, -5, 5, 3, 2, -4, -4
1503515750344,1, -4, 0, -2, -7, -5, -5, -2
1503515750359,14, 12, 10, 5, 4, 2, -9, 1
1503515750381,3, 0, -3, -5, -48, -5, -5, 11
1503515750404,-5, -12, -6, -1, 2, 2, 8, 15
1503515750419,1, 12, 10, 5, 14, -1, -3, -13
1503515750442,22, 1, -3, 1, 12, 2, -1, 7
1503515750472,-10, -2, -3, -1, 10, -2, 2, -3
1503515750480,-4, 1, -3, -1, 5, 1, -2, -8
1503515750502,4, 4, 3, 0, 2, 1, 1, 13
1503515750540,-2, -1, -3, 0, 0, 2, 10, 26
1503515750555,-23, -22, -12, -2, -1, -2, -5, -20
1503515750577,9, -5, -4, -3, -7, -1, 0, 1
1503515750584,0, 3, -1, -2, -5, -4, 0, 18
1503515750599,-3, -3, -4, -5, -4, 2, 2, 5
1503515750621,1, 5, 4, 3, -3, 0, -1, -57
1503515750637,-1, 3, 1, -1, 1, -1, -4, 2
1503515750652,-6, -13, -2, -3, -2, 0, -1, 24
1503515750681,3, -12, -7, -1, 1, 1, 3, 27
1503515750683,14, 17, 7, 1, 2, 2, 9, 32
1503515750704,-10, -4, -2, 0, -2, -1, 2, -6
1503515750719,9, -4, -1, 4, 3, 0, -5, -5
1503515750742,-6, -4, -5, -2, -2, 2, -2, 37
1503515750766,-12, -6, -2, -1, 0, -2, 0, -27
1503515750779,7, -1, 11, 1, -1, 1, 6, -11
1503515750802,-15, -7, -6, -3, -1, -3, -2, 5
1503515750824,6, -2, -8, -2, 0, 0, 4, -8
1503515750839,8, 4, -2, -4, -3, -1, -1, -14
1503515750861,21, 8, 3, -2, -1, -2, -7, 6
1503515750885,-15, -12, -5, 0, 2, -1, 7, 3
1503515750901,-2, -6, -2, -4, -3, -1, -4, -2
1503515750921,12, 7, -1, -2, -4, -3, -4, -10
1503515750944,2, -2, -1, 1, 0, -2, -3, 1
1503515750967,3, 12, 6, 0, -1, 1, 0, 4
1503515750975,14, 47, 23, 5, -1, -3, -1, 3
1503515751000,-6, -17, -13, -5, -1, 0, 0, -2
1503515751012,1, 0, -1, 3, 1, 0, -3, -4
1503515751041,1, 4, 2, 1, 1, -1, -2, -6
1503515751057,-19, -16, -8, -2, 0, 0, -5, -9
1503515751074,-2, -9, -5, -2, 0, -2, -2, -5
1503515751094,1, -17, -6, -1, -3, -1, 0, 2
1503515751117,8, 4, -2, -3, -2, 2, -1, 2
1503515751132,6, 5, 2, 1, -2, -1, -1, -1
1503515751155,-2, 7, 3, -1, -4, 0, 4, 0
1503515751177,-3, -5, -1, -2, -3, -2, 1, 2
1503515751192,38, 45, 26, 6, 3, 1, 1, 2
1503515751214,-22, -18, -7, -6, -3, -3, -1, -4
1503515751238,4, -3, -4, 4, 2, -9, 0, 0
1503515751252,-5, -7, -6, -2, -1, 2, -4, -3
1503515751275,-1, 0, -5, -5, -3, -2, -3, -3
1503515751297,-4, -3, 1, -1, -1, 1, -1, -2
1503515751312,24, -4, -3, -3, -2, 0, 1, 0
1503515751336,-4, -4, -4, 4, 3, 0, -2, -2
1503515751357,10, 7, 3, -5, -2, 1, -1, -2
1503515751372,-11, -3, -2, -3, 1, 21, 0, -2
1503515751394,-12, -9, -6, -2, -2, 3, 1, 3
1503515751417,-10, -15, -13, -2, -2, -10, -1, -3
1503515751432,-2, 12, 5, 5, 1, -2, 3, 2
1503515751454,-8, -10, 1, 1, -2, -5, -4, -1
1503515751478,-6, -1, 2, -3, -3, -3, 4, 0
1503515751492,4, 11, -2, -1, 0, -1, 0, 0
1503515751515,-13, -27, -3, -1, -1, -3, -6, -4
1503515751522,9, 1, -4, 1, 0, -2, -2, 3
1503515751545,-35, -19, -7, -4, -7, -2, -6, -2
1503515751567,1, 5, 3, 1, 2, -5, 3, -1
1503515751581,-4, 47, 17, 0, -4, 5, -7, -6
1503515751604,-19, -28, -14, 0, 0, -2, 1, -2
1503515751626,20, 1, -2, 1, -1, -2, 0, 2
1503515751641,3, 5, 4, 6, 5, -2, 3, -2
1503515751664,15, 37, 10, 1, -1, 0, -2, 1
1503515751686,-3, -21, -14, -8, -6, -4, 1, 2
1503515751694,2, 7, -1, -1, 0, -1, -3, -1
1503515751723,1, -9, 2, -3, -4, -3, 1, 1
1503515751732,-5, 6, 3, -4, -5, -30, -3, -4
1503515751755,15, 6, -2, 0, 0, 7, -6, 2
1503515751777,-3, -10, 4, 4, 2, 6, 1, 0
1503515751792,2, 13, 7, 4, 2, 6, -4, -1
1503515751814,12, 4, -4, 0, -2, 0, 1, 1
1503515751839,1, -5, -3, 0, 1, 3, -2, -1
1503515751852,1, -5, -9, -4, -1, 1, -1, -2
1503515751875,21, -4, 3, 2, 0, -1, 0, 0
1503515751897,-34, -35, -11, -3, -3, -4, -6, -8
1503515751919,-2, 12, 6, -1, -2, -2, 0, 1
1503515751934,5, -1, 0, -3, -2, 1, 0, 7
1503515751957,-11, -10, -12, -4, 1, 2, -1, -3
1503515751979,-4, -18, -2, 2, 1, 1, 0, -1
1503515751986,-43, -37, 0, -2, -1, 0, 3, -1
1503515752011,-30, -4, -2, -1, 1, 0, -2, 0
1503515752024,4, -5, -10, -6, -4, -2, -4, -5
1503515752047,0, 10, 1, 0, -1, 0, 2, 9
1503515752069,-14, 8, 8, 4, 2, -1, -2, -2
1503515752084,-10, -16, -11, 0, 1, 1, 6, -3
1503515752107,23, -16, 1, 0, -2, -3, 1, 0
1503515752129,1, 46, 9, -2, -2, 1, -3, -2
1503515752145,-7, -11, -7, -1, -3, -2, -7, -13
1503515752166,15, -5, -6, -2, 1, 0, 0, 4
1503515752189,-2, -5, -7, -3, -1, -3, -2, 0
1503515752204,28, 19, -3, -5, -5, -2, 1, 3
1503515752226,-25, -3, -1, -2, -3, 1, -2, -4
1503515752249,1, -6, -2, 1, -1, 1, 0, 5
1503515752264,0, 12, 10, -2, 1, 18, 1, 4
1503515752286,30, 8, 2, -2, -2, 0, -2, 1
1503515752309,-11, -34, -11, 1, -1, -8, -1, -9
1503515752325,-6, -15, 7, 2, 1, -8, -7, -24
1503515752342,6, -4, -3, -2, 0, 1, 2, -10
1503515752354,-2, -4, -7, -4, 0, -2, -7, 0
1503515752377,2, -8, -4, -2, 0, 2, -1, -8
1503515752384,-4, 8, -2, -2, -1, -2, -1, 4
1503515752408,-9, -6, 9, 0, -1, -2, 3, 5
1503515752429,8, 6, 1, 0, 0, -1, 2, 0
1503515752444,-3, 5, -4, -2, 0, -2, -2, 6
1503515752466,-5, 1, 0, -1, 1, -2, -1, 7
1503515752489,-5, -18, -7, -2, -3, 0, -1, 1
1503515752504,-1, 22, 1, 0, -2, -2, -1, 0
1503515752526,0, 1, -1, 1, 1, 1, 2, 0
1503515752550,0, 0, -3, -3, -3, -1, -2, -3
1503515752564,-1, 1, 4, 4, -1, -2, 1, -1
1503515752586,1, 1, 2, -1, 0, -1, 1, -1
1503515752609,0, -2, 1, -2, -1, 0, -3, -2
1503515752624,-1, -6, -13, -9, -1, -2, -1, 0
1503515752647,0, 1, 0, -1, -2, 2, 0, 2
1503515752669,0, 0, 2, -4, -2, -3, 1, -4
1503515752691,0, -2, -1, -1, -2, -1, 0, -1
1503515752706,0, -3, -5, -1, 0, 0, -1, 1
1503515752729,0, -1, 0, -1, -1, 0, -3, 1
1503515752744,3, 5, 9, 5, 1, 0, -2, -1
1503515752767,-5, -3, 2, 1, -2, -3, -2, -1
1503515752789,-1, -2, -5, 0, 0, -3, -1, -1
1503515752811,-1, -3, 1, -1, 0, 1, 1, 0
1503515752826,0, 5, 2, 0, -1, 1, 0, -1
1503515752849,4, 7, -2, 0, -2, 1, -2, 0
1503515752871,0, -3, 2, 2, 1, -2, -6, -2
1503515752886,-3, 4, 5, 1, 0, -2, 3, -4
1503515752910,-1, -4, -7, -7, -2, 0, -2, 1
1503515752931,-1, -4, -4, 0, -3, 0, -2, 1
1503515752946,-3, -5, -1, 1, -1, -3, 0, -3
1503515752969,-2, 0, -3, -2, 1, 1, 5, 3
1503515752991,1, 4, 0, -1, 1, -1, -1, 0
1503515753006,-11, -8, -4, -6, -6, -2, -4, -12
1503515753029,2, -5, -2, 2, 1, 0, 0, 0
1503515753051,0, -9, -3, 0, -2, -2, -1, 1
1503515753066,-2, 14, 2, 1, -1, -1, -7, 0
1503515753097,-5, -5, -4, -1, 0, -2, 0, -2
1503515753120,0, -3, -1, 1, 1, -2, -1, -1
1503515753141,-1, -1, -3, -1, -1, 1, 0, 0
1503515753157,0, 1, 0, 0, -2, 0, 4, 0
1503515753179,-2, -1, 2, -1, -2, -1, -6, -3
1503515753201,0, 0, -1, 1, 2, 0, 0, 4
1503515753217,-1, -2, -2, -3, 0, 1, -1, -1
1503515753239,-2, -3, -4, 1, -2, -2, 2, -4
1503515753261,-4, -9, -7, -5, -1, -2, -2, -3
1503515753280,1, -7, -2, 1, 0, -2, -2, -4
1503515753299,-3, -2, -3, -4, -4, -4, -1, -1
1503515753322,3, 5, 1, 0, -2, 1, -2, 2
1503515753337,2, 6, 4, 1, -1, 0, 0, 1
1503515753359,-2, -5, -4, -1, 2, -2, -4, -6
1503515753381,-1, -11, -3, 0, -1, -2, 0, 3
1503515753389,-2, -4, 3, 2, 0, 0, -4, -3
1503515753413,-1, 1, 0, 1, -1, 0, 0, 3
1503515753426,-2, -2, -2, -1, -1, -1, -2, -3
1503515753449,4, 1, -2, -3, -1, 0, 2, -3
1503515753471,3, 5, -1, 0, -2, -3, -1, -6
1503515753487,-1, 2, -2, -1, -2, -1, 1, 4
1503515753509,8, 24, 10, 3, 3, 0, 2, 3
1503515753531,-4, -9, -5, -3, -4, -2, -4, -4
1503515753547,-3, -8, -1, -1, 1, -1, -2, -3
1503515753569,5, 3, 0, 0, 0, -2, -3, -3
1503515753591,-3, -2, 1, -2, 0, 2, 4, 3
1503515753606,-4, -1, -1, 0, -2, 1, -3, 0
1503515753629,-4, 9, 0, 0, 0, 0, 1, -1
1503515753651,-2, -12, -5, -4, -4, -3, -2, 0
1503515753666,-6, -4, 1, 0, -1, -1, -3, -2
1503515753690,-3, -8, -1, -4, -1, -2, -2, -2
1503515753710,-1, 7, 0, -2, -2, -2, 0, -4
1503515753719,-9, -3, 0, -1, -1, -1, 1, -8
1503515753733,1, 1, -4, 0, 0, 0, 2, -1
1503515753749,4, 22, 5, 0, 1, 0, -2, -2
1503515753771,1, -10, 2, -1, 1, -1, 2, -1
1503515753793,1, 0, -5, -1, -2, 1, -1, -2
1503515753809,-2, -2, -1, 1, 1, -2, 0, -3
1503515753831,0, -1, 0, -3, 0, -2, -2, -1
1503515753853,-7, -9, -7, 0, -2, -1, 0, 0
1503515753869,2, -2, -1, 1, -2, -3, -2, -1
1503515753891,-1, -2, -1, 6, 14, 1, 2, 1
1503515753915,-1, -2, -3, -7, 1, -1, -1, -5
1503515753929,0, 0, 1, 2, 3, 2, 0, 0
1503515753951,-3, 0, 1, 0, -4, 1, -2, 0
1503515753973,5, 4, 0, 0, -5, -1, -1, 4
1503515753989,-1, -3, -2, -6, -5, -3, 1, -1
1503515754010,1, 0, 0, -2, 7, 5, 4, 3
1503515754033,-2, -2, -2, -3, -4, -5, -3, -5
1503515754049,-3, -3, -1, 0, -5, 0, -1, -3
1503515754070,-1, -1, 0, 3, 2, -1, 0, 0
1503515754093,8, 8, 2, -1, -12, -2, 0, 3
1503515754109,-7, -3, 2, 3, -6, -2, 2, -4
1503515754131,0, 1, -1, -5, -2, 0, -2, 1
1503515754154,-2, 3, 9, 2, 0, 0, -10, -6
1503515754169,-2, -7, -7, -3, -2, -4, 3, 2
1503515754192,-1, -10, 0, 2, 0, -1, -5, 1
1503515754213,-4, 6, -1, -2, 0, -2, -7, -4
1503515754222,2, 10, 4, -3, 0, -1, 1, 3
1503515754244,0, 2, 2, 0, 2, 2, -1, -2
1503515754260,1, 4, 3, -1, -3, -1, -2, 1
1503515754284,-2, 1, 5, 4, 3, 3, 3, 0
1503515754304,-4, -3, -3, -2, -1, -5, -1, 13
1503515754319,2, -2, -2, -2, -2, -1, -4, -10
1503515754341,0, 1, 0, -3, -2, -1, 3, 2
1503515754364,-8, -14, -3, 2, -2, 1, -2, -1
1503515754379,10, 9, 4, -4, -2, -6, -3, -2
1503515754401,3, 4, 1, -2, 0, 2, 1, -1
1503515754425,2, 3, -1, 0, 1, 1, -4, -1
1503515754440,-5, -3, -4, 0, -2, -1, -1, 1
1503515754461,-7, -1, -1, -2, -2, -2, -5, -10
1503515754485,-1, 7, 3, 0, 1, 0, -1, 3
1503515754500,30, 0, -6, -3, -1, -3, -1, 3
1503515754522,-13, -7, 0, 1, 1, 0, -1, -7
1503515754544,-4, -2, 0, -1, 0, -1, 2, 1
1503515754559,1, -3, -3, -1, -2, -1, 0, 1
1503515754582,-8, -3, -2, -1, 0, 0, -1, -7
1503515754604,2, -4, 1, 0, -3, -1, -2, -1
1503515754619,-3, 3, -5, -1, -1, -3, -3, -2
1503515754641,-4, -15, -1, 1, 1, 4, 5, -2
1503515754664,-1, 2, 0, -2, 0, -2, -3, -3
1503515754686,0, 6, 2, -1, -1, 1, -2, 2
1503515754701,-6, 5, 3, 0, 1, 0, -1, 1
1503515754724,0, 2, -2, -1, 0, -2, 1, -1
1503515754746,0, -3, -3, -1, 1, -2, 0, 2
1503515754754,-2, -6, -5, 0, -2, -1, -3, -6
1503515754776,-11, -8, -5, -3, 0, -7, -1, -4
1503515754792,6, 3, 8, 2, -2, 4, -3, 2
1503515754813,-1, 0, 1, 0, -1, 0, -3, -2
1503515754836,3, -1, -2, -1, -1, -1, -2, -4
1503515754854,-2, -3, -3, -1, -1, -1, 2, 1
1503515754889,-1, -2, 0, -1, -3, -3, -2, -1
1503515754904,-2, 4, 3, -2, 0, -1, 1, 1
1503515754926,0, 3, 0, 0, 0, -1, -1, 0
1503515754941,1, -2, -2, 0, 1, -1, -2, 1
1503515754964,-1, -2, -2, -2, -1, 0, -3, -1
1503515754988,-1, 9, 2, 0, 1, 0, 1, -1
1503515755001,1, -9, -4, -2, -2, -1, -3, 0
1503515755024,-2, -11, -2, 0, -1, -4, -2, 0
1503515755046,-1, -2, -3, 0, 0, 0, 0, -4
1503515755062,2, 2, 2, 0, 0, -1, 1, 0
1503515755084,-2, -2, -3, 1, -2, -2, 3, -4
1503515755106,-1, 1, 0, -2, -1, -1, -2, -1
1503515755122,0, 22, 10, 0, -2, 0, -1, -1
1503515755144,0, -8, -4, 1, 0, 1, -1, 0
1503515755166,4, 13, 9, -2, -1, -1, -1, -1
1503515755181,-2, -5, -7, -1, -1, -1, -2, -1
1503515755204,-1, -9, -3, 0, -1, -1, -1, 2
1503515755227,-4, -6, -2, 1, 0, 0, -1, -2
1503515755241,0, -25, -6, -3, -1, -1, -1, 0
1503515755264,-2, -8, -6, -3, -1, -1, -3, -1
1503515755288,3, 14, 4, 0, -2, -1, -3, -2
1503515755301,-3, -4, -3, 0, -1, -1, 0, -2
1503515755325,1, 1, -1, -1, -3, 0, 0, 1
1503515755346,-1, 3, 0, -1, 0, -4, 0, -3
1503515755361,4, 1, 1, 0, 1, 2, 0, 0
1503515755384,-2, -2, -3, 0, -2, 1, 0, 0
1503515755406,-1, 4, -4, -2, -1, -2, 2, 1
1503515755422,-2, -3, -1, 0, 0, 0, -1, -3
1503515755444,-2, -6, -3, -1, -1, 0, 1, -1
1503515755466,0, 0, -3, -2, -2, -5, -3, -1
1503515755481,-1, -9, -3, -1, 0, -1, -2, -2
1503515755504,-2, -2, 0, -1, -2, -2, -2, 1
1503515755526,0, 1, 1, 1, -2, 1, -4, -4
1503515755534,-1, -5, -1, -3, -5, -3, 3, 1
1503515755559,3, 10, 2, 0, 2, 0, -4, -2
1503515755579,0, 3, -2, -1, -2, -1, -2, 0
1503515755595,-2, -13, -6, -1, -3, -3, 0, -1
1503515755617,-1, -6, -4, -1, -1, -2, -2, 3
1503515755639,-1, -5, -1, -2, 0, -1, 1, -6
1503515755654,-2, -9, -1, 1, -2, -1, -3, 0
1503515755669,0, 1, 1, 2, 0, -1, -2, -3
1503515755684,2, 21, 3, -2, -4, -2, 1, -1
1503515755706,1, 6, 0, -1, 0, -1, -4, -1
1503515755729,-2, -7, 0, -2, -1, 0, -1, -4
1503515755744,-1, -6, -1, -1, -2, -4, -1, -2
1503515755767,-3, -3, -1, 1, 0, -2, 0, 0
1503515755789,0, -2, -1, 1, -2, -3, 0, -1
1503515755797,3, -2, -1, -1, -2, -2, 1, -2
1503515755819,-1, 9, 0, -1, -2, -1, -2, -1
1503515755834,-2, -7, -4, -1, -1, -1, 0, 0
1503515755859,0, -7, -4, -1, -1, 2, 0, -2
1503515755880,-1, 2, 4, -1, 0, 1, -3, 1
1503515755894,-1, -5, -1, -2, 1, -1, 1, 0
1503515755917,1, -5, -3, -2, -2, -1, -1, -2
1503515755940,0, -6, 0, -3, 0, -1, -3, -3
1503515755954,-2, 6, 2, 1, -1, -2, 1, -2
1503515755977,-5, -7, -3, 1, 2, 0, -2, 0
1503515755999,0, 6, 0, -1, -1, 1, -3, 0
1503515756006,-2, -3, 1, -1, 0, 1, 2, 0
1503515756029,1, -1, 1, -1, -1, -1, -1, -2
1503515756044,-3, -6, 0, -1, -1, -1, -2, -1
1503515756066,2, -11, -4, -2, 0, 0, 0, 0
1503515756089,3, 11, 1, 1, 0, 0, -1, 3
1503515756104,0, -4, -4, -2, 0, -1, -1, -1
1503515756128,1, -3, -3, -1, 0, 0, 1, 0
1503515756149,-4, 3, 0, -3, 0, 0, -1, -2
1503515756165,-2, -2, -1, 0, -1, -4, -3, -1
1503515756186,-4, -22, -8, -1, -2, -2, 1, -1
1503515756209,4, -10, -2, 0, -2, 0, -1, -4
1503515756224,1, 20, 5, -2, -3, 0, 2, 1
1503515756246,-4, 3, 0, 0, -1, -2, 1, 0
1503515756269,-2, -1, 0, 1, 0, 2, -1, -3
1503515756284,-3, -1, -2, 0, 0, -3, -6, -1
1503515756301,2, 6, 6, 1, -1, -2, 0, -1
1503515756314,-9, -11, 0, -1, -3, -1, -1, -2
1503515756337,-6, -14, -4, -1, -1, 0, 0, 0
1503515756361,-2, 7, 0, -1, 1, 9, -4, -2
1503515756374,0, 5, -3, 1, 0, 0, 2, -1
1503515756397,6, 6, -2, -2, 1, -3, 2, -2
1503515756429,-11, -14, -6, -2, -2, 1, 1, -1
1503515756449,-1, 2, -2, -2, -1, 0, -1, -3
1503515756464,11, 10, 2, -2, 0, -1, -1, 0
1503515756486,0, 2, 0, -1, 0, 0, 3, -3
1503515756509,-3, 11, 2, 0, -2, -2, -5, -1
1503515756524,-1, 1, 0, -3, 0, 2, 2, 2
1503515756546,1, 11, 0, -3, 0, -2, -4, -4
1503515756569,-7, -18, -3, 3, 0, -1, -1, 1
1503515756591,4, -13, -4, -3, -4, -2, -1, 2
1503515756606,1, 15, 6, -1, 2, 2, -1, -1
1503515756630,1, -2, -3, -2, -2, -3, 0, -2
1503515756651,5, 1, 2, 6, 4, 2, -5, 2
1503515756666,-10, -5, -4, -5, -2, -1, 5, -4
1503515756689,1, -3, -5, -1, 0, -2, -6, -1
1503515756711,0, 6, 6, -1, -3, -1, 2, 0
1503515756731,2, -1, 0, 2, -1, 0, 3, 0
1503515756748,-6, 14, -2, 1, -2, 0, 1, 0
1503515756772,2, -6, -5, -7, -3, 0, 2, -2
1503515756786,1, -17, -8, -6, -3, -1, -6, 0
1503515756809,0, -19, -9, 4, 0, 4, 3, 4
1503515756831,9, 6, -4, -1, 0, -1, -3, -1
1503515756846,1, 1, 1, 0, 2, 0, -1, -3
1503515756869,-16, -18, -4, 1, 0, -3, -2, -4
1503515756891,-8, -5, 2, -1, -4, -1, 2, 1
1503515756907,3, 10, 5, 2, 1, -1, 3, 2
1503515756931,-12, -25, -7, -1, -2, 0, 1, -3
1503515756951,-33, 13, 5, -3, -3, -2, -2, -1
1503515756966,0, 3, 4, 1, 0, 13, -3, -3
1503515756989,16, 51, 12, 0, -1, -6, -5, -1
1503515757011,5, 13, 1, 1, -1, -1, -1, -6
1503515757026,-2, -35, -13, -5, 0, -5, 0, 0
1503515757048,9, -3, 6, 1, -3, -2, 1, 0
1503515757071,4, -5, -4, -3, -2, -5, -3, 2
1503515757086,0, -33, -10, -5, -1, 1, -2, -1
1503515757109,-8, -4, -6, -5, -1, 0, -1, -1
1503515757132,-7, 4, 2, 0, -1, 1, 0, 2
1503515757146,12, 11, 2, -3, -1, -1, -2, -1
1503515757169,-4, -6, 1, -1, 0, -1, 0, -2
1503515757191,-6, 1, 4, 10, 1, -2, 1, -1
1503515757206,-3, -6, 0, 4, 0, 0, -1, 1
1503515757222,-16, -20, -4, -3, -3, 0, -1, -3
1503515757237,-43, -4, -5, -3, 0, -2, -2, -4
1503515757259,1, -13, -6, -2, -2, 4, 0, -2
1503515757282,-1, -7, -3, -2, -3, -2, 0, -3
1503515757299,7, 14, 3, 4, 1, 0, -2, -1
1503515757319,3, -14, -7, 0, -1, 0, 2, 2
1503515757342,17, 20, 1, -1, -3, -5, -2, 1
1503515757366,10, 42, 5, -2, -2, 1, -1, 0
1503515757371,7, 10, 13, 3, 0, -1, 1, 10
1503515757386,-10, 9, -3, -4, -2, -2, 0, -2
1503515757409,-3, 7, -3, 1, -1, 2, -1, 0
1503515757437,3, -9, 7, 5, 1, -3, -2, -3
1503515757447,8, -2, -2, -3, -1, 0, -2, -2
1503515757477,-7, -12, -10, -2, -1, -2, 0, -10
1503515757491,0, -5, -4, -1, 0, 1, 0, 1
1503515757514,4, 3, 0, -1, -1, -1, -1, 0
1503515757529,-6, 3, 0, -3, -3, -1, -2, -2
1503515757551,6, 2, 3, 1, 1, -2, -1, 1
1503515757574,-1, -2, 5, 0, -1, 0, 1, -1
1503515757588,-3, 5, -3, -1, 0, -1, 1, 0
1503515757611,-7, 4, 1, 0, 0, -1, -2, -1
1503515757634,3, 5, 0, 0, 1, 2, 0, -1
1503515757649,-1, -2, -3, -3, -4, -2, -3, 0
1503515757678,-1, 2, 3, 6, -1, -1, -1, -4
1503515757694,-1, 0, -6, -5, 1, 1, -1, 0
1503515757709,-1, 2, 0, 2, 1, 1, -1, 0
1503515757731,18, 8, -1, 1, -1, 0, 1, 0
