1503514028877,1, 0, -1, 0, -1, 1, -2, -1, 0
1503514028892,-1, 0, 1, -1, 0, 0, 0, 0, 0
1503514028914,1, 0, 1, 1, 1, 1, 2, 0, 0
1503514028944,-1, -2, 1, 0, 1, 1, 0, -4, 0
1503514028966,-1, -1, -2, -1, -1, -1, -1, -4, 0
1503514028982,-2, -1, 0, 0, 0, -3, -1, 2, 0
1503514029003,1, 1, 1, 0, -2, -1, 1, 0, 0
1503514029026,-1, 0, 0, -1, -1, -1, -2, 0, 0
1503514029041,-1, 0, 0, -1, -1, 0, -1, 2, 0
1503514029063,-1, 1, -2, -1, 0, -2, -2, -4, 0
1503514029086,-1, -1, 1, -1, -1, 0, -2, -5, 0
1503514029101,-2, -3, -3, -2, -2, -1, -1, -1, 0
1503514029117,-2, -1, -1, 0, -2, 1, -1, 0, 0
1503514029132,-1, 0, -3, -1, -1, -1, 2, 0, 0
1503514029154,-1, -2, -1, 1, 0, 0, 0, 1, 0
1503514029176,-1, -1, 1, 0, -1, -2, -3, -4, 0
1503514029199,-2, 0, 1, -1, -2, -1, -1, -5, 0
1503514029214,0, -5, -2, -2, -1, 1, 0, 1, 0
1503514029236,0, 0, 0, -2, 0, -1, -2, 0, 0
1503514029259,1, 1, -1, 0, -2, -1, 0, 1, 0
1503514029274,0, -1, 1, -2, -1, -1, 1, 0, 0
1503514029296,0, 0, 0, -1, 0, 1, 1, 2, 0
1503514029304,0, -1, -1, 0, -1, 0, -1, 0, 0
1503514029327,-1, -1, -1, 1, 0, -1, -2, 0, 0
1503514029351,1, 0, -1, 0, -2, -2, -2, -1, 0
1503514029364,-3, 1, 1, 1, 0, -1, -1, -6, 0
1503514029379,0, -1, -1, -1, -3, 0, -1, -1, 0
1503514029394,-3, -3, -1, 1, -1, -2, -2, -2, 0
1503514029419,-4, -2, -1, -2, -2, -2, -1, -2, 0
1503514029439,0, 1, 0, -1, 0, 0, 0, -1, 0
1503514029454,-1, 0, 0, 0, 2, -2, -2, -2, 0
1503514029470,1, 0, -1, 1, 0, -1, 0, 2, 0
1503514029487,-2, -3, 1, -1, 2, -1, -1, 2, 0
1503514029507,0, 0, -1, 0, 0, 0, -2, -3, 0
1503514029529,1, -1, -3, 0, -3, -1, -1, -1, 0
1503514029536,-3, -1, 0, 0, 1, 0, 0, 0, 0
1503514029559,1, -1, 1, -1, -1, 0, -1, 0, 0
1503514029574,1, -2, 0, -2, 0, -1, -1, 0, 0
1503514029596,-2, 0, -2, 0, -2, 0, -2, -1, 0
1503514029604,-1, -3, -2, -1, -1, -2, -2, 2, 0
1503514029629,0, 1, -1, 0, -2, 1, 0, -3, 0
1503514029656,2, -1, 0, 0, 0, -1, -1, 1, 0
1503514029665,1, -1, 0, 0, 0, -2, -2, 0, 0
1503514029688,-2, -1, -2, -1, -2, -1, 0, -1, 0
1503514029710,-1, -3, 0, 1, 0, -3, -1, -1, 0
1503514029725,-2, 0, -1, -1, -2, -1, -1, -1, 0
1503514029747,-1, 0, -2, -3, 0, 0, 0, -2, 0
1503514029769,1, 1, 0, -2, -2, -2, -1, -3, 0
1503514029785,0, -2, 1, 1, -2, 0, -1, 3, 0
1503514029807,0, -2, -3, -2, 0, -1, 0, 2, 0
1503514029830,1, 0, 1, -1, 0, 1, -1, 2, 0
1503514029845,-3, -1, -1, -1, -1, 1, -1, 0, 0
1503514029867,1, -2, -2, -1, -1, 0, 0, 1, 0
1503514029874,-2, 0, 0, 0, -2, -1, -1, -1, 0
1503514029897,1, 1, -1, -1, 0, -2, -1, 1, 0
1503514029921,-1, 0, -1, 0, 1, -1, 0, -3, 0
1503514029934,-2, -2, -2, 0, -3, 0, -2, -1, 0
1503514029957,0, 0, 0, -2, -1, -1, 0, 0, 0
1503514029979,1, -5, -4, -2, -1, 0, -1, 0, 0
1503514029994,2, -1, 1, 0, -1, 1, 0, 1, 0
1503514030017,-1, -1, 1, -1, 0, 0, -2, 1, 0
1503514030032,-1, -1, 0, -1, 2, 0, -1, -1, 0
1503514030047,-2, -1, -2, -2, -1, -2, -2, -4, 0
1503514030069,-2, -2, -3, 0, 0, 0, 1, -2, 0
1503514030093,1, -3, -3, -1, -2, 0, 0, 2, 0
1503514030107,0, 2, 3, 1, -1, -2, -2, -3, 0
1503514030130,-1, -2, 0, -1, 0, -1, -2, -1, 0
1503514030152,-2, -3, -2, 0, -1, -1, -2, -2, 0
1503514030167,0, -2, 0, -2, -3, -1, 0, 2, 0
1503514030191,-2, -1, -1, 0, -1, 0, -1, -2, 0
1503514030211,1, 1, 0, -2, -1, -1, 0, 1, 0
1503514030227,0, -1, -3, -2, -1, 1, 0, 2, 0
1503514030250,-2, -1, 1, -2, 0, -2, 1, 2, 0
1503514030271,1, -1, 0, 0, -1, 0, 1, -2, 0
1503514030287,0, -1, -2, -1, -3, -2, -1, -4, 0
1503514030310,3, 0, 0, -1, 0, 0, 0, 5, 0
1503514030317,-2, -1, -2, 0, 0, 0, -1, -1, 0
1503514030339,1, -1, 1, 0, 2, 0, 1, 0, 0
1503514030362,-1, -4, -4, -2, -3, -1, -1, -1, 0
1503514030376,-1, 0, 0, 0, -1, -2, -1, 0, 0
1503514030400,-3, 1, 0, -2, -1, -1, -3, -4, 0
1503514030421,-2, 0, -1, -1, -1, 0, 1, 1, 0
1503514030429,-3, 0, -2, -1, -1, 0, -2, -6, 0
1503514030451,0, -1, 0, 0, 0, -2, -4, -3, 0
1503514030467,-2, -2, -2, -1, 0, 1, 0, -1, 0
1503514030496,-3, -3, 0, -1, 0, 0, -2, -4, 0
1503514030512,0, -2, -2, -2, -3, -2, 0, 1, 0
1503514030527,1, -2, 1, -1, -1, -1, -1, 2, 0
1503514030550,-1, -1, -1, 0, -2, 0, 2, 2, 0
1503514030571,-1, -1, -2, -1, -2, -1, 2, -2, 0
1503514030587,-1, 0, 0, -2, 0, -1, -1, -1, 0
1503514030609,0, 0, -2, 0, 0, -1, 0, 0, 0
1503514030631,-3, -1, 1, 1, -1, -1, 0, -6, 0
1503514030647,1, 1, -1, -1, -1, 0, -2, -2, 0
1503514030670,-2, 0, 0, 1, 0, -2, -2, -1, 0
1503514030694,0, 1, -1, 0, -1, 0, 0, 1, 0
1503514030707,-1, -4, -1, -1, -1, -2, -1, 1, 0
1503514030729,-1, 1, -2, -1, -1, -1, 0, 0, 0
1503514030737,-3, -2, -1, -1, -2, -1, -1, -1, 0
1503514030761,0, 3, 0, -2, 0, 0, 0, -1, 0
1503514030781,0, -1, -3, 0, -2, -1, -1, -2, 0
1503514030797,1, -2, 0, -1, -2, 0, 0, 0, 0
1503514030819,0, 1, 0, -1, -1, -2, 0, -2, 0
1503514030842,1, 1, -1, 0, 0, -1, -1, -1, 0
1503514030856,-2, -3, -1, 0, -2, -1, 1, 0, 0
1503514030872,-1, -1, 0, -1, -3, 0, -3, -4, 0
1503514030887,-1, -2, -2, -1, -1, -1, 0, -1, 0
1503514030910,0, 2, 0, -1, -1, -3, 0, 2, 0
1503514030932,-2, 2, 2, 1, 1, 0, 0, -1, 0
1503514030947,3, 1, -1, 0, -1, 1, 1, 1, 0
1503514030970,0, 0, -1, -1, -1, 0, 0, 1, 0
1503514030977,1, 1, -1, -1, 0, 0, 0, 1, 0
1503514030999,-1, -2, -2, -2, -2, -2, -3, 0, 0
1503514031022,0, -2, -3, 1, 0, 0, 1, 3, 0
1503514031037,-2, 1, 0, 1, -2, 0, -4, -2, 0
1503514031060,1, -1, 0, -2, -1, -2, 0, 0, 0
1503514031081,0, -2, -2, -1, -1, 0, -1, -1, 0
1503514031105,-2, 0, -1, -2, -1, 1, 0, -1, 0
1503514031120,0, -1, 0, 0, -1, -2, 0, -1, 0
1503514031142,-6, -3, -2, -2, -1, 0, -1, -5, 0
1503514031164,0, -1, 1, 0, -1, -1, -1, 4, 0
1503514031179,1, 0, -1, -2, -1, -2, 0, -2, 0
1503514031202,-2, 0, 0, -2, -2, -1, -3, -2, 0
1503514031224,0, -1, -2, -1, 2, 0, -1, -2, 0
1503514031241,-1, 0, 0, 0, -1, 1, 0, 1, 0
1503514031262,-3, 0, -2, -1, -1, -1, -2, -1, 0
1503514031284,-2, -2, 0, 0, 0, -1, -2, 0, 0
1503514031300,0, -2, -1, 0, -1, -2, -1, -1, 0
1503514031322,0, 0, 0, 1, 0, -1, -1, 1, 0
1503514031344,-1, 1, -1, -2, -1, -3, -2, -1, 0
1503514031360,1, 0, 1, -2, 0, -2, 0, 1, 0
1503514031381,-1, 0, -1, 0, -1, 1, -1, -1, 0
1503514031404,-2, 0, -1, 1, -1, -1, 1, -1, 0
1503514031419,-1, -2, -1, 0, -2, -1, -2, -4, 0
1503514031442,1, 0, 0, 0, -1, 0, 1, -2, 0
1503514031466,0, -1, 0, 0, 0, -1, 0, -3, 0
1503514031479,0, -2, -3, -2, 2, -1, 1, 4, 0
1503514031501,-2, -3, -3, -2, -2, -1, -2, -2, 0
1503514031524,0, 0, -2, -1, -1, 1, -2, 1, 0
1503514031539,0, -2, 1, -1, -1, -2, -1, 0, 0
1503514031561,-1, -1, -2, 1, 1, 0, -1, -3, 0
1503514031584,-1, -1, -1, -2, -1, -1, 1, -1, 0
1503514031601,-2, 1, 0, 0, -1, 0, -1, -2, 0
1503514031621,1, -1, -1, 0, 0, 0, -2, 1, 0
1503514031644,-1, -3, -2, -2, 0, 0, -1, -1, 0
1503514031659,1, -2, -1, -2, -2, -1, 1, -1, 0
1503514031681,0, 0, -1, 0, -1, -1, -1, -1, 0
1503514031704,-1, -1, -1, -1, -1, 0, 0, 0, 0
1503514031719,-1, 0, 0, -1, -1, 0, 0, 0, 0
1503514031742,0, 0, -2, 0, 0, -2, 0, 1, 0
1503514031764,-5, 0, -1, 0, -2, -1, -2, -2, 0
1503514031779,-24, -17, -1, 1, 2, 0, 0, -4, 0
1503514031802,5, 3, 0, -1, -2, -2, 0, -2, 0
1503514031824,-2, -8, -1, -1, -1, -1, -2, -2, 0
1503514031840,2, 0, -1, 2, 1, 0, 0, 1, 0
1503514031861,7, 9, 5, 28, 22, 10, 1, 2, 0
1503514031884,8, 3, -4, -24, -21, -8, -3, -5, 0
1503514031899,-10, -8, -3, -6, -7, -5, -4, -8, 0
1503514031921,10, 12, -4, 3, -1, -6, -2, 7, 0
1503514031944,-3, -6, -8, -11, -10, -4, -7, -5, 0
1503514031959,3, -4, 1, -1, 2, 3, 0, -1, 0
1503514031981,4, 13, 7, 29, 39, 21, 6, 3, 0
1503514032004,-13, -9, -6, -28, -35, -19, -6, -9, 0
1503514032026,0, -1, 8, -15, -22, -10, -13, 0, 0
1503514032041,0, -15, 13, -1, -2, -4, -1, -11, 0
1503514032056,3, 5, 0, 4, -9, -10, -7, -3, 0
1503514032073,1, -3, -11, 1, -15, 0, 7, 3, 0
1503514032094,2, -2, -1, 0, -6, -4, -1, 1, 0
1503514032116,7, -12, -42, -15, -15, -15, -4, 1, 0
1503514032132,0, -9, 2, 12, 12, 5, -2, -2, 0
1503514032154,-23, -12, -2, -8, -4, 2, -3, -10, 0
1503514032176,4, 18, 19, 1, -18, -3, 1, 2, 0
1503514032192,-9, 3, 21, 53, 39, 15, 5, -3, 0
1503514032214,12, 16, 8, -29, -49, -17, -5, 3, 0
1503514032238,9, 3, 9, -14, 4, 9, 4, 1, 0
1503514032253,-15, -23, -1, -25, -24, -16, -8, -10, 0
1503514032274,25, 17, -16, -7, -4, -9, -8, 0, 0
1503514032296,55, 30, 0, 5, 29, 6, -3, 3, 0
1503514032312,-18, -11, 2, -16, -18, -1, 4, 2, 0
1503514032334,-22, 1, 10, 7, 10, 6, 7, -4, 0
1503514032342,0, -19, -17, -18, -15, -1, -4, -3, 0
1503514032372,10, 23, 12, -19, -32, -16, 0, -5, 0
1503514032386,7, -15, 3, -1, -5, -4, -2, 8, 0
1503514032401,-1, -29, -8, -6, -19, -11, -8, -1, 0
1503514032424,1, 54, 50, 20, 18, 3, 10, 10, 0
1503514032446,9, -13, -23, -3, -9, -16, -2, 1, 0
1503514032462,7, -16, -23, -6, 8, 7, 6, 11, 0
1503514032484,-29, -32, 16, 0, -14, 7, 9, 3, 0
1503514032506,17, 97, -24, -21, 9, 2, -6, -19, 0
1503514032521,-14, -28, -17, -7, -22, -49, -23, -22, 0
1503514032544,-16, -73, -38, 16, -7, -39, -33, -38, 0
1503514032566,-16, 18, 18, -2, -15, 12, 5, 39, 0
1503514032582,-11, -11, 6, -44, -65, -9, 7, 11, 0
1503514032604,-4, 36, 27, 47, 51, 42, 5, -3, 0
1503514032625,21, -4, 4, -3, 13, 26, 17, 64, 0
1503514032649,-47, -35, -16, -10, -19, -9, -20, -87, 0
1503514032664,30, 22, 9, 6, 13, -16, 3, 33, 0
1503514032686,22, 15, 10, 29, 35, 10, 10, -3, 0
1503514032701,6, 11, 6, -17, -11, -2, -1, -2, 0
1503514032724,0, -11, -16, -6, 2, 14, -3, -16, 0
1503514032746,7, 5, -1, -1, -7, 3, 0, 10, 0
1503514032761,4, 10, 8, -2, 0, 1, 3, 1, 0
1503514032784,5, -1, -3, -4, -1, 0, -2, -3, 0
1503514032809,-2, 6, 7, -2, -1, -2, -3, -4, 0
1503514032821,0, -5, -6, -3, -5, -1, 0, -1, 0
1503514032844,-3, -6, -5, 0, 2, -1, -2, -2, 0
1503514032866,1, 1, -1, -1, 4, 0, 1, 5, 0
1503514032881,0, -3, 0, 1, 5, 2, 3, 1, 0
1503514032904,0, 4, 5, 0, -1, 0, 0, 1, 0
1503514032926,1, 0, -1, -5, -2, -1, 0, -3, 0
1503514032948,3, 1, -1, -3, 1, 3, 3, 3, 0
1503514032964,1, -2, 0, -2, -5, -3, -2, 0, 0
1503514032986,1, -2, -4, 1, 1, -1, 0, -1, 0
1503514033011,-1, -1, -3, -2, -2, -1, -1, -2, 0
1503514033024,-1, 0, -1, 11, 13, 2, -1, -1, 0
1503514033046,0, -2, -2, -15, -13, -4, -3, -4, 0
1503514033068,-3, -4, -7, 1, 0, 1, 0, 1, 0
1503514033085,0, 2, 1, -2, 0, 0, -6, -5, 0
1503514033106,0, 0, -1, 4, 4, -1, 1, 2, 0
1503514033128,0, 0, 1, -2, -3, -3, 0, 0, 0
1503514033144,-4, -3, -4, -7, -1, 1, 0, -1, 0
1503514033166,0, 1, 4, 0, -1, -2, -2, -3, 0
1503514033188,-1, -2, -7, -1, 1, -2, 1, 0, 0
1503514033204,0, -1, 2, -1, -2, -1, -1, 0, 0
1503514033226,3, 11, 13, 6, 2, 1, 2, 1, 0
1503514033248,-1, -2, -1, 0, -1, -1, -3, -1, 0
1503514033264,-1, -3, 1, 5, 3, 1, 1, -2, 0
1503514033287,-1, -2, -2, -4, -3, -1, 1, 0, 0
1503514033308,-1, -5, -1, -4, -3, -1, -2, -1, 0
1503514033324,-1, 1, -2, -3, 0, -1, -3, -2, 0
1503514033347,-3, -4, -2, -4, -2, 1, 2, -1, 0
1503514033368,3, 11, 19, 8, 3, 0, -1, 1, 0
1503514033384,-5, -10, -15, -6, -4, -1, -2, -4, 0
1503514033406,6, 3, -7, -1, -3, -2, -3, -1, 0
1503514033428,0, 15, 13, 8, 4, -1, 1, 2, 0
1503514033450,-2, -7, -7, -5, -2, 1, 3, 2, 0
1503514033466,-5, -2, -2, 0, -2, -2, -5, -3, 0
1503514033488,-1, 2, 1, 0, 0, -2, -2, -2, 0
1503514033504,5, -4, -7, 2, 1, 0, 1, 1, 0
1503514033527,-4, -5, -6, -4, -3, 0, -3, 0, 0
1503514033549,0, -2, 2, 0, -3, -1, 0, -3, 0
1503514033564,1, 9, 3, -3, -3, -2, 0, -3, 0
1503514033586,0, 10, 8, -2, -2, -1, -1, -2, 0
1503514033594,-2, -1, -2, 0, -2, -1, -1, 0, 0
1503514033616,-4, -13, -8, -5, -3, 0, 0, 1, 0
1503514033639,1, 10, 13, 11, 1, 0, -2, -2, 0
1503514033655,-1, -13, -14, -8, -3, -2, 1, 1, 0
1503514033676,2, 9, 12, 5, 0, 0, 0, -3, 0
1503514033699,2, 3, 1, 3, 2, -1, -2, -3, 0
1503514033716,-2, -6, -7, -7, -2, 1, 1, 2, 0
1503514033736,-6, -1, -1, -5, -4, -1, 1, -1, 0
1503514033759,-2, 0, -1, 0, -1, -1, -1, -4, 0
1503514033774,-3, -12, -9, -4, 0, -1, 0, 4, 0
1503514033796,0, -6, -1, -2, -2, -1, -1, -2, 0
1503514033819,4, 13, -2, 1, 0, 2, 2, 1, 0
1503514033834,1, -3, -7, -8, -5, -2, -5, -8, 0
1503514033857,-2, -1, -2, 1, 2, 1, 0, 0, 0
1503514033879,0, -2, 0, -2, -2, -2, -1, -1, 0
1503514033902,28, 8, 5, -3, -2, 0, -4, 1, 0
1503514033916,-10, -8, -3, -2, -1, 1, 7, 2, 0
1503514033939,-5, 0, -3, -2, -1, -2, -3, -3, 0
1503514033961,-9, -6, 3, 2, 1, 1, -5, 0, 0
1503514033977,-11, -9, 0, 5, 4, -1, 0, 1, 0
1503514033999,-3, 4, 14, 2, 0, 1, -1, -6, 0
1503514034021,-2, -9, -1, 0, 0, 0, 1, 4, 0
1503514034028,-2, -6, -1, -2, -1, -3, -3, -3, 0
1503514034059,-7, -8, -7, -7, -4, -1, 1, -3, 0
1503514034066,-2, -3, -5, -4, -1, -3, -2, -4, 0
1503514034088,-4, 0, 7, 0, -4, -4, 0, -1, 0
1503514034111,-3, 3, 1, -3, 0, 0, -1, -2, 0
1503514034126,1, -1, -2, 0, -1, 1, -1, 2, 0
1503514034148,0, -3, -6, -3, -2, -1, 1, 0, 0
1503514034170,-2, 4, 3, 1, 1, 1, 0, 0, 0
1503514034186,0, 0, -1, -1, 0, -3, -3, -2, 0
1503514034208,2, 12, 6, 3, -1, -1, -4, -2, 0
1503514034231,0, -4, -2, -2, -2, -2, -1, 1, 0
1503514034246,-1, -6, -5, -1, 0, 0, 0, -2, 0
1503514034268,-1, -4, -3, -3, -4, -2, -1, -1, 0
1503514034291,2, 1, 3, 2, 1, -2, -3, -2, 0
1503514034306,-2, -6, -7, -4, -2, 0, 0, -1, 0
1503514034328,1, 1, -4, -4, -3, 0, -1, 0, 0
1503514034354,0, -2, -2, -1, 1, 0, -4, -1, 0
1503514034366,-3, -4, -1, -1, 0, 0, -1, 0, 0
1503514034390,1, -8, -10, -4, -3, 0, 2, -2, 0
1503514034411,5, -2, 1, -1, -1, -2, -1, 2, 0
1503514034434,-10, -3, 3, 3, 0, 0, 1, -4, 0
1503514034449,1, -1, -4, 4, 3, -1, -1, 0, 0
1503514034457,-13, -10, -3, -4, -2, 0, -1, -5, 0
1503514034479,0, 1, -4, 0, -2, -4, -3, -1, 0
1503514034501,-3, -9, 1, -1, -3, -3, 2, 0, 0
1503514034516,-20, -15, -6, -2, -2, 1, 0, -8, 0
1503514034539,-8, -5, -2, 11, 5, 3, -5, 1, 0
1503514034562,-8, -3, 0, -4, -10, 1, 9, -4, 0
1503514034577,8, 7, 1, 0, 0, -2, -4, 0, 0
1503514034599,24, 18, -3, 0, 5, 3, 1, 8, 0
1503514034622,11, 6, 10, 3, 3, 0, 2, -3, 0
1503514034636,-7, -6, -11, -6, -2, -1, -1, 0, 0
1503514034659,-3, -2, -4, -4, -5, -3, -2, 0, 0
1503514034681,-5, -6, -10, -3, 0, -4, -9, -1, 0
1503514034697,-3, -20, -7, -6, 0, -2, -6, -13, 0
1503514034719,-12, -8, -2, 0, 5, -2, -3, -11, 0
1503514034741,-6, -7, -7, -9, -6, 2, 4, 10, 0
1503514034756,10, 18, 8, 6, -1, 0, -3, -2, 0
1503514034779,3, -3, 2, 3, 1, -1, 5, 6, 0
1503514034801,2, 16, 9, 5, 4, 4, -1, -2, 0
1503514034824,1, 1, 3, -2, -2, -1, -2, 6, 0
1503514034839,-3, -11, -2, -4, -3, -1, -3, -2, 0
1503514034862,3, 9, 1, -3, -2, -2, 0, 2, 0
1503514034884,3, -12, -10, 4, 0, -3, -2, -3, 0
1503514034900,-6, -1, 5, 2, -2, -1, -2, -7, 0
1503514034923,11, 5, -3, 1, 1, -1, 3, 4, 0
1503514034931,-7, 2, -1, -2, -1, -1, 3, -10, 0
1503514034960,-1, -7, 0, -5, -3, -1, 6, 19, 0
1503514034981,-3, -4, -5, -6, -5, 0, -8, -7, 0
1503514035004,-5, -6, 1, 0, 2, -3, -6, -9, 0
1503514035019,5, 4, 0, -3, 1, 7, 20, 10, 0
1503514035041,7, -8, -5, 5, 2, 3, 7, 4, 0
1503514035064,-23, -10, -5, -2, -1, -1, -2, -12, 0
1503514035079,-12, -5, 19, 4, 0, -2, 0, -9, 0
1503514035102,-2, 1, -6, -3, -1, -3, -3, -1, 0
1503514035125,5, 15, -1, 1, 0, -5, -14, -16, 0
1503514035139,14, 13, 0, -2, -5, -4, -4, 3, 0
1503514035163,-5, 2, 2, -3, -2, -1, 1, -3, 0
1503514035184,1, -12, -17, -6, -4, 0, 0, 3, 0
1503514035214,10, 8, 1, 4, 2, 2, 5, 14, 0
1503514035221,7, -2, -12, -8, -5, -2, -3, 0, 0
1503514035244,-20, 1, 5, 6, 4, 0, 0, -13, 0
1503514035260,1, -4, -3, 1, 2, -3, -1, 9, 0
1503514035282,6, 21, 11, 1, 0, 2, -1, -4, 0
1503514035304,12, -23, -16, -12, -5, -3, -1, 1, 0
1503514035319,-12, -15, -6, 1, -1, 0, 1, -1, 0
1503514035341,8, 3, 3, 1, -2, -1, 0, 4, 0
1503514035364,-21, -15, -6, -1, 1, -1, -1, -3, 0
1503514035372,7, -10, -3, -1, -1, -2, -2, 0, 0
1503514035401,13, 14, 10, 2, 1, 0, 0, 0, 0
1503514035416,15, 7, 3, 3, 1, -1, -2, -7, 0
1503514035432,-10, -13, -3, -5, 0, -4, -1, -9, 0
1503514035454,-6, -4, 4, -1, 0, 1, 1, 3, 0
1503514035476,-3, -27, -19, 0, 0, 1, -1, -11, 0
1503514035494,-36, -19, -22, -8, -6, -6, -12, -30, 0
1503514035514,20, 17, 6, -1, 1, 9, 1, 10, 0
1503514035536,-19, -8, 6, 0, -2, -1, 4, -2, 0
1503514035552,7, 5, -3, -2, -2, 0, 1, -4, 0
1503514035574,-14, -4, 3, 1, -2, -3, 3, 40, 0
1503514035597,15, 3, -10, -5, -2, -1, 1, 0, 0
1503514035612,-1, -4, 5, 6, 1, 0, 1, 5, 0
1503514035634,-5, -12, -2, 2, 0, -2, 1, 39, 0
1503514035657,11, 15, -5, -7, -5, -4, -7, -25, 0
1503514035672,34, 42, 34, 11, 6, 3, 2, -3, 0
1503514035695,9, 5, -5, 0, -3, -2, -1, -14, 0
1503514035717,-7, -14, -3, -3, -1, -1, -3, -6, 0
1503514035732,14, -5, -8, -5, 2, 1, 1, -6, 0
1503514035754,-3, -3, -1, 1, 0, 1, 1, 0, 0
1503514035776,-30, -9, -2, -4, -1, -3, 0, -2, 0
1503514035792,6, -11, -6, -4, 5, 0, -3, -1, 0
1503514035814,-7, -9, -11, -10, -15, -5, -6, -4, 0
1503514035836,-18, -9, -3, 1, 9, 2, 2, 2, 0
1503514035852,-2, 1, 2, 0, -5, -7, 0, -1, 0
1503514035874,-4, 7, 7, -5, -10, 2, -1, -3, 0
1503514035897,22, 7, -2, 6, 8, 0, 0, 3, 0
1503514035912,8, 3, 3, 2, 0, -2, -1, 1, 0
1503514035934,21, 4, 0, 1, 2, 1, 0, 2, 0
1503514035957,-3, 0, 10, 28, 25, 4, 0, -4, 0
1503514035972,-13, -8, -5, -13, -12, 1, 2, -1, 0
1503514035994,-18, -11, -11, -8, -3, -2, 2, 11, 0
1503514036016,-4, 3, 7, -1, -4, -3, -4, 2, 0
1503514036032,-15, -5, -2, -6, -7, -4, -4, -9, 0
1503514036054,2, 2, 3, 1, 8, 1, -5, -13, 0
1503514036076,0, -2, -1, -4, -5, 0, 0, 0, 0
1503514036092,0, -2, -2, 2, 1, 0, 2, -6, 0
1503514036114,-1, 0, 0, -1, -6, -2, -3, 2, 0
1503514036136,-12, 2, 2, 1, 1, -3, 4, 3, 0
1503514036152,0, 3, -2, -5, -6, -2, -2, -4, 0
1503514036174,7, -13, -13, -6, -4, -1, 1, 2, 0
1503514036196,5, -2, 2, -1, -2, -1, 0, -1, 0
1503514036212,11, 7, 1, 0, 0, -1, 0, 5, 0
1503514036234,4, 0, -5, -2, -3, -2, -3, -3, 0
1503514036256,-11, -1, 2, -1, -4, -2, -3, 0, 0
1503514036272,20, 22, 3, 0, 1, -1, -1, 3, 0
1503514036294,-3, -2, 0, 0, 0, 2, 0, -1, 0
1503514036317,5, -1, 2, -1, -2, -1, -4, -7, 0
1503514036324,-9, -9, -7, -4, -2, -2, -2, -7, 0
1503514036346,7, 0, -6, -1, 1, -1, -3, 1, 0
1503514036361,-5, -5, 0, 0, -2, 1, 0, 3, 0
1503514036383,1, 0, 1, 1, 1, 0, -1, -1, 0
1503514036406,1, -1, 0, -1, 0, 2, 1, 3, 0
1503514036421,11, 7, 2, 2, 0, -2, -3, -3, 0
1503514036438,-9, -5, -3, 0, 4, -1, 1, 0, 0
1503514036460,8, 12, 9, 3, -2, 0, 0, 3, 0
1503514036476,2, -7, 1, 3, 2, 1, -3, -9, 0
1503514036496,-6, -3, 0, -4, -3, -2, 0, -1, 0
1503514036514,-4, -6, -6, -7, -4, -1, -1, 3, 0
1503514036535,-10, -6, -3, 0, 5, 2, 1, 2, 0
1503514036556,2, -1, -3, -4, -4, -2, 0, -3, 0
1503514036572,-2, 0, -2, -6, -8, -3, 0, -3, 0
1503514036594,-2, -5, -4, -1, -5, -1, -2, 0, 0
1503514036616,30, 21, 1, -3, -3, -4, -5, 1, 0
1503514036632,-11, 2, 10, 5, 2, 0, 0, -10, 0
1503514036655,-8, -1, 1, -1, -2, 0, -2, -2, 0
1503514036678,9, 4, -1, 1, 1, -1, -1, 0, 0
1503514036700,-3, -3, 4, 1, -1, -1, 1, 2, 0
1503514036714,-9, -6, -2, -4, -5, -2, -1, -2, 0
1503514036736,-5, 2, 5, 3, 3, 1, 0, -4, 0
1503514036759,-9, -2, 0, 6, 5, 0, 1, 5, 0
1503514036774,-3, -6, -3, -2, 0, 2, 0, 1, 0
1503514036796,5, -10, -9, -9, -8, -1, 0, 0, 0
1503514036819,-8, -7, -1, -4, -2, -1, -1, 0, 0
1503514036836,1, -1, -6, -2, 1, -2, -2, -2, 0
1503514036857,-6, 6, 0, -4, -5, -3, -1, -2, 0
1503514036879,-2, 1, 3, 9, 5, 2, -1, 2, 0
1503514036894,7, 0, -9, -1, 0, -1, -2, 0, 0
1503514036917,-1, 0, -3, -2, -1, -1, -2, -3, 0
1503514036939,4, 0, 3, -4, -3, 0, 0, -1, 0
1503514036954,-7, -9, -2, -1, 0, -1, -2, -4, 0
1503514036977,6, 3, 2, 2, 2, 1, -1, 3, 0
1503514036999,6, 6, 4, 0, -1, -5, -3, -3, 0
1503514037014,14, 9, -2, -1, -2, -1, -2, 3, 0
1503514037038,-13, -10, -7, -2, 0, 0, -2, -4, 0
1503514037059,23, 22, 5, 2, -3, -2, 0, -1, 0
1503514037074,-8, -1, 1, 0, -1, 1, 2, 4, 0
1503514037097,-6, -9, -9, 1, 1, -1, -1, -4, 0
1503514037119,-18, -10, 3, -2, 10, 5, 0, -3, 0
1503514037134,-14, -7, -5, -4, -11, -22, 0, 3, 0
1503514037157,5, -7, -6, -1, 1, 4, -2, -8, 0
1503514037179,15, 7, -6, -6, -4, -4, -7, -8, 0
1503514037186,-5, -4, -3, -6, -12, 1, 6, -1, 0
1503514037209,-14, -12, -5, -1, -4, -1, 1, 1, 0
1503514037224,5, 1, -5, 2, 6, 0, -1, -2, 0
1503514037246,-17, -6, -3, -12, -14, -18, -5, -10, 0
1503514037269,7, 0, -2, 0, 7, 7, -2, -2, 0
1503514037284,1, 8, 2, 1, 2, 3, 1, 5, 0
1503514037307,7, -5, -4, -4, -8, -2, -1, 4, 0
1503514037329,-8, -9, -6, -11, -22, -6, -5, 2, 0
1503514037344,5, 2, 0, 11, 22, 7, 1, -1, 0
1503514037366,-11, 13, 10, 0, -5, -4, -13, -36, 0
1503514037389,1, 13, 11, 5, 7, 3, 4, 9, 0
1503514037404,14, -4, -8, 0, 7, 2, 5, 4, 0
1503514037426,-8, -11, -4, 5, 10, 4, 2, 2, 0
1503514037449,-16, -13, -7, -8, 0, 1, 1, -10, 0
1503514037464,6, -3, 0, 3, -4, -4, -5, 14, 0
1503514037486,0, -6, -1, 3, -1, 0, -1, -2, 0
1503514037509,-12, -4, -1, 1, -1, 0, -2, -10, 0
1503514037524,21, 6, -2, 0, -1, -5, -3, 1, 0
1503514037546,1, 3, 2, -4, -4, 2, 1, 2, 0
1503514037569,-12, -7, -6, -12, -22, -2, -1, -18, 0
1503514037590,4, -1, 1, 0, 6, 10, 2, 23, 0
1503514037606,15, 5, 0, 0, 3, -5, 3, 19, 0
1503514037621,2, 7, 7, 2, 4, 0, 1, 14, 0
1503514037637,-2, -6, -7, 2, -2, -2, -3, -9, 0
1503514037659,-3, -3, -1, -1, -4, -11, 4, 10, 0
1503514037681,-7, -8, -3, 1, 1, -1, -1, 14, 0
1503514037698,2, 0, 0, 4, 9, 13, 6, 0, 0
1503514037719,-13, -7, -4, -1, 0, 2, -4, -12, 0
1503514037747,9, 5, 0, 0, -1, 1, 3, 17, 0
1503514037764,5, 4, 4, 1, 1, 1, 4, 20, 0
1503514037780,-6, -2, -6, -2, 0, -2, -3, -50, 0
1503514037801,-2, 0, 0, -3, 0, -2, 1, 3, 0
1503514037817,-1, -1, -1, -4, -6, -3, 2, 8, 0
1503514037839,6, -4, -2, -1, 0, 2, 1, 3, 0
1503514037861,3, -10, -7, -5, -4, -2, 2, 13, 0
1503514037878,-6, -1, 3, 4, 2, 0, 1, 7, 0
1503514037898,8, -8, -10, -4, -3, 0, -4, 1, 0
1503514037921,-10, -10, -4, 0, 0, 0, -1, -20, 0
1503514037937,-19, 3, 3, -1, -3, -1, -5, -48, 0
1503514037958,1, 16, 16, 7, 3, 2, 4, 15, 0
1503514037981,0, 1, -2, -4, -1, -2, -3, -15, 0
1503514037996,0, -1, 0, -1, -2, -2, 0, -11, 0
1503514038011,-1, 3, -1, -3, -2, 0, -1, 0, 0
1503514038026,-8, -6, 1, 2, 0, -1, -1, -1, 0
1503514038049,-7, -3, -4, -2, -3, 0, 2, 4, 0
1503514038071,-9, -10, 0, 0, 3, 0, 1, 15, 0
1503514038087,9, 3, -2, -1, -2, 0, 0, 10, 1
1503514038102,-12, -4, -3, 3, 3, -3, -3, -10, 1
1503514038117,11, 1, -2, -3, -1, -3, 0, 30, 1
1503514038139,3, -2, 2, 0, 1, -1, -2, -7, 1
1503514038161,-6, -2, 0, -5, -5, -2, -3, -6, 1
1503514038178,17, 10, -2, -1, 0, 2, 4, -1, 1
1503514038191,-5, 3, 6, 0, -2, -1, -3, 2, 1
1503514038199,-5, -1, 4, 1, -8, -13, -2, -4, 1
1503514038222,-6, -5, -8, -7, -3, 3, -2, -5, 1
1503514038237,2, 1, -4, -2, 0, -2, 0, 5, 1
1503514038259,9, 6, 2, 2, 2, 3, 1, 4, 1
1503514038281,9, 5, 1, 5, -1, -14, -2, 2, 1
1503514038297,-4, -4, -4, -5, -18, 0, 2, 21, 1
1503514038319,7, -4, -1, 1, 5, -3, -1, 28, 1
1503514038341,-19, -10, -5, -1, 2, -2, 6, 26, 1
1503514038358,-9, -2, 1, 1, 3, -4, -4, -26, 1
1503514038381,-2, -4, -6, -5, 2, 7, -1, -24, 1
1503514038402,-25, -6, 0, 2, 6, 8, -2, -22, 1
1503514038419,4, -8, -5, -2, 2, 5, 3, 15, 1
1503514038439,6, 14, 8, 0, -1, -1, -2, 4, 1
1503514038462,21, 10, 2, -3, -4, 0, 0, -1, 1
1503514038477,-8, -10, -2, -4, -4, 0, -2, 2, 1
1503514038499,27, 10, 2, -1, 3, 3, 3, 32, 1
1503514038517,2, 4, 7, 2, 0, 2, 3, 40, 1
1503514038529,-6, 1, 1, -2, -2, -3, -2, 5, 1
1503514038551,-7, -11, -8, -1, 4, -6, -5, -22, 1
1503514038573,-28, -12, -2, 3, -4, -5, -6, -36, 1
1503514038589,11, 1, -3, -5, -5, -3, -2, 15, 1
1503514038610,18, 7, -7, -4, -2, -3, 0, -5, 1
1503514038633,-31, -19, -6, -4, 2, 8, 1, -31, 1
1503514038649,2, 0, -1, 0, 1, -2, -1, 12, 1
1503514038670,0, 0, 7, 4, 2, 6, -2, -11, 1
1503514038693,-13, -7, -6, -3, -2, 2, -3, -73, 1
1503514038708,6, 8, 2, -4, -3, -5, -3, 23, 1
1503514038730,-3, -5, -3, -2, -2, -3, -1, 1, 1
1503514038755,19, 7, 1, -2, -5, 0, 1, 26, 1
1503514038769,-4, -2, 3, 0, -5, -4, -4, -3, 1
1503514038791,-6, -2, 2, -2, -9, -5, 2, 13, 1
1503514038813,1, -6, -1, 3, 17, -5, 3, 25, 1
1503514038829,0, -3, 0, 1, -3, -2, 0, 3, 1
1503514038852,-2, -3, -8, -8, -7, -2, -1, 4, 0
1503514038873,-8, -5, -5, -2, -2, 1, 2, 8, 0
1503514038889,6, 3, 4, 7, 4, 1, 0, 4, 0
1503514038910,3, 2, -2, -6, -5, 0, 0, -5, 0
1503514038933,10, 1, 2, 0, -2, 1, -1, -1, 0
1503514038949,-5, 2, 0, -6, 2, 0, -5, -8, 0
1503514038970,-10, -2, -7, -10, -11, -2, 1, -14, 0
1503514038995,-16, -1, 1, 0, 3, 2, 3, -3, 0
1503514039019,7, 12, 6, 3, 3, -2, 1, 5, 0
1503514039025,-1, 3, 0, 7, 8, 3, 1, -2, 0
1503514039040,4, 6, 3, -4, 0, -2, 4, 5, 0
1503514039062,1, -9, -8, -4, -2, 3, 7, 13, 0
1503514039086,-5, -9, -9, 0, -1, 1, -1, -10, 0
1503514039099,-7, -17, -4, -2, -3, 2, -2, -5, 0
1503514039122,5, 11, 1, -4, -1, -3, -2, 0, 0
1503514039144,-6, 4, 3, -5, -5, -1, 0, -2, 0
1503514039159,-6, 3, 13, 4, 0, -4, -5, -11, 0
1503514039181,-2, -13, -5, 0, 0, -2, 0, 4, 0
1503514039204,4, 0, -3, 0, -3, -1, -2, -3, 0
1503514039220,0, -2, -6, -3, 0, 2, 2, 6, 0
1503514039241,-2, -4, -5, -1, -1, -3, -7, -9, 0
1503514039264,4, -2, -6, -6, -4, 0, 3, 0, 0
1503514039279,-4, 2, -3, -5, 0, 1, 2, -4, 0
1503514039301,0, 0, -8, -3, -2, -1, -2, 1, 0
1503514039325,4, -2, -1, 7, 4, -1, -5, -6, 0
1503514039339,-2, -3, -3, -3, -2, -1, 0, 6, 0
1503514039361,-6, 3, 8, 0, -1, 0, 2, -9, 0
1503514039384,3, -6, -7, 3, 4, -2, -1, -3, 0
1503514039400,4, 11, 0, -6, -4, -2, -1, 0, 0
1503514039422,-3, 0, 1, -1, -1, 1, 0, 0, 0
1503514039444,-3, -8, -3, 1, 1, 1, 5, 2, 0
1503514039466,3, 26, 5, -4, -5, -1, -5, -5, 0
1503514039481,-2, -11, 0, -2, -5, -1, -2, 6, 0
1503514039504,-2, -10, 1, -5, -3, -1, -2, -1, 0
1503514039526,-8, -11, -10, -6, -5, -2, 2, -5, 0
1503514039541,0, -10, -2, 3, 3, 0, 2, 0, 0
1503514039566,3, -9, -4, 5, 4, -1, -1, 2, 0
1503514039586,1, -1, 1, -1, -4, -4, -6, -5, 0
1503514039601,-2, 6, 2, 9, 6, 3, 4, 7, 0
1503514039625,2, -2, -2, -7, -6, -3, -5, -4, 0
1503514039646,-6, -15, 6, 2, 2, -1, 0, 7, 0
1503514039661,-4, -12, -5, -5, -4, -2, -3, -16, 0
1503514039683,-4, -9, -6, -5, -5, -4, -4, -8, 0
1503514039699,-1, -3, -4, -4, -5, -2, 0, -3, 0
1503514039714,0, 4, 1, 1, -1, -4, -5, -1, 0
1503514039737,3, -4, 0, 0, -1, 1, 5, 20, 0
1503514039761,-3, -2, 8, 9, 8, 3, 2, -1, 0
1503514039774,1, -6, 9, 7, 5, 1, 3, 1, 0
1503514039797,-3, -8, -5, -1, 0, -3, -4, -12, 0
1503514039819,0, -5, 1, 7, 2, -1, -2, 2, 0
1503514039826,-1, 9, 8, 19, 17, 4, 4, 3, 0
1503514039841,-5, -1, -3, -5, -2, -2, 0, -7, 0
1503514039864,0, -3, -3, -1, -3, -1, -3, 4, 0
1503514039887,-3, 0, 0, -1, -4, -2, 0, -13, 0
1503514039901,3, 4, 6, 9, 12, 3, 1, -2, 0
1503514039926,-9, 1, -1, -5, -5, -2, 0, -22, 0
1503514039946,-1, -5, -2, -6, -7, -3, -2, 4, 0
1503514039962,1, 1, 0, 0, 0, -3, -3, 7, 0
1503514039984,-1, 7, 1, -4, -5, -1, 5, 15, 0
1503514040006,-5, -8, -9, -6, -5, -2, 1, 9, 0
1503514040021,0, 3, -1, -4, -1, 0, -2, -3, 0
1503514040043,-1, -3, 0, 3, 2, 2, -5, -7, 0
1503514040067,2, 3, 6, 5, 7, 1, 1, 13, 0
1503514040081,6, -18, -4, 3, 1, 2, 9, 33, 0
1503514040104,-2, 0, 0, 0, 1, -2, -3, -3, 0
1503514040127,0, 7, 4, 4, -1, 0, -2, -7, 0
1503514040141,-5, -1, -5, -9, -7, -6, -5, -13, 0
1503514040165,-3, 0, 0, 2, -1, 0, 2, -5, 0
1503514040186,-2, 7, 0, -2, -3, -1, -1, 1, 0
1503514040201,1, -1, -2, -6, -4, -4, -5, -12, 0
1503514040224,4, 0, 0, -3, -12, -8, -1, 2, 0
1503514040246,-2, -3, -3, -5, 3, 1, 0, -11, 0
1503514040263,-3, 19, 9, -4, -3, -1, -2, -24, 0
1503514040284,-2, -1, -2, -3, -1, -2, -3, 8, 0
1503514040306,-2, -12, -10, -8, -5, 2, 1, 3, 0
1503514040337,3, 2, 2, -5, -5, -5, -5, -7, 0
1503514040361,4, 0, -4, -2, -3, -1, 3, 11, 0
1503514040374,-1, -13, -11, -3, -1, 0, -1, 14, 0
1503514040398,0, 2, 0, -4, -1, 0, -3, 1, 0
1503514040419,-3, -4, -2, -1, -2, -2, -3, -10, 0
1503514040429,0, 4, 1, -12, -14, -8, -4, 4, 0
1503514040449,-1, 0, -3, 1, 1, 1, 0, 1, 0
1503514040465,-2, -6, -7, -3, -1, 2, 0, 5, 0
1503514040480,-1, -2, -8, -6, -7, -1, 2, 1, 0
1503514040497,1, 5, 4, -1, -2, -1, 1, 1, 0
1503514040517,0, -1, -3, -5, -5, -2, -3, -4, 0
1503514040539,-1, 10, 9, 9, 3, 0, -1, 4, 0
1503514040554,-3, 11, -2, -5, -6, -3, -2, -41, 0
1503514040577,-6, -19, -7, -3, 1, 1, -3, 1, 0
1503514040600,1, 9, 10, 5, 2, -1, -1, 2, 0
1503514040614,0, -1, -1, -1, -4, 0, 1, 1, 0
1503514040632,1, 5, 3, -4, -4, 0, 0, -2, 0
1503514040644,6, 19, -1, -3, -3, -2, 0, 10, 0
1503514040674,-4, 0, -2, -3, -3, -3, -4, -10, 0
1503514040698,-2, -11, -6, -6, -4, -1, -1, 9, 0
1503514040719,1, 5, 4, 2, 4, 0, -3, -3, 0
1503514040735,1, -3, -3, -1, 3, -1, -1, 8, 0
1503514040757,-4, -5, -7, -6, -6, -1, -6, -2, 0
1503514040779,0, -3, 0, -1, 1, -1, 0, -5, 0
1503514040794,-4, 5, 7, 3, 4, 0, 0, 6, 0
1503514040817,0, 4, -6, -12, -7, -2, -1, 3, 0
1503514040840,-7, -9, -6, -3, -4, -3, -5, -35, 0
1503514040854,7, 2, 0, 2, 3, 1, 6, 19, 0
1503514040877,2, -3, 7, 8, 4, 2, -1, -7, 0
1503514040900,-12, -3, -2, 0, -2, 0, 2, -22, 0
1503514040915,3, 2, 0, -2, 0, 0, -2, 6, 0
1503514040937,4, 4, 2, 0, 1, -2, 0, 14, 0
1503514040966,-8, -19, -2, 1, 1, -3, -7, -7, 0
1503514040975,-8, -14, -12, -8, -5, 0, -3, -5, 0
1503514041000,1, 3, -5, -4, -4, 2, 3, 9, 0
1503514041019,4, 2, -3, 0, 1, -3, -2, 0, 0
1503514041034,1, 4, 4, 5, 2, 1, 0, 6, 0
1503514041057,2, 6, 6, 5, 2, -1, -1, 5, 0
1503514041080,-2, -6, -7, -1, -1, 0, 1, 0, 0
1503514041095,4, 3, -4, -8, -7, -4, -2, 0, 0
1503514041117,-8, -6, 2, 2, 0, 1, 0, -3, 0
1503514041145,-10, -6, -3, -6, -6, -4, -1, -9, 0
1503514041147,0, -6, -4, 1, 2, 1, -2, -3, 0
1503514041169,-6, -7, -2, 2, 2, 0, -3, -3, 0
1503514041184,18, 0, -4, -17, -15, -6, -2, 2, 0
1503514041206,-5, -3, -5, 0, -3, -1, -1, 0, 0
1503514041229,3, 7, -1, -9, -6, -1, -1, -1, 0
1503514041244,9, 7, -7, -6, -3, -3, -2, 1, 0
1503514041260,0, -1, 2, -3, -1, -1, 1, 0, 0
1503514041274,-1, 4, 3, -4, -2, 0, -1, -1, 0
1503514041296,14, 5, -1, -6, -6, 1, 1, 6, 0
1503514041311,0, -5, -1, 2, 0, -1, 0, 7, 0
1503514041326,-6, 0, 4, 5, 5, -2, -2, -5, 0
1503514041348,-3, -1, 1, -1, -3, -1, -1, -10, 0
1503514041357,1, 5, 7, 6, 4, -1, -2, 3, 0
1503514041380,-4, 2, 5, 1, -1, 1, -1, -2, 0
1503514041403,1, 3, 2, 6, 4, -1, -2, 2, 0
1503514041417,-1, -6, 2, 11, 2, 3, 1, -2, 0
1503514041439,-14, -4, -2, -1, 6, 15, 8, 10, 0
1503514041461,3, 8, 4, -3, -7, -7, 0, -5, 0
1503514041477,-3, -7, -5, -2, 0, 0, 1, 5, 0
1503514041501,0, -3, -2, -5, -3, 3, -5, -4, 0
1503514041521,-19, -10, -6, -6, -9, 2, 2, -6, 0
1503514041537,1, 1, -2, -1, 5, -9, -7, -1, 0
1503514041559,4, -4, -4, -2, 2, 3, 1, 2, 0
1503514041583,-17, -3, 1, 3, -1, -2, 1, -6, 0
1503514041605,-10, -6, -2, -1, -3, -12, -6, -9, 0
1503514041619,9, 5, 4, 8, 5, -1, 0, 5, 0
1503514041643,-5, -6, -2, -4, -1, -2, 0, -7, 0
1503514041657,-4, 7, 5, 1, 0, 1, -3, -17, 0
1503514041679,7, 2, 4, 6, 6, 2, 1, 6, 0
1503514041701,-3, -9, -8, -6, -8, -2, 2, 12, 0
1503514041716,-2, 3, -1, -1, -3, 2, 0, -1, 0
1503514041731,-14, 4, 7, 7, 6, 3, 1, -10, 0
1503514041747,9, 11, 11, 1, 0, -2, 0, 6, 0
1503514041770,2, -5, -4, 1, 0, 1, 2, 3, 0
1503514041791,6, -6, -3, -2, 1, 0, -1, 11, 0
1503514041807,12, 0, -5, -4, -2, -2, 0, 6, 0
1503514041829,-7, -8, -10, -6, -3, -1, 0, -1, 0
1503514041851,-21, -10, -3, -2, 0, -2, -3, -16, 0
1503514041866,-5, 1, -3, -4, -4, -1, 0, -1, 0
1503514041888,19, 2, -2, -3, -3, -2, 0, 16, 0
1503514041911,2, -1, 0, 5, 6, 4, 4, 9, 0
1503514041926,5, 6, -1, -5, -7, -2, 3, 2, 0
1503514041949,-1, -5, 0, 3, 2, 0, -3, 6, 0
1503514041957,9, -5, -7, -6, -5, 0, -1, -11, 0
1503514041981,-9, -2, -3, -1, -3, -2, -1, -3, 0
1503514042001,-10, 1, 2, -3, 0, -1, 0, -5, 0
1503514042016,-3, 2, -4, -9, -8, 0, 0, -6, 0
1503514042041,10, -3, -9, 6, 5, 3, 3, 24, 1
1503514042061,-7, -19, -12, -6, -2, -2, 0, -4, 1
1503514042077,6, 0, 1, 1, -1, -1, 0, 2, 1
1503514042099,-9, 0, 1, 0, 3, 3, 4, -2, 1
1503514042121,10, 4, 2, 3, -1, -19, -5, 1, 1
1503514042136,-7, -1, 4, -1, 0, 4, -4, 0, 1
1503514042159,9, 5, -1, 3, 2, -3, -9, -17, 1
1503514042183,-3, 2, 3, -1, -1, 4, 4, 12, 1
1503514042197,5, 3, -1, 1, 5, 5, -2, 7, 1
1503514042220,-17, -11, -3, 0, 0, 4, 1, -15, 1
1503514042242,2, 4, 2, -2, -2, -2, -4, -6, 1
1503514042250,-11, -7, -5, 3, 3, 0, 3, 1, 1
1503514042264,-1, 1, 1, -5, -5, -4, 1, -2, 1
1503514042279,10, 5, 1, 0, -3, 2, 3, 15, 1
1503514042301,3, 4, 1, 5, 2, -1, -5, -23, 1
1503514042324,1, 0, 3, -2, -1, -2, -2, -4, 1
1503514042340,1, 2, 1, 2, -4, -7, -1, 2, 1
1503514042361,2, 0, -1, 0, 1, 10, 2, 5, 1
1503514042369,8, 3, 0, -1, -1, 0, 2, 16, 1
1503514042391,-8, -11, -8, -1, 3, 2, -1, -28, 1
1503514042413,-4, 0, 0, -2, -2, -2, -4, -1, 1
1503514042429,0, 0, 1, 0, -3, -5, -5, -9, 1
1503514042452,-2, -2, -2, -4, -2, 2, 2, 9, 1
1503514042475,-9, -11, -10, -8, -6, -1, 4, 17, 1
1503514042488,-1, 2, 1, -2, 0, 0, 2, 2, 1
1503514042511,-1, 4, 3, 0, 1, -2, -4, -8, 1
1503514042533,11, -2, -1, 0, 0, -4, -4, -12, 1
1503514042544,-2, -1, 1, 3, 2, 3, 0, -3, 1
1503514042563,-6, -5, 0, -4, 1, -3, -7, -7, 1
1503514042571,6, 4, 2, -1, -1, -3, 1, -2, 1
1503514042593,-2, 1, 4, 4, 3, 3, 3, 7, 1
1503514042611,19, 10, 4, 0, -1, 1, 1, 6, 1
1503514042631,-15, -4, -5, -6, -3, -5, 1, -7, 1
1503514042653,-4, -6, -4, -7, -4, 2, -3, -13, 1
1503514042669,1, -2, -2, -1, -2, -2, -10, 3, 1
1503514042691,14, -4, -5, 0, 2, -3, -8, -6, 1
1503514042713,-1, 2, 0, 4, -1, -4, -8, -30, 1
1503514042728,-23, 3, 5, 1, -3, -3, 1, -6, 1
1503514042751,4, 6, 2, 6, -3, -18, 2, 10, 1
1503514042774,2, -1, 4, 3, 5, 8, -1, -1, 1
1503514042789,-3, 3, 1, -3, -1, 2, 4, 38, 1
1503514042812,2, 2, -2, -6, -6, 6, -3, -11, 1
1503514042834,4, 11, 4, 0, 1, 2, 1, 17, 1
1503514042849,-4, -6, 1, 3, 4, 0, -8, -62, 1
1503514042871,9, 11, 7, 3, 0, 2, 11, 15, 1
1503514042893,19, -4, -11, -6, -1, 0, 0, 22, 1
1503514042908,-8, -3, -2, -1, -6, -3, -2, -15, 1
1503514042931,-1, -5, -6, -5, -5, 0, 2, -2, 1
1503514042954,-15, -10, -7, 0, 0, -2, -1, 7, 1
1503514042968,7, 7, 0, -4, -1, 1, 8, 4, 1
1503514042991,3, -5, 0, -2, 0, 3, 0, -1, 1
1503514043014,-4, -1, 3, 6, 2, -1, -3, 2, 1
1503514043028,-3, -2, 0, -2, 1, 0, -1, 2, 1
1503514043051,-11, -3, 2, 2, 3, -3, -5, -1, 1
1503514043073,8, -1, -4, -7, -4, -3, 1, 2, 1
1503514043089,-2, -3, -3, -3, -2, 0, -3, -11, 1
1503514043104,-1, 3, 0, -1, -1, -4, -6, -15, 1
1503514043119,-4, -3, 3, 2, 4, -2, 0, 2, 1
1503514043142,14, 0, -2, -2, 1, -2, -1, -10, 0
1503514043164,7, 4, -4, 1, -1, -3, -2, 3, 0
1503514043187,-11, -5, -2, 4, 6, 4, 2, -12, 0
1503514043203,1, -2, -3, -3, -3, -3, -5, -1, 0
1503514043224,3, 4, -3, -7, -8, -3, 2, 6, 0
1503514043249,-5, -3, -2, -5, -4, -2, 1, -2, 0
1503514043261,-5, -3, -2, -4, -9, -2, -1, 4, 0
1503514043284,0, -4, -5, -2, -3, -2, -3, 1, 0
1503514043306,8, 4, 2, 4, 3, 1, 0, -2, 0
1503514043321,-1, 0, 6, 1, 0, 0, 3, 0, 0
1503514043344,-11, 0, 4, 14, 13, 4, -3, -24, 0
1503514043366,-4, -9, -8, -1, -3, -2, 0, 9, 0
1503514043382,-7, -1, -2, -4, 2, 2, 1, 6, 0
1503514043403,7, 2, 4, -1, -3, -3, -3, -5, 0
1503514043426,5, -2, 0, -5, -4, -1, 1, 15, 0
1503514043451,5, 2, 2, -3, -9, -3, 0, 6, 0
1503514043464,-2, -1, -6, -7, -6, -1, 3, 1, 0
1503514043486,4, -8, -9, -3, -5, -1, -2, -9, 0
1503514043494,2, 0, -1, -2, -2, 0, 4, 16, 0
1503514043520,15, 2, 2, 0, -6, -3, -2, 13, 0
1503514043531,2, 3, 4, 1, 2, -2, -2, 0, 0
1503514043554,-1, 16, 9, 1, 2, 0, -3, -3, 0
1503514043575,-2, -7, -4, -1, -1, -3, -7, -15, 0
1503514043593,15, 0, -5, -2, -3, -2, 2, 8, 0
1503514043614,-7, 4, -6, -10, -7, -4, -7, -8, 0
1503514043635,-4, -11, -9, -6, -5, -1, 0, -4, 0
1503514043652,0, -3, 5, 1, 1, 0, -1, 0, 0
1503514043674,-4, -5, -5, -5, -5, 2, 1, 3, 0
1503514043695,0, 3, 3, 2, 1, 1, 2, -3, 0
1503514043711,-2, -1, -3, 0, -2, 1, -2, 1, 0
1503514043733,-1, -2, 8, 8, 6, 2, 0, -2, 0
1503514043756,-6, 1, 1, -4, -4, -3, 1, -6, 0
1503514043771,4, 15, 5, 5, 1, 0, 0, 2, 0
1503514043794,-5, -12, -7, 0, 4, -1, -1, 6, 0
1503514043815,10, 17, 11, 5, 2, -1, -3, 3, 0
1503514043831,-4, -18, -9, -8, -5, -3, -1, -4, 0
1503514043854,-2, -6, -7, -6, -5, -4, -2, -5, 0
1503514043875,2, 8, -3, -9, -8, -2, 1, -4, 0
1503514043891,1, 4, 3, -8, -4, 0, -3, -4, 0
1503514043913,-1, 10, 2, 4, 2, -1, -2, 8, 0
1503514043935,-3, -8, -1, 3, 3, 0, -2, -1, 0
1503514043953,0, -12, -8, -4, 1, 3, 4, 4, 0
1503514043973,-7, -13, -7, -1, -4, -3, -1, -16, 0
1503514043995,-4, -9, -6, 4, -1, -1, -1, 5, 0
1503514044011,-2, 3, -1, 0, -1, -2, -4, -1, 0
1503514044033,-2, -11, -7, -15, -11, -4, 0, 1, 0
1503514044042,3, 1, 8, 2, 2, 2, 0, 7, 0
1503514044064,-1, 0, -3, -3, -2, -4, -5, -3, 0
1503514044088,-3, 1, -2, 1, 0, 1, 0, -9, 0
1503514044108,-2, -10, -5, -8, -5, -2, 2, 2, 0
1503514044124,-4, 4, 4, 3, 3, 3, 0, 1, 0
1503514044146,0, -5, -10, -11, -6, -1, 1, -1, 0
1503514044168,11, 19, 8, 2, -2, -3, -1, 4, 0
1503514044189,-5, -13, -6, -1, 0, 0, 0, -1, 0
1503514044206,-3, 2, 0, -1, -2, 1, 0, -1, 0
1503514044229,2, 1, 7, 10, 3, -3, -4, -1, 0
1503514044244,-10, 3, 7, 7, 4, -1, -2, -31, 0
1503514044266,-3, -12, -6, -9, -6, -2, 2, 10, 0
1503514044289,-3, -4, -7, -3, -3, -2, -2, 3, 0
1503514044303,-5, -11, -14, -12, -8, -1, -3, 4, 0
1503514044326,0, 9, 1, -4, -3, -1, -3, -9, 0
1503514044348,4, -5, -1, 1, 1, -1, 0, 6, 0
1503514044364,0, -3, -2, -1, -1, 0, -1, 14, 0
1503514044386,-4, -5, -3, -1, 0, 0, 0, -3, 0
1503514044408,7, 24, 13, -2, -4, 0, 4, -2, 0
1503514044424,1, -6, -2, 4, 9, 3, -2, -5, 0
1503514044446,0, -4, -1, 0, 0, -4, -1, -1, 0
1503514044469,-2, 4, 6, 7, 5, 1, -1, 0, 0
1503514044483,-3, 1, 4, 5, 2, -1, -4, -18, 0
1503514044500,0, 3, 3, -4, -8, -4, -3, 1, 0
1503514044513,1, 0, -1, -1, 0, 0, -1, -6, 0
1503514044529,-3, -4, -5, 2, 1, 0, -2, 0, 0
1503514044543,1, 3, -3, 0, -1, 2, -1, -1, 0
1503514044566,-1, -11, -4, -7, -6, -3, 1, 10, 0
1503514044591,-2, -4, -9, -5, -5, -4, -9, -16, 0
1503514044604,1, 9, 7, 9, 5, -1, 0, -1, 0
1503514044626,-1, -1, -5, -6, -5, -2, -1, -5, 0
1503514044648,-5, -5, -5, -2, 0, -2, -2, -15, 0
1503514044656,-8, -11, -10, -7, -5, -3, -1, -5, 0
1503514044678,-1, -1, 0, 3, 0, -1, 3, -4, 0
1503514044694,2, 11, 6, -1, 1, 2, 2, 4, 0
1503514044715,-3, 0, 4, 4, 4, 2, 0, -1, 0
1503514044738,2, -5, -5, -2, -1, 2, 2, 3, 0
1503514044753,-3, -4, -4, -2, -2, 0, 0, -4, 0
1503514044768,2, 0, 1, 6, 0, 0, -1, 6, 0
1503514044775,-1, -1, -1, -1, -1, -1, 0, 0, 0
1503514044798,1, -3, -3, -3, -2, -1, -1, 4, 0
1503514044813,-2, -5, -1, 4, 0, -2, -4, 1, 0
1503514044835,3, 9, 5, 3, 0, 3, 2, 4, 0
1503514044860,-4, -2, -4, -6, -4, -1, -1, -8, 0
1503514044873,5, -3, 2, 7, 5, 3, 5, 20, 0
1503514044896,-1, 2, -2, -6, -5, -3, -2, 0, 0
1503514044918,0, -1, -2, 2, 1, -2, -3, -4, 0
1503514044941,0, 1, -1, 6, 3, -3, -2, 1, 0
1503514044956,-3, -4, -3, -5, -3, 0, -1, -8, 0
1503514044979,2, 5, -2, -8, -2, 1, 1, -1, 0
1503514045002,-1, -2, 1, -1, -1, 0, 1, -3, 0
1503514045009,-2, -1, 3, 4, 2, -2, -3, -3, 0
1503514045023,-3, -3, 1, 0, -2, -1, 0, -2, 0
1503514045046,1, 9, 8, 5, 3, -1, -1, 1, 0
1503514045070,0, -1, -2, -3, -1, 0, 1, 1, 0
1503514045091,2, 4, 8, 3, 2, -2, -1, -1, 0
1503514045106,-2, -9, -7, -3, -3, -3, -1, 0, 0
1503514045128,-2, -7, -7, -5, -2, 2, 2, -3, 0
1503514045151,-2, -2, -5, -3, -3, 1, -2, -2, 0
1503514045167,-3, -1, -1, -1, 2, 1, 0, -3, 0
1503514045188,1, -1, -3, 0, 0, -2, -2, -1, 0
1503514045211,0, 6, 7, 0, -4, -1, -1, 0, 0
1503514045228,1, 0, 0, -2, -1, -1, -3, 1, 0
1503514045248,-4, -4, -3, -5, -1, -1, 2, 1, 0
1503514045271,0, 0, 0, 5, 3, 0, 0, 0, 0
1503514045286,5, -3, -7, -7, -6, -2, 2, 6, 0
1503514045308,4, -2, -2, 6, -3, -8, 0, 3, 0
1503514045331,-4, -5, -6, -10, -4, 2, 0, -3, 0
1503514045346,-6, -2, 1, 4, 3, -1, 0, 5, 0
1503514045368,-21, 1, 3, 3, 18, 36, 8, -11, 0
1503514045391,5, 0, 0, 0, -3, -10, 1, 2, 0
1503514045431,-1, -1, -1, -4, -5, -3, -3, -1, 0
1503514045451,-9, -2, -3, -4, -5, -8, -4, -7, 0
1503514045466,2, -3, -3, -2, -8, -8, -4, 6, 0
1503514045489,-6, -1, 0, 1, 1, 5, -1, -3, 0
1503514045516,4, -4, -8, -6, 0, -4, 0, 0, 0
1503514045534,9, 0, -2, 3, 0, 3, 3, 6, 0
1503514045548,13, 8, 6, 7, 2, -7, -6, 5, 0
1503514045571,4, 3, 2, -3, -4, 1, 1, 1, 0
1503514045586,0, -2, 0, 0, 2, -4, 0, 2, 0
1503514045609,1, -2, -7, -6, -7, -2, -2, -5, 0
1503514045633,-1, -1, -1, 3, 3, 0, -2, -10, 0
1503514045646,10, 3, -2, -10, -7, -4, -5, -8, 0
1503514045669,-9, -1, 6, 0, 0, -1, -1, -8, 0
1503514045691,2, -4, -5, -3, 1, 0, 2, 7, 0
1503514045707,-5, 0, 3, 2, 0, -1, -3, -3, 0
1503514045728,-14, -3, 0, -1, 1, -1, 0, 17, 0
1503514045751,5, 1, -3, -9, -11, -2, 2, -4, 0
1503514045766,-4, -4, -1, 1, 2, -1, -1, -4, 0
1503514045788,7, 10, 11, 3, 2, 0, -3, 3, 0
1503514045811,5, -9, -8, -2, -3, -2, -1, 1, 0
1503514045826,1, 5, 6, -1, 1, 2, 2, -3, 0
1503514045842,-7, -4, 0, 23, 20, 6, 3, -2, 0
1503514045866,-4, -1, 1, -8, -6, -2, -4, 0, 0
1503514045879,5, 0, -1, -4, -4, -2, -1, -1, 0
1503514045901,-14, -6, 0, 6, 4, -1, -1, -6, 0
1503514045909,-22, -7, -5, -3, -4, -3, 0, 0, 0
1503514045939,-11, -8, -3, -6, -3, -3, -2, -2, 0
1503514045961,1, -2, -3, -5, -9, -4, -1, -5, 0
1503514045984,-4, 3, 7, 20, 26, 11, 4, 2, 0
1503514046001,-12, -1, 0, -4, -1, -1, -4, -4, 0
1503514046021,20, 12, 2, -12, -7, -10, -11, 0, 0
1503514046044,-3, -6, -6, 2, -5, -4, 3, -2, 0
1503514046059,-7, 1, 7, 0, 5, -4, -1, 2, 0
1503514046081,17, 11, -2, -4, -6, 0, -3, -2, 0
1503514046104,-73, -22, -3, 3, 26, 8, 2, -10, 0
1503514046119,10, -1, -1, -10, -30, -23, -1, 2, 0
1503514046143,5, 7, 8, 2, -10, -4, 3, 10, 0
1503514046163,15, -12, -10, 0, 3, 11, 4, 7, 0
1503514046179,7, 1, 2, -2, -1, -3, -3, -3, 0
1503514046203,4, 9, 7, 1, -2, -1, 0, -2, 0
1503514046223,8, -4, -2, 3, 6, 4, -5, -2, 0
1503514046246,0, 5, -2, -1, -1, 10, 0, -6, 0
1503514046261,9, 5, -2, 1, -2, -3, -1, 4, 0
1503514046283,-23, -9, -7, -2, -5, -1, 0, -7, 0
1503514046299,6, -3, -1, -2, -3, 3, -1, -4, 0
1503514046321,-2, -4, -7, -5, -4, -3, -3, -5, 0
1503514046345,-12, -10, -6, -5, -2, -3, 0, 2, 0
1503514046359,16, -12, -13, -6, -3, -5, -4, 17, 0
1503514046381,-3, 8, 1, -3, 1, 3, -2, -10, 0
1503514046405,-11, -17, -9, -4, -3, 0, 4, -2, 0
1503514046419,6, -2, -12, -9, -8, -4, 6, 33, 0
1503514046444,-1, 2, 3, 4, 2, -1, -1, -1, 0
1503514046464,0, 3, 6, 5, 11, 6, 0, -22, 0
1503514046480,6, 7, 11, 0, -5, -3, -4, -2, 0
1503514046504,5, 14, 21, 8, 2, -3, -3, -21, 0
1503514046524,6, 0, -13, -1, -2, 3, 3, 22, 0
1503514046540,10, -17, -14, -7, -3, -5, -8, 4, 0
1503514046561,-6, 2, 5, 1, 1, 10, -4, -40, 0
1503514046584,-21, -8, -1, 1, 0, -4, -5, -36, 0
1503514046599,-17, -3, -1, 1, 0, -1, 1, 15, 0
1503514046622,11, 5, 0, -1, 2, -3, 4, 12, 0
1503514046644,-1, 0, 3, -2, -2, 9, 1, 10, 0
1503514046659,0, 2, -6, -5, -2, -2, -2, -1, 0
1503514046682,-4, 1, 4, -3, -14, -46, -6, -6, 0
1503514046712,-2, -7, -4, 0, 12, 11, 1, 41, 0
1503514046720,1, 6, 6, 8, -1, 12, 2, 10, 0
1503514046742,6, 2, 4, 3, 10, 15, 3, -2, 0
1503514046764,-13, -8, -5, -6, -5, 0, 0, -14, 0
1503514046779,7, -1, -6, -4, -3, -1, -9, -25, 0
1503514046801,2, 7, 5, 0, 5, 1, 2, 6, 0
1503514046824,-3, 0, -2, -2, -6, -5, 3, 9, 0
1503514046840,-13, -2, 0, 1, -1, -2, 3, -11, 1
1503514046854,5, 2, -8, -5, -11, -5, 3, 17, 1
1503514046868,-9, -7, -4, 1, -6, -4, -2, 30, 1
1503514046891,-7, -7, -6, -7, -13, -11, -6, -13, 1
1503514046913,1, 4, 1, -3, -4, 1, 3, -4, 1
1503514046935,7, 12, 16, 7, 5, 4, 2, -20, 1
1503514046951,-13, -8, -8, -6, -7, 1, 8, 50, 1
1503514046975,1, 0, -2, -1, 7, 7, 1, -14, 1
1503514046996,0, -2, -1, -3, -5, 0, -3, -11, 1
1503514047011,-3, 0, 2, -2, -3, -2, 1, 51, 1
1503514047033,-2, -1, -5, -3, -1, -3, -9, -33, 1
1503514047055,-6, 0, 0, 4, 5, 6, 1, -38, 1
1503514047071,6, 4, 6, 9, 15, 2, 0, -14, 1
1503514047093,-3, -5, -3, -5, -7, -2, 2, -8, 1
1503514047116,1, -7, -1, 1, -3, -3, 0, 11, 1
1503514047131,3, 4, 7, 5, -1, -3, 1, -4, 1
1503514047153,-4, 1, -2, -5, -7, -2, -4, 0, 1
1503514047177,13, -1, -2, -4, -1, 5, 9, 16, 1
1503514047191,-2, 4, 0, 0, 1, -3, -9, -8, 1
1503514047214,-12, -6, -4, -5, -8, -5, 0, -3, 1
1503514047236,7, 1, -7, -5, -2, -3, -1, -2, 1
1503514047251,0, -3, 0, -1, -2, 1, -4, -7, 1
1503514047276,4, 3, 0, 6, 4, -3, -2, 14, 1
1503514047296,4, -1, 1, -1, 0, 10, -9, -1, 1
1503514047311,-7, 0, -3, -3, -8, -8, -3, -5, 1
1503514047333,1, -1, 2, -4, -8, -4, 2, -6, 1
1503514047356,-20, 2, 2, 0, -2, -3, 0, -59, 1
1503514047371,-5, -4, 1, 17, 16, 3, -2, -15, 1
1503514047393,12, 0, -7, -8, -1, 0, 3, 24, 1
1503514047417,5, -6, -7, 1, 1, -7, -6, 3, 1
1503514047431,-1, -2, -6, -5, -7, 10, 1, 5, 1
1503514047454,7, 1, 0, -6, -2, 12, 6, 36, 1
1503514047478,6, 0, 1, 2, 21, 9, 3, 20, 1
1503514047491,-1, -3, -5, -8, -12, -12, -12, -52, 1
1503514047517,-3, -2, -3, 1, 21, -3, 4, 15, 1
1503514047536,-2, 1, 1, -1, -14, -15, -12, -23, 1
1503514047552,-4, -6, -5, -3, -7, -6, -1, -16, 1
1503514047573,0, 8, 8, 7, 2, 6, 6, 4, 1
1503514047596,-4, 17, 11, 4, 2, 0, 0, 12, 1
1503514047612,1, -8, -6, -2, -3, -2, 2, 28, 1
1503514047633,-3, -1, 0, 4, -4, -1, 2, -24, 1
1503514047656,-9, 2, 8, 1, 0, -4, -1, 2, 1
1503514047671,8, -8, -9, -6, -1, 14, -1, 3, 1
1503514047693,3, -1, -3, -2, -1, -3, 0, -12, 1
1503514047717,-2, -3, -5, -2, 1, 10, 5, 21, 1
1503514047731,-3, -10, -8, -1, 0, 0, -2, 2, 1
1503514047754,-8, -5, -3, -6, -8, -15, -12, -31, 1
1503514047776,10, 5, -3, -7, -10, -6, 1, 1, 1
1503514047791,4, 3, 1, -4, -6, -4, -4, -4, 1
1503514047813,-9, -3, -1, -2, -1, 0, -3, -41, 1
1503514047823,8, 0, -5, -2, -4, 6, 4, 12, 1
1503514047847,1, 13, 10, 2, -5, -6, 2, -18, 1
1503514047866,-9, -1, 0, 4, 1, 0, -2, -20, 1
1503514047889,6, 3, 9, 14, 19, 6, 2, 16, 1
1503514047904,6, 1, -6, -6, -7, -10, -3, 11, 1
1503514047926,-6, 1, 2, -1, -6, -10, -5, 7, 0
1503514047948,-16, -9, -7, -6, -5, 4, -8, -12, 0
1503514047964,11, 9, 2, -7, -6, 1, -1, -9, 0
1503514047986,2, -7, -9, -13, -18, -5, -2, -4, 0
1503514048009,-6, -5, -2, -2, -4, -6, 0, -1, 0
1503514048024,-5, -5, -5, -3, -3, -2, 0, 3, 0
1503514048048,-17, -12, 3, 4, 1, -3, 1, -5, 0
1503514048053,-1, -6, -4, -1, -2, -1, 1, 18, 0
1503514048076,-7, 2, 2, 3, 1, 0, 2, 6, 0
1503514048098,0, -7, -6, -9, -6, -2, 2, 23, 0
1503514048115,0, -5, -3, 3, 1, -3, -11, -1, 0
1503514048128,-9, -5, 1, -3, -6, 3, 3, -5, 0
1503514048144,-1, 0, -1, 2, -2, 0, -3, 1, 0
1503514048166,4, 0, -2, -2, -3, -3, 1, 12, 0
1503514048188,3, -1, 1, -3, -8, -2, 0, 4, 0
1503514048204,1, -3, -4, 0, -1, -2, -5, 5, 0
1503514048226,14, 4, 0, -1, 1, -1, -3, 3, 0
1503514048252,-7, -11, -10, -4, -2, 0, 5, -6, 0
1503514048264,1, 4, 6, 8, 4, -1, 1, -4, 0
1503514048286,1, 3, 3, -1, -4, -3, -5, -4, 0
1503514048308,-5, -6, -5, -7, -7, -3, 1, 2, 0
1503514048324,-3, -4, -3, -4, -4, -1, 1, -9, 0
1503514048346,0, 4, 3, 3, 0, -1, -3, 0, 0
1503514048354,2, 4, 3, 3, 1, 0, 4, 2, 0
1503514048376,-4, -6, -6, -7, -10, -2, 0, -3, 0
1503514048398,-6, -5, -6, -7, -7, -3, -1, -5, 0
1503514048413,-3, -1, 6, 3, 5, 0, -3, -2, 0
1503514048436,2, 3, 3, 2, 3, 3, 1, -1, 0
1503514048458,-3, 2, 0, -3, -2, 0, -1, 0, 0
1503514048473,-2, -5, 1, -3, -9, -2, -1, -5, 0
1503514048496,-2, 1, -5, -2, -4, -3, -4, -11, 0
1503514048518,2, 3, 1, 1, 4, -1, -5, -8, 0
1503514048533,-1, -4, -4, -3, 0, 2, 1, -15, 0
1503514048556,3, -3, -2, 0, 3, 1, 2, 10, 0
1503514048578,-3, -1, 1, 3, 9, 4, -2, 4, 0
1503514048594,3, -9, -6, -3, -1, 0, 2, 9, 0
1503514048616,1, -2, -4, -2, -3, -1, 1, 2, 0
1503514048638,2, -4, 1, -3, -3, -3, -1, 7, 0
1503514048654,-2, -2, -5, -7, -6, -2, 0, 1, 0
1503514048676,-2, 5, 0, -1, 2, -2, 0, 1, 0
1503514048698,-10, -5, -3, -1, 4, 2, -2, -30, 0
1503514048713,-3, 5, 7, 3, -4, -4, -4, 1, 0
1503514048736,-3, -5, -6, -10, -11, -3, 3, 6, 0
1503514048758,8, 7, 1, -9, -5, -3, -3, 12, 0
1503514048780,-3, -4, 1, 4, 2, -1, 0, -3, 0
1503514048796,-5, 3, 0, -6, -8, -2, -1, -13, 0
1503514048818,-2, 2, 2, 9, 7, 1, 0, 5, 0
1503514048840,2, -3, -2, 6, 6, 4, 0, 4, 0
1503514048856,6, 3, 5, 2, 2, 0, 3, 27, 0
1503514048877,-1, -1, 0, -1, -2, -2, -3, 3, 0
1503514048900,-4, -5, -8, -5, -5, -3, -6, -8, 0
1503514048916,0, 8, -2, -4, -3, -3, 1, -11, 0
1503514048937,-1, -1, 2, 5, 5, 2, 0, -4, 0
1503514048960,0, -2, 4, 2, 2, -1, -2, -7, 0
1503514048976,3, -3, 4, 0, -1, -3, -5, -7, 0
1503514048997,-2, 3, 4, 1, 0, 1, 2, -2, 0
1503514049023,-1, -6, -2, -3, -1, 0, 1, 6, 0
1503514049036,0, -5, -2, -1, 2, -1, -3, 4, 0
1503514049058,6, 8, 7, 2, -1, -1, -1, 5, 0
1503514049080,-1, -9, -8, -4, -4, 1, 2, -9, 0
1503514049097,-4, 0, 2, 0, 2, 4, 3, 2, 0
1503514049118,-3, -3, -4, -6, -6, -3, -2, 4, 0
1503514049128,-3, -10, -3, 1, 0, -2, -1, 1, 0
1503514049148,2, 10, 3, -5, -3, -2, -3, -19, 0
1503514049171,-5, -8, -11, -12, -10, -4, -2, 1, 0
1503514049194,0, 4, 5, 1, 0, 2, 2, 7, 0
1503514049208,0, 2, 2, 0, 0, 0, -2, 1, 0
1503514049232,1, -5, -6, -8, -8, -4, 0, 15, 0
1503514049246,-2, -2, 2, 6, 0, -1, -3, 9, 0
1503514049268,-3, 0, -4, -4, -7, -3, -4, -6, 0
1503514049276,-2, 1, -2, -1, -1, 0, 0, 0, 0
1503514049300,-6, -13, -2, 2, 2, -1, -8, -12, 0
1503514049320,-2, -5, 1, 3, 1, 0, -1, -3, 0
1503514049336,0, 10, 5, 1, 2, -2, -2, 4, 0
1503514049360,2, -5, -6, -10, -13, -3, 0, -1, 0
1503514049381,1, 2, 0, 6, 1, 0, 0, -1, 0
1503514049396,1, 1, -3, -7, -3, -2, -1, 6, 0
1503514049418,0, 5, 1, -2, -1, -1, -4, -14, 0
1503514049440,-4, -4, -4, -1, 8, 4, 3, 0, 0
1503514049458,2, -1, -5, 1, -1, 4, 3, 13, 0
1503514049478,-3, -1, 2, 0, 0, -4, 1, 3, 0
1503514049501,-1, 0, 0, -3, -5, -1, -2, -9, 0
1503514049516,7, 6, 2, 9, 8, -1, 0, 14, 0
1503514049538,-4, -2, -5, -8, -5, -2, 0, -5, 0
1503514049560,-4, -4, 0, -2, -2, -1, -2, -5, 0
1503514049576,3, -1, 0, 7, 4, 1, 2, -1, 0
1503514049599,-6, -4, -4, -8, -1, -1, -1, -3, 0
1503514049620,-2, 2, 5, -6, -5, -1, -2, 0, 0
1503514049637,-3, -2, -4, 4, -4, 0, 1, 1, 0
1503514049661,2, -1, 0, -6, -4, 1, 1, 1, 0
1503514049680,-4, -5, -9, 4, 3, 2, -2, -2, 0
1503514049703,-4, -3, -5, -12, -9, -4, -5, -5, 0
1503514049718,-1, -5, -7, -4, -3, -3, -1, 1, 0
1503514049740,0, -1, 3, -2, -2, -1, 0, -2, 0
1503514049763,-1, 1, 2, 3, 4, 2, 0, -1, 0
1503514049778,1, -1, -3, -5, 1, -2, -1, 2, 0
1503514049801,0, -3, -4, -4, -4, -2, 1, 1, 0
1503514049822,1, 2, 5, 11, 11, 6, 2, 1, 0
1503514049838,2, -1, -3, -5, -5, -4, -5, -14, 0
1503514049863,-5, -5, -1, -3, -2, -4, -2, 0, 0
1503514049882,-19, -4, 3, 2, -3, 3, 3, -1, 0
1503514049904,1, 1, 2, -1, -5, -3, -4, -1, 0
1503514049920,6, 0, -3, 0, 8, -11, 4, 7, 0
1503514049943,0, -6, -12, -3, 3, 6, 4, 5, 0
1503514049958,-4, -7, -1, 13, 10, 4, -4, -3, 0
1503514049980,3, -3, -3, -5, -15, -11, -3, -4, 0
1503514049988,-7, 0, 9, -5, -10, 5, 0, 0, 0
1503514050010,0, 2, 2, 6, 6, 4, 3, 1, 0
1503514050033,3, 3, -1, 4, -6, -4, -2, -4, 0
1503514050048,-2, -5, -6, -4, 2, -6, -4, 2, 0
1503514050071,-3, -5, -6, -5, -10, -1, 0, -1, 0
1503514050093,-5, -3, -4, -11, -12, 3, -3, -4, 0
1503514050108,4, 5, 7, 15, 19, 9, 1, 1, 0
1503514050131,-1, 0, 0, 6, 15, 2, -2, -3, 0
1503514050153,-16, -10, -7, -8, 3, -9, -2, -6, 0
1503514050168,-3, -3, 0, 0, -19, -5, 1, -9, 0
1503514050184,-13, -10, -9, -13, -19, -7, -5, -7, 0
1503514050206,9, 9, 4, -3, -4, -7, -2, 0, 0
1503514050222,-1, -4, -6, 0, 10, 1, -3, -5, 0
1503514050244,-7, 0, 8, 10, 9, 5, -1, -2, 0
1503514050268,1, 0, 0, 3, 5, 1, 2, -3, 0
1503514050281,4, -6, -5, -8, -6, 2, 1, 14, 0
1503514050305,-6, -7, -1, 1, -3, -2, -2, -6, 0
1503514050326,13, 11, -7, 0, -2, -1, 2, 3, 0
1503514050342,-4, -10, -9, -1, -5, -2, 0, 2, 0
1503514050365,-3, 2, 7, 9, -1, -21, 4, 3, 0
1503514050387,7, 1, 6, -5, -3, 4, -1, -8, 0
1503514050403,-8, 1, -2, 3, 5, 6, 0, -3, 0
1503514050424,16, 7, -2, -3, 0, -1, -6, -10, 0
1503514050446,-16, -8, -7, -4, -4, -1, -2, 3, 0
1503514050461,-3, 2, 0, -8, -9, -3, 0, -2, 0
1503514050484,-2, 1, 4, 4, 3, 5, -4, -1, 0
1503514050508,0, 6, 6, 0, -2, -1, -1, -7, 1
1503514050522,-12, -2, 2, -1, -2, -28, -6, -13, 1
1503514050550,-2, -5, -5, -4, -5, 3, 0, 1, 1
1503514050569,6, 1, 2, 2, 1, 5, 0, 1, 1
1503514050581,-2, -2, -2, 4, 4, 3, -1, 1, 1
1503514050604,7, -1, -5, -2, -10, 17, 0, 2, 1
1503514050611,3, 0, -7, -5, -4, -4, -3, 4, 1
1503514050634,9, 13, 18, 3, 5, 4, -1, -16, 1
1503514050656,0, -2, -3, -2, -22, -3, 2, 5, 1
1503514050671,6, 3, -4, -4, -4, 0, -3, 2, 1
1503514050694,-17, -14, -6, -2, 1, 0, -1, -3, 1
1503514050716,-5, -4, -5, -4, -1, -4, -8, -12, 1
1503514050731,1, 0, 1, 9, -2, -5, 4, 12, 1
1503514050753,3, -3, -2, -5, 4, 2, 2, 8, 1
1503514050776,11, 14, 1, -4, -8, -3, 2, 0, 1
1503514050791,0, 3, 1, 3, 11, 2, -1, -7, 1
1503514050813,-1, -3, 3, -1, -5, 0, -2, 1, 1
1503514050836,-4, -6, -1, 1, 2, -1, -3, 11, 1
1503514050851,0, -12, -8, 4, 5, 3, 3, 9, 1
1503514050873,5, 0, -4, -5, 0, 2, 0, -1, 1
1503514050896,-6, -1, -5, 1, 2, -3, -4, -23, 1
1503514050912,-2, 0, -5, -8, -2, -4, -5, -10, 1
1503514050935,-19, -3, 6, -2, -5, -5, 0, -1, 1
1503514050963,0, -3, -3, -1, 0, 0, -6, -26, 1
1503514050971,2, -3, 1, 8, 17, 15, 5, 14, 1
1503514050993,4, 0, 1, 11, 16, 12, 7, 20, 1
1503514051016,6, -8, -5, -5, -8, -5, -1, 2, 1
1503514051031,2, 2, -1, -8, -7, -6, -4, 7, 1
1503514051053,0, 3, 3, 0, -2, -5, 3, 1, 1
1503514051076,0, 3, 6, 0, -6, 0, 0, -4, 1
1503514051091,-13, -9, -4, -2, -1, -5, -1, 11, 1
1503514051113,0, 0, 0, 1, 0, 4, 7, 13, 1
1503514051137,0, 5, 0, -5, -5, -5, -6, -5, 1
1503514051151,8, -1, -4, -1, -3, -13, -6, 2, 1
1503514051181,20, 5, -2, -2, -4, -2, 7, 34, 1
1503514051206,4, -1, 0, 0, 1, 1, -1, 12, 1
1503514051226,5, 4, 0, -2, 1, 2, -1, -2, 1
1503514051242,-2, -11, -6, -7, -4, -7, -3, 0, 1
1503514051264,3, 2, 7, 0, -3, 2, 3, 4, 1
1503514051287,-5, 1, -3, -3, -2, -1, -3, -13, 1
1503514051303,-5, -2, -6, -3, -3, -1, -2, 8, 1
1503514051324,4, 3, 3, 1, 3, 1, 4, 35, 1
1503514051346,-12, -4, -2, -3, 0, 3, 2, -32, 1
1503514051361,-1, -1, -6, -6, -7, -1, -7, -18, 1
1503514051384,-17, -2, -1, -1, -2, -2, 5, -19, 1
1503514051408,3, 2, 2, -6, -6, -4, 8, 21, 1
1503514051421,8, -1, -3, 0, 0, 2, 0, -3, 1
1503514051444,11, 7, 4, 3, 2, 1, 0, 23, 1
1503514051466,-8, -4, -4, 1, 2, 0, -1, 10, 1
1503514051481,9, 5, 3, 4, 2, 0, -9, 0, 1
1503514051511,12, 3, 2, 4, 4, 5, 1, -1, 1
1503514051533,-2, -1, 0, -5, -6, -6, -4, 10, 1
1503514051555,2, 0, 1, -2, -1, -1, -1, -15, 0
1503514051564,5, 25, 24, 12, 1, 1, 3, 1, 0
1503514051586,-15, -10, -14, -2, -6, -1, -6, -13, 0
1503514051609,11, -2, -1, 1, 4, 6, 5, 3, 0
1503514051624,-3, -2, 2, 4, 1, -4, -3, 10, 0
1503514051648,8, 6, 1, -4, -4, -2, -6, 0, 0
1503514051669,4, -1, -8, -6, -4, -2, 0, -7, 0
1503514051684,0, -5, -3, 0, 1, 0, 2, 2, 0
1503514051710,-11, -4, -4, 1, 5, 15, 4, -18, 0
1503514051728,-15, -8, -5, -6, -5, 2, 3, 4, 0
1503514051744,3, 0, 3, -2, -4, -6, -8, 19, 0
1503514051766,4, 0, -4, -1, -1, -4, 1, -1, 0
1503514051788,2, 3, 0, -1, -2, -5, -4, -18, 0
1503514051804,-1, 2, 5, 1, -2, -10, 2, -3, 0
1503514051826,2, -3, -4, -1, 1, 11, 2, 8, 0
1503514051850,-6, -1, -4, 5, 12, 1, -4, -7, 0
1503514051864,1, -1, -3, -3, -7, -3, 1, 7, 0
1503514051886,-3, -1, 0, -3, 0, -4, -3, -2, 0
1503514051909,-2, 6, 5, -3, -2, -1, -1, 9, 0
1503514051924,-2, -5, 5, 2, 0, -3, 2, 2, 0
1503514051946,-1, -1, -4, -9, -7, -3, -2, -7, 0
1503514051969,4, 0, -2, -1, -2, 1, 3, 19, 0
1503514051986,-3, -3, -2, -2, -3, -1, -3, -11, 0
1503514052013,-2, 4, 5, 1, 0, -4, -6, -7, 0
1503514052028,-9, 1, 1, 3, -1, 0, -3, -13, 0
1503514052044,0, -7, -9, -6, -2, -7, -3, -3, 0
1503514052066,3, 0, -1, -8, -4, 0, -1, -4, 0
1503514052088,-4, -5, -8, 0, 0, -1, -3, -10, 0
1503514052096,4, 1, 1, -2, -4, -2, -3, -7, 0
1503514052119,3, 0, -5, -2, -1, 1, 0, -4, 0
1503514052133,3, 6, 5, 3, 4, -2, -2, 7, 0
1503514052156,-2, -7, -9, -3, -9, -16, -2, -2, 0
1503514052180,1, -2, -5, -6, -6, 0, 1, 13, 0
1503514052193,6, 6, 4, 2, 0, 1, 0, 15, 0
1503514052216,-4, -6, -6, -1, 2, 6, 3, -4, 0
1503514052238,0, -1, 6, 0, 2, -1, -1, -4, 0
1503514052253,-5, -3, -2, -1, -1, 3, 0, 1, 0
1503514052277,0, 1, 7, 8, 4, 1, -2, 1, 0
1503514052284,-2, -8, -5, -4, -5, -3, -4, 6, 0
1503514052306,-1, -4, -3, -1, 2, 3, 0, -2, 0
1503514052328,-2, 6, 6, 0, -5, -4, 0, -2, 0
1503514052345,-1, -3, -3, -2, -4, -5, -2, -5, 0
1503514052366,0, 3, 6, 5, 2, 1, -2, -8, 0
1503514052388,0, -1, -5, -4, -2, -1, 2, 5, 0
1503514052404,1, -4, -5, -3, -3, -3, -2, -5, 0
1503514052427,0, -4, -2, 2, 8, 0, -3, -3, 0
1503514052449,-5, -2, -1, -5, -5, -1, 2, -11, 0
1503514052464,-2, -4, -6, 0, 3, 3, 0, -3, 0
1503514052486,3, -4, 0, 1, 0, 0, -4, -9, 0
1503514052508,-3, -2, 1, -2, -2, -3, -2, -2, 0
1503514052531,2, 22, 20, 8, 1, 1, -2, 1, 0
1503514052547,2, 0, 1, 2, 1, 2, 4, 6, 0
1503514052569,-4, -1, -6, -15, -11, -7, -5, -5, 0
1503514052591,0, -3, -5, 0, -3, 0, -3, -13, 0
1503514052606,-4, -11, -4, -6, -4, -1, 2, 20, 0
1503514052628,6, 24, 14, 4, 0, -3, -3, 9, 0
1503514052636,-3, -5, -5, -8, -4, -3, 1, -4, 0
1503514052658,-2, -9, -10, -4, -4, 1, 1, -3, 0
1503514052681,0, -1, -3, -4, -2, 0, 1, 11, 0
1503514052696,1, -3, -6, -6, -4, -3, -7, -7, 0
1503514052718,5, 6, 9, 7, 1, -1, -3, -3, 0
1503514052741,-3, 6, 6, 4, 3, -1, 2, 8, 0
1503514052756,-1, -6, -9, -11, -8, -2, 6, -10, 0
1503514052778,1, 17, 5, -1, 0, -1, -1, 4, 0
1503514052801,-2, -6, -5, -5, 0, -1, -1, -7, 0
1503514052816,3, -6, -2, 8, 5, 0, 1, 12, 0
1503514052838,4, -4, 3, -3, -6, -5, 5, 10, 0
1503514052861,2, 35, 8, 7, 0, -1, 2, 22, 0
1503514052868,-4, 2, -4, -4, -3, 0, -1, 8, 0
1503514052891,-5, -13, -9, -12, -10, -4, 1, -2, 0
1503514052907,2, 4, 1, 1, 1, -1, -1, 5, 0
1503514052928,-2, -5, -6, -7, -4, 0, 5, 21, 0
1503514052935,0, 1, 0, 0, -1, 0, -1, 1, 0
1503514052958,-3, -3, -3, 0, -1, -2, -1, 11, 0
1503514052983,-2, -3, -4, -5, -7, 1, 1, -6, 0
1503514052996,-3, 13, 0, -2, -2, -1, -3, -13, 0
1503514053018,-1, 2, 1, -5, -2, -2, -1, -11, 0
1503514053040,-4, -12, -1, -1, -2, 1, 2, 19, 0
1503514053058,1, -2, -3, -5, -2, -1, -1, -3, 0
1503514053078,3, -1, -5, -3, -2, 0, 1, -14, 0
1503514053101,-2, 6, 0, -5, -4, 0, 1, -3, 0
1503514053117,0, 8, 1, -5, -2, 0, -1, -22, 0
1503514053138,-2, -7, -1, 5, 4, -1, -5, 1, 0
1503514053161,-4, -7, -6, -4, -4, -2, -4, -22, 0
1503514053175,-3, -11, -9, -1, 1, 0, 1, 11, 0
1503514053192,-3, 8, 18, 8, -1, -2, -3, -18, 0
1503514053206,3, 6, -8, -10, -4, -2, 0, 3, 0
1503514053229,0, -9, -6, 0, -1, 0, 0, -3, 0
1503514053252,-7, -4, -3, -6, 0, 0, -1, -25, 0
1503514053266,0, -9, -14, -9, -3, -2, -1, 15, 0
1503514053289,0, -5, -1, 1, 0, -1, 1, 5, 0
1503514053296,7, 4, 9, 17, 5, 1, -1, 23, 0
1503514053311,-2, 10, 7, 4, -2, -2, -3, -4, 0
1503514053327,2, 3, 5, 3, 2, -1, 0, 30, 0
1503514053349,0, 2, -2, -4, -4, -1, 0, 1, 0
1503514053370,-2, -3, 1, -2, 0, -1, -2, -3, 0
1503514053388,2, -6, -9, -2, -2, 0, 1, 6, 0
1503514053408,-4, -5, -3, -1, -2, -2, 1, -2, 0
1503514053415,-4, -11, -1, -5, -4, -4, -4, -4, 0
1503514053438,-4, -8, -5, 1, 2, 0, -1, -11, 0
1503514053461,-6, 2, 1, -2, -4, -3, -3, -8, 0
1503514053482,-4, -1, 0, -1, -1, -2, -1, 3, 0
1503514053498,0, -2, -1, -2, -3, 0, 0, 4, 0
1503514053521,1, 6, 6, -5, -2, -1, 3, 10, 0
1503514053543,0, -6, -4, 0, 1, -1, 0, -4, 0
1503514053558,4, 4, 6, 8, 3, 1, 1, 5, 0
1503514053580,1, -6, 5, 7, 2, -1, -2, 2, 0
1503514053589,0, -6, -5, -2, -2, -2, 1, 2, 0
1503514053610,0, -3, 0, 2, 3, 1, -2, 6, 0
1503514053633,-4, -5, -2, -3, -3, -1, -1, -2, 0
1503514053648,0, 1, 2, 0, -2, -1, -1, 7, 0
1503514053664,1, 0, -1, 1, 0, 2, 2, 4, 0
1503514053678,0, 0, -2, 3, 3, 0, -1, -1, 0
1503514053702,-1, 1, 1, -1, -3, -1, 0, 16, 0
1503514053724,1, 1, -3, -3, -2, -3, -2, -9, 0
1503514053738,4, 2, 1, 3, -3, 0, 1, 1, 0
1503514053761,0, -4, -6, -1, -2, -1, 0, -4, 0
1503514053782,1, 0, 3, 3, 6, 1, -1, -2, 0
1503514053798,-14, -7, -4, -1, -1, -1, 0, -5, 0
1503514053822,1, -1, -3, -3, -1, -1, -1, -5, 0
1503514053842,0, 2, 2, -5, 0, 1, 0, -1, 0
1503514053859,-4, -1, 1, 2, -2, -2, -1, -1, 0
1503514053880,-6, -1, -4, -8, -3, 1, 0, 3, 0
1503514053903,8, -5, -8, -5, -4, -1, 0, 1, 0
1503514053918,-4, -5, -2, 7, 5, 1, -1, -1, 0
1503514053940,3, 6, 8, 6, 1, -2, -6, -8, 0
1503514053962,-1, -2, -1, -7, -9, -2, -1, -5, 0
1503514053978,8, 4, 6, 2, 0, -2, -2, 24, 0
1503514054001,-5, -10, -6, -3, -2, -2, -2, 0, 0
1503514054008,-4, -10, -6, -5, -3, -1, 0, -2, 0
1503514054031,-6, -10, -8, -3, -2, -2, -1, -3, 0
1503514054053,-3, 8, 7, 7, 4, 0, -3, -22, 0
1503514054069,4, 3, 3, 6, 7, 1, 2, 8, 0
1503514054091,0, -3, 0, 4, 2, 0, -2, 6, 0
1503514054113,-2, -1, 1, -1, -1, -3, -5, -8, 0
1503514054130,1, -2, -5, -4, -2, -1, 1, 11, 0
1503514054150,-2, -2, -6, -7, -5, 0, 0, 7, 0
1503514054173,0, -4, -3, -2, -1, -1, -1, 0, 0
1503514054197,0, 5, 0, -3, -2, -2, -3, -3, 0
1503514054210,4, -3, -7, -6, -3, 0, 0, -5, 0
1503514054233,-3, -9, -2, 2, 1, -2, -1, -8, 0
1503514054248,-1, -4, -3, -4, -3, 0, 2, 0, 0
1503514054271,-7, 4, 3, -3, -3, -2, -2, -19, 0
1503514054293,0, -3, -2, -4, -4, 0, -1, 2, 0
1503514054308,-1, 3, -1, 0, 1, 2, 2, 5, 0
1503514054338,-1, -5, -3, -3, -4, -2, -2, -5, 0
1503514054361,2, -3, -6, -4, -2, -1, -2, 0, 0
1503514054382,0, 0, 0, 2, 1, -1, 1, 5, 0
1503514054405,-4, -8, -4, -1, -1, 1, 0, 2, 0
1503514054420,-9, -3, -3, -1, 1, -2, -2, -10, 0
1503514054442,8, -1, 1, 6, 6, 4, 1, 5, 0
1503514054465,9, 5, 2, -6, -9, -2, 0, 12, 0
1503514054480,-3, -2, -2, 1, 3, 0, 1, -3, 0
1503514054502,5, 7, 0, -8, -11, -7, -2, -6, 0
1503514054528,0, 0, -3, 9, 10, 3, 2, 1, 0
1503514054541,-3, -3, -2, -13, -11, -3, -2, -1, 0
1503514054564,-4, -7, -5, -2, -1, -1, 0, -3, 0
1503514054585,0, 4, 14, 7, 2, 0, -1, 2, 0
1503514054602,-2, 0, -4, -5, 0, 0, -1, -2, 0
1503514054622,-5, -2, -2, 0, 0, 3, 1, 0, 0
1503514054645,-4, -1, -2, 1, 3, 4, 2, 2, 0
1503514054662,-5, -2, -4, -8, -6, -7, -1, -3, 0
1503514054682,7, -1, -5, -5, -7, -25, -8, 2, 0
1503514054705,0, 4, -2, 1, 4, 8, 8, 3, 0
1503514054720,-1, -4, 2, 3, 3, 8, -3, -6, 0
1503514054742,-11, -3, 0, 3, 8, 31, 2, 1, 0
1503514054765,-20, -9, -2, 4, 13, -3, 2, -9, 0
1503514054780,14, 2, -3, -4, -9, 4, -5, 1, 0
1503514054803,5, 3, 0, 0, 3, -6, -2, 2, 0
1503514054825,0, -6, 1, 3, 2, 5, -1, 0, 0
1503514054840,12, 0, -1, -4, -5, -4, -1, 3, 0
1503514054864,5, 1, -1, -4, -4, 1, 2, 6, 0
1503514054885,-10, -4, 4, 8, 11, 2, 1, -6, 0
1503514054901,3, 8, 2, 0, -5, 5, 0, -8, 0
1503514054922,5, 8, 6, 2, -6, -5, 0, 4, 0
1503514054945,-16, -5, -4, -3, -5, -10, -3, -2, 0
1503514054964,9, 11, 3, 1, -3, -4, -3, -4, 0
1503514054982,3, -2, 0, 4, 3, -4, -4, -11, 0
1503514055005,0, -2, -6, -6, -6, -2, 0, 14, 0
1503514055021,13, 7, -2, -4, -7, -8, -3, 0, 0
1503514055042,-8, -6, 2, -3, -3, -1, -1, -1, 0
1503514055051,5, 4, 0, 3, 6, 1, 3, 8, 0
1503514055073,16, 10, 1, -1, 3, 2, -2, 7, 0
1503514055081,2, -8, -7, -2, -1, -2, 2, 4, 0
1503514055102,-11, -7, -6, -4, -1, -1, 1, -15, 0
1503514055125,-1, 8, -3, 5, 10, 4, 4, 7, 0
1503514055141,-9, -8, -5, -3, -4, -4, -2, -10, 0
1503514055156,-1, -3, -1, -9, -6, 1, -6, -12, 0
1503514055171,-2, 2, 4, 3, 5, 2, 0, 1, 0
1503514055193,-1, -4, -6, 0, -5, -6, -2, -4, 0
1503514055216,12, 6, 6, 10, 8, -4, 0, 10, 0
1503514055233,0, 0, -2, -2, 2, 3, -1, 2, 0
1503514055253,-5, -5, -1, -1, 6, 7, 0, -19, 0
1503514055275,-4, -7, -4, 2, 2, -1, 0, -2, 0
1503514055282,-1, 11, 5, 0, -5, -5, -4, -1, 0
1503514055305,2, -1, 3, -1, -3, -3, -2, -1, 0
1503514055328,11, -2, -3, -2, -2, -1, -2, 0, 0
1503514055342,-5, -3, -4, -4, -3, -4, -3, -4, 0
1503514055366,0, -1, -1, -2, -2, 2, 0, 6, 0
1503514055387,-9, 4, 4, 1, 0, -1, 0, -10, 0
1503514055402,-3, -8, -5, -4, -2, -1, 2, 4, 0
1503514055425,2, 1, 0, -6, -13, -9, -3, 0, 0
1503514055448,7, 0, -4, 0, -2, 2, 3, -2, 0
1503514055466,13, 2, -3, -2, 1, -2, -2, 4, 0
1503514055486,-3, 0, -3, 2, 3, 1, -2, -1, 0
1503514055509,-1, 2, 3, -2, 2, 0, 1, 1, 0
1503514055524,5, 3, 3, 3, 1, 0, 0, 2, 0
1503514055546,-2, -4, -6, -4, -3, 0, -2, -6, 0
1503514055569,-3, 1, 0, 1, 0, -2, 1, 4, 0
1503514055583,8, 2, -1, 1, 0, 0, -2, -6, 0
1503514055606,-10, -8, -5, -3, 1, -2, -3, -4, 0
1503514055629,0, -1, -1, -5, -5, -3, -1, -1, 0
1503514055645,-3, -6, -3, -1, -1, -3, 4, 13, 0
1503514055668,3, 1, 1, -1, 0, -1, 0, -6, 0
1503514055689,-10, -4, -1, -1, -1, 0, -1, -1, 0
1503514055711,-16, -8, -6, -1, -8, 0, 0, -3, 0
1503514055726,4, 1, 0, -5, -9, -22, -3, 3, 0
1503514055748,-6, 1, 2, 4, 8, 5, 0, -5, 0
1503514055771,5, 2, 2, 1, 2, 3, 0, 5, 0
1503514055786,15, 6, 1, -1, -1, 5, -2, 4, 0
1503514055808,-7, 1, 3, 3, 4, 1, 0, 0, 0
1503514055816,-9, -5, -1, -2, -4, -6, 0, -3, 0
1503514055838,-1, -8, -3, 2, 5, 0, -3, 6, 0
1503514055853,12, 5, 6, 5, 0, 0, 1, 12, 0
1503514055876,8, 6, -5, -2, -6, -1, -1, -9, 0
1503514055898,-15, -7, -4, -2, -2, 1, -5, -26, 1
1503514055913,-8, -4, -2, 0, 1, 0, 1, 7, 1
1503514055937,-8, -4, 0, 1, 2, 0, -2, 5, 1
1503514055958,-4, -1, 2, -1, -1, 1, 3, 4, 1
1503514055974,-3, -7, -10, -7, -2, -2, -3, 1, 1
1503514055995,-18, -6, -2, 3, 2, 1, 1, -5, 1
1503514056018,-1, -7, -8, -4, 2, 2, 3, 1, 1
1503514056034,-1, 1, 5, 2, 1, -1, -3, -6, 1
1503514056056,3, 2, 3, 1, -2, -2, -2, -3, 1
1503514056078,6, 2, 2, -1, 0, 1, -2, 0, 1
1503514056093,7, 3, -1, -2, -1, -2, -1, 3, 1
1503514056109,12, 10, 2, 2, -1, -2, -1, -4, 1
1503514056131,-10, -4, -4, 2, 3, 1, 1, 1, 1
1503514056148,-2, -2, -1, -1, -3, -1, -1, 0, 1
1503514056168,0, 15, 16, 4, 1, -1, -1, -6, 1
1503514056191,-9, -7, -5, -2, -2, -2, -1, -11, 1
1503514056206,6, -3, 2, -1, 0, -2, -1, 2, 1
1503514056228,4, -1, -9, 7, 6, 4, 0, 3, 1
1503514056251,-9, -6, -2, -6, -4, -3, 0, -2, 1
1503514056266,4, -5, -5, -2, -3, -2, -5, -1, 1
1503514056282,-10, -14, -6, 0, 2, 1, 0, 1, 1
1503514056296,0, 3, 2, 0, -2, -1, 0, -4, 1
1503514056318,4, -1, -6, -1, 0, 0, -1, -26, 1
1503514056341,8, 9, 3, 0, -2, -3, -3, -2, 1
1503514056355,8, 0, -5, -4, -2, -2, 0, 3, 1
1503514056378,-4, 6, 2, -2, -4, -3, -3, 6, 1
1503514056401,-2, 1, 2, 0, -2, -1, -1, 3, 1
1503514056417,16, 28, 16, 7, 4, 0, -1, -2, 1
1503514056432,-4, -6, -1, -3, -1, -3, -5, -11, 1
1503514056446,-3, -1, 1, -6, -3, -1, 3, 5, 1
1503514056468,-1, -1, -5, -8, -5, -5, -1, 4, 1
1503514056476,-6, -7, -5, 1, 6, 3, 1, 5, 1
1503514056498,-3, -1, 1, -3, -10, -25, -2, -3, 1
1503514056521,-12, -13, -10, -5, -1, 5, -1, -1, 1
1503514056535,-8, -2, -3, -3, -1, 3, -1, 0, 1
1503514056558,3, 4, 3, -1, -1, 1, -2, -18, 1
1503514056581,2, -1, 6, 15, 14, 0, 4, 3, 1
1503514056595,-3, -2, 0, -4, 2, 33, 11, 5, 1
1503514056618,-9, -2, 4, 4, 6, -4, -2, 1, 1
1503514056642,1, -5, -9, -7, -7, -10, -7, -5, 1
1503514056655,-10, -4, -4, -5, -3, 2, -4, -12, 1
1503514056678,3, -3, -2, -5, -5, -4, -3, 5, 1
1503514056700,1, -5, -2, -3, -23, -31, -5, 4, 1
1503514056716,18, 21, 8, -3, 0, 2, -1, 9, 1
1503514056738,2, -6, -7, -3, 7, 10, 5, 12, 1
1503514056761,-1, -2, -2, -6, -14, -25, -8, 2, 1
1503514056777,-7, 0, 2, 6, 4, 6, -1, 0, 1
1503514056798,-9, -11, -1, -1, -3, 3, -2, -6, 1
1503514056821,-5, -2, 1, 8, 13, 17, 3, 0, 1
1503514056835,-6, 0, -2, -3, -3, 3, 4, -14, 1
1503514056858,-10, 5, 3, -1, 8, 3, -6, -31, 1
1503514056881,-2, -4, -7, 0, 1, 4, 0, 0, 1
1503514056888,-4, 0, -1, -6, -5, -2, 3, -2, 1
1503514056912,0, -1, -2, -2, 6, 8, 0, 1, 1
1503514056933,4, 1, 0, 1, -3, -3, -1, 15, 1
1503514056955,-11, -3, -3, -2, 2, 14, 0, 4, 1
1503514056971,-14, -14, -8, 2, 6, -1, -6, -18, 1
1503514056986,-3, 0, 0, 2, -3, 0, 5, 2, 1
1503514057011,3, 0, 4, 2, -2, -5, -2, -10, 1
1503514057031,8, 0, -2, -2, -12, -26, -2, 13, 1
1503514057047,3, 1, 2, -2, -1, -3, -3, -1, 1
1503514057068,-7, -1, -2, -1, 0, -2, -5, -12, 1
1503514057091,3, 3, 1, -3, -1, 2, 5, 18, 1
1503514057106,-3, -2, -5, -2, -1, 1, -2, 12, 1
1503514057128,0, 14, 6, 3, 4, 4, -1, 5, 1
1503514057153,-2, -5, -1, 0, -1, -2, -2, -39, 1
1503514057173,-6, -9, -6, -1, 0, 2, -3, 0, 1
1503514057188,-10, -4, -2, -2, -5, -4, -6, -14, 1
1503514057212,-1, 0, -4, -5, -2, -2, 4, 39, 1
1503514057233,15, 4, -2, -1, -2, -1, -4, 1, 1
1503514057249,-4, -6, 1, 0, 0, -1, -2, -19, 1
1503514057271,1, 2, 2, -2, 2, 4, 4, 12, 1
1503514057293,-5, -5, -1, 4, -1, 3, -1, 6, 1
1503514057309,-2, -1, 0, -1, -2, -4, 0, -1, 1
1503514057331,6, 0, -2, -5, -4, -5, 1, -7, 1
1503514057354,-11, -2, 1, 2, 2, 5, -2, -8, 1
1503514057368,-5, 2, -3, -10, -6, -4, -7, -16, 1
1503514057391,8, 3, 8, 2, -1, 2, -1, 8, 1
1503514057413,-7, -4, -4, -2, -3, -5, -1, -22, 1
1503514057428,-1, 0, 0, 1, 2, 3, -1, -4, 1
1503514057451,1, -1, -3, -2, -3, -2, 1, 7, 1
1503514057473,-8, -2, -2, -6, -6, -4, 2, -2, 1
1503514057489,1, -1, -2, 3, 5, 4, 2, -8, 1
1503514057511,-4, -3, -3, -1, -1, -5, -5, -1, 1
1503514057533,-2, -6, 0, 3, 1, 1, -1, 9, 1
1503514057550,14, 1, -2, 7, 6, -2, 3, 10, 1
1503514057571,-5, -1, -1, 3, 3, 3, -2, -14, 1
1503514057593,0, 3, 3, -3, -4, -4, -3, -10, 1
1503514057608,2, -1, 2, -5, -1, 0, -1, -5, 1
1503514057631,-7, -4, -5, -5, -5, -3, -4, -37, 1
1503514057653,-5, 0, 1, -4, -2, 3, 0, 5, 1
1503514057668,14, 3, -4, -4, -11, -17, -2, 2, 1
1503514057691,-9, -1, 2, -2, 2, 3, 0, 10, 1
1503514057713,7, -3, -1, 2, 2, 2, 1, 5, 0
1503514057720,-8, 0, -1, 1, -2, -3, -1, -25, 0
1503514057728,1, 0, 1, 10, 7, 0, 2, 10, 0
1503514057752,4, 0, 1, 8, 18, 7, 5, 25, 0
1503514057773,0, -4, -10, -9, -9, -3, -6, -10, 0
1503514057789,11, 8, 4, 1, 0, 0, -4, 6, 0
1503514057811,-18, -9, -3, -6, -3, -1, -1, -13, 0
1503514057833,-3, -1, -1, -7, -11, -2, 3, 19, 0
1503514057852,-2, -5, 1, 5, 3, 9, 0, -2, 0
1503514057871,-6, -4, -5, -4, -5, 0, -1, -6, 0
1503514057893,2, -3, -2, -1, 0, -4, 1, 12, 0
1503514057908,-5, 1, 1, 5, 3, -1, -2, -22, 0
1503514057931,-8, -3, 1, -3, -4, -3, -2, -7, 0
1503514057953,2, 3, 1, 2, -1, -2, 0, -3, 0
1503514057968,-4, -1, -1, -3, 7, 2, -2, 0, 0
1503514057985,2, 7, 5, 1, -2, 1, 1, -5, 0
1503514057998,9, 0, 0, 0, 0, 2, 3, 20, 0
1503514058021,-5, -5, -2, -6, -4, -3, -4, -3, 0
1503514058043,-1, -1, -1, 4, 8, 5, 3, 1, 0
1503514058058,6, -8, -9, -8, -8, -3, -2, 5, 0
1503514058080,6, 0, 1, 0, -1, -1, 1, 10, 0
1503514058103,-9, -6, -1, 2, 2, 1, 0, -10, 0
1503514058125,-8, 2, -2, 0, -2, -5, -5, -13, 0
1503514058140,2, 0, 3, -3, -3, -2, -1, 1, 0
1503514058170,-1, -3, -7, 0, 9, 1, -5, -2, 0
1503514058187,-9, -7, -3, -2, -4, -2, -4, -19, 0
1503514058200,1, 9, 2, -2, -3, -1, 0, -1, 0
1503514058223,-2, 3, 3, -2, 0, -1, 1, 2, 0
1503514058245,4, 1, 3, -1, -3, -1, 1, 2, 0
1503514058260,3, 2, 2, 3, 0, 0, 0, -4, 0
1503514058283,-4, 2, 0, 3, 1, -1, -1, 2, 0
1503514058305,0, -3, -5, 0, -1, -2, -1, -1, 0
1503514058321,-1, -1, 1, -4, -5, 1, -3, 0, 0
1503514058343,3, 13, 8, 0, 0, 0, 0, 1, 0
1503514058365,1, -14, -16, -1, 0, 0, 1, 5, 0
1503514058380,-7, -12, -9, -3, 1, -1, -1, -4, 0
1503514058403,-3, -3, 0, -6, -4, -3, -2, -1, 0
1503514058427,2, 0, -2, -2, -1, -1, -1, 0, 0
1503514058441,-4, -4, -4, 3, 3, 1, 0, -1, 0
1503514058463,1, 2, 0, 2, -2, -3, -3, -1, 0
1503514058487,3, 1, 1, -2, 0, 0, -1, 1, 0
1503514058494,2, 2, 3, 2, 2, 0, -1, 0, 0
1503514058516,-2, 2, 3, 3, 4, 4, 3, 4, 0
1503514058531,-1, -5, -7, -1, -1, 1, 2, 2, 0
1503514058555,2, 8, 1, -1, -2, -3, -5, -3, 0
1503514058575,0, 0, 3, -1, -3, -5, -5, -3, 0
1503514058591,-3, 0, 2, 6, 8, 1, -1, -4, 0
1503514058613,1, -6, -3, -2, -4, 0, 0, 0, 0
1503514058625,-1, -3, -6, 0, 1, 0, -2, -5, 0
1503514058643,-5, -3, 0, -5, -4, -1, 1, -3, 0
1503514058667,1, 9, 2, 0, 0, -2, -2, 0, 0
1503514058680,-1, -3, -6, -6, 2, -1, 0, -1, 0
1503514058704,2, -4, 0, 9, 5, 2, 2, 5, 0
1503514058725,1, 6, 10, 6, 1, -3, -5, -2, 0
1503514058742,-8, -10, -7, -7, -6, -2, 0, -5, 0
1503514058764,2, -1, -4, -4, -5, 0, 1, 5, 0
1503514058785,3, 5, 6, 11, 14, 4, 2, 2, 0
1503514058800,6, 16, 16, 13, 3, 1, 1, 4, 0
1503514058824,-1, -3, -2, -6, -5, -1, -3, 0, 0
1503514058833,-1, 2, -1, -7, -7, -2, -2, -6, 0
1503514058856,-5, -6, -8, -7, -2, -1, -2, -4, 0
1503514058875,1, 2, 2, 7, 12, 2, 0, 4, 0
1503514058892,-1, -5, 2, 1, -5, -1, 3, 5, 0
1503514058913,-1, 0, -5, -5, -6, -3, -2, -4, 0
1503514058935,2, -2, -4, -8, -5, -3, -2, 3, 0
1503514058951,1, -3, 1, 8, 3, 0, 0, 3, 0
1503514058973,2, 7, 7, -3, -4, 0, 2, 2, 0
1503514058995,2, 9, 10, 7, 2, -1, -1, -6, 0
1503514059011,-2, -5, 1, -1, 1, 0, -1, -7, 0
1503514059035,4, 6, -2, -1, -3, -6, -6, 2, 0
1503514059058,-3, -8, -14, -21, -17, -4, -1, -1, 0
1503514059078,3, 12, 2, -3, -7, -2, 3, 11, 0
1503514059093,0, -9, -3, 2, 4, -2, -4, -10, 0
1503514059116,-3, -1, -1, 1, 3, 0, 1, -4, 0
1503514059138,0, -8, -2, 8, 8, 2, 0, 1, 0
1503514059153,-2, 6, 6, 0, 1, -1, 0, -3, 0
1503514059175,-5, -5, -8, -7, -4, -2, -2, -2, 0
1503514059198,-3, 11, 1, -3, -1, -2, -2, -6, 0
1503514059213,1, -8, -4, 2, -1, 0, -3, 0, 0
1503514059235,1, 0, 1, 1, -1, 2, 1, 8, 0
1503514059261,1, 2, 10, 25, 22, 6, 0, -3, 0
1503514059273,-3, 6, -1, -8, -9, -4, -2, -5, 0
1503514059295,-3, -1, -3, -8, -6, -3, 0, 1, 0
1503514059318,-1, -3, 1, 1, 0, -2, -1, 11, 0
1503514059333,1, -1, -1, -7, -8, -2, 0, 1, 0
1503514059355,-1, -1, -1, 0, -1, -1, 0, -2, 0
1503514059378,-4, -14, -12, -2, 0, -1, -2, -4, 0
1503514059396,-4, -10, -4, -3, -2, -4, -2, -9, 0
1503514059415,8, 7, 4, 5, 3, 3, 3, 21, 0
1503514059438,-1, -3, 0, 8, 6, 0, -2, -4, 0
1503514059453,-2, -1, -3, -6, -4, -1, 1, 0, 0
1503514059475,-1, 1, 3, -4, -5, -2, -1, -7, 0
1503514059501,0, 1, -1, 1, 1, 1, 0, -2, 0
1503514059521,4, 11, 6, -1, 0, -1, -3, -6, 0
1503514059536,-21, -9, -2, -3, -3, 0, 0, -4, 0
1503514059558,-3, -1, 5, 17, 10, 2, -1, -5, 0
1503514059573,3, -3, -6, 0, 8, 8, 0, 1, 0
1503514059596,-1, -4, -5, -7, -7, 0, -1, 1, 0
1503514059618,3, -1, -3, 0, 3, -1, -2, -2, 0
1503514059634,-14, -4, 1, -6, -10, -7, -4, -7, 0
1503514059655,15, 9, 7, 12, 9, 1, 2, 2, 0
1503514059678,-1, -2, 2, -2, -5, -1, -2, 0, 0
1503514059700,-7, -1, 0, -5, -6, -4, -1, -2, 0
1503514059715,8, 5, -1, -1, 8, 0, -3, -2, 0
1503514059738,-1, -2, -5, -8, -9, -2, 1, -1, 0
1503514059753,0, 3, -1, -16, -14, -5, -2, 2, 0
1503514059775,-6, -5, -9, 0, -1, -1, 1, 1, 0
1503514059798,-8, -9, -3, 0, -1, -2, -1, -7, 0
1503514059813,6, 1, 1, 4, 0, 0, 0, 2, 0
1503514059836,1, -1, -1, -1, -3, -2, 1, -1, 0
1503514059858,-3, -3, 3, 4, 4, -2, -2, -1, 0
1503514059873,36, 16, -3, -13, -15, -1, -2, 4, 0
1503514059903,6, 4, -1, -2, -6, -10, -2, 0, 0
1503514059918,-2, 1, 2, 7, 6, 0, -1, -1, 0
1503514059934,-3, 2, 1, -3, -1, 2, -1, -2, 0
1503514059955,12, -8, -11, 0, 4, 1, 4, 7, 0
1503514059978,5, 2, 3, 2, 6, 0, -3, -2, 0
1503514060001,-8, 1, -2, 9, 15, -1, 0, -1, 0
1503514060015,-7, -2, 4, -1, 5, 3, 0, -5, 0
1503514060039,-11, -5, -1, -4, -6, -6, -3, -4, 0
1503514060060,-30, -13, -3, -3, -12, -4, -2, -5, 0
1503514060075,8, -3, -1, 3, 1, 4, 1, 7, 0
1503514060099,4, 1, 2, -4, -2, -1, 1, 0, 0
1503514060106,6, -5, -5, -8, -14, -8, -4, -2, 0
1503514060127,-4, -3, -4, -3, 8, 1, -2, -3, 0
1503514060150,0, 6, 14, 4, -2, 3, 1, 1, 0
1503514060166,21, 4, -5, -2, -3, -2, -3, -7, 0
1503514060187,-7, -9, -5, -2, -7, -3, 1, -5, 0
1503514060210,1, -1, -4, 2, 4, 1, -2, 0, 0
1503514060225,-5, -5, -4, 1, 12, 3, 1, -1, 0
1503514060247,0, -14, -7, -2, -2, 6, 3, 15, 0
1503514060270,4, 2, 0, -6, -4, -3, -1, 6, 0
1503514060285,0, 0, -2, -7, -14, -7, -4, -2, 0
1503514060308,2, 3, 3, -2, -5, -3, -1, -3, 0
1503514060330,-4, 4, 5, 2, -1, -1, 0, -2, 0
1503514060345,-1, -4, -10, -3, -6, 0, -2, -2, 0
1503514060367,-7, -5, -7, 2, 13, 4, 0, 4, 0
1503514060377,-16, -9, -3, -4, 1, 0, -1, -7, 0
1503514060398,10, 5, 4, -3, -3, -4, 0, 12, 0
1503514060420,19, 8, 3, 2, 2, 0, 0, 1, 0
1503514060435,-13, -11, -1, -2, -3, -2, -2, -5, 0
1503514060458,-1, -2, -1, 5, 19, 10, 2, 1, 0
1503514060480,2, 21, 10, 7, -2, -2, -2, -4, 0
1503514060495,-6, -16, -14, -4, -5, -3, -1, -4, 0
1503514060512,-1, -3, -5, -3, -2, -3, -2, 4, 0
1503514060525,11, 4, -3, 0, -3, -1, 3, -1, 0
1503514060547,-7, -6, -6, -2, -1, -3, -7, -30, 0
1503514060570,0, -2, -3, 2, 2, 0, -2, 3, 1
1503514060585,6, 25, 9, 3, 2, -1, 0, 6, 1
1503514060607,-13, -13, 3, 6, 1, 0, -1, -2, 1
1503514060629,-12, -9, -5, -3, -1, -1, 1, 4, 1
1503514060646,2, -5, -4, -6, -8, 1, -3, 1, 1
1503514060670,-1, 2, 6, 1, -3, -4, 0, 0, 1
1503514060691,2, -4, -7, -4, -5, -5, 2, 12, 1
1503514060714,1, 0, 4, -2, 0, 2, 0, -3, 1
1503514060721,-17, -6, -4, -10, -12, -6, -1, -12, 1
1503514060729,1, -1, -6, -3, -5, -23, -2, -2, 1
1503514060738,1, -2, 2, -5, -10, -6, -4, -1, 1
1503514060757,-2, -4, -2, -6, -7, -6, -2, -10, 1
1503514060780,2, -1, -5, -4, 0, 3, -1, 3, 1
1503514060796,3, 2, 0, -1, -4, -3, -2, -4, 1
1503514060818,1, -2, -1, 2, -5, -1, -1, 1, 1
1503514060841,-6, -2, 1, 5, 4, 1, 0, -2, 1
1503514060855,21, 5, -4, 3, 7, -1, 0, 25, 1
1503514060878,15, 2, -5, -8, -6, -5, 1, 10, 1
1503514060900,-11, -3, 3, -2, -1, 1, -3, -18, 1
1503514060923,-2, -15, -1, 0, -2, -1, -1, -1, 1
1503514060939,-2, -17, -12, -2, -1, 0, 0, 11, 1
1503514060960,-10, 9, 9, 2, 1, 2, -1, 5, 1
1503514060983,-5, 0, -1, 1, -3, -3, -6, -8, 1
1503514060998,-1, 6, 5, 2, 8, -1, -4, -13, 1
1503514061020,-2, -1, -1, 0, -1, 1, 2, 7, 1
1503514061044,-10, -7, -9, 1, 2, 0, 0, 4, 1
1503514061058,-41, -17, -1, 2, 1, 2, -2, -44, 1
1503514061081,47, 27, 0, -2, -2, -3, -2, 9, 1
1503514061103,-17, 1, 12, 2, 1, 0, 2, -3, 1
1503514061118,5, 4, -4, -2, 0, 0, 2, 3, 1
1503514061144,6, -1, -3, -1, -3, 0, 1, 5, 1
1503514061163,2, -2, -1, -3, -1, -3, -2, 16, 1
1503514061178,3, 6, 11, 3, -3, 1, 1, 0, 1
1503514061201,0, 11, -4, -5, -1, 9, -2, -9, 1
1503514061223,-13, -12, -6, -3, -1, -3, -5, -15, 1
1503514061240,-7, -6, -1, -4, -3, -1, 2, -14, 1
1503514061260,-8, -6, -6, -1, 0, -3, 3, 1, 1
1503514061283,-4, -2, 5, 2, 0, -2, -1, 3, 1
1503514061307,2, -7, -5, 0, 0, 0, 0, 3, 1
1503514061320,2, -1, -2, -5, -4, -2, 2, 10, 1
1503514061344,-4, 6, 8, 2, 1, 2, 3, -3, 1
1503514061358,2, -10, -7, 0, 0, -2, -3, -3, 1
1503514061381,3, 6, 0, -3, -4, -3, -5, -1, 1
1503514061403,0, 10, 10, 9, 6, 1, 1, 5, 1
1503514061418,-6, 0, 0, 3, 2, -1, -1, 1, 1
1503514061442,4, -9, -8, -3, -3, -2, -4, -15, 1
1503514061463,16, 5, 0, -3, 0, -1, -1, 15, 1
1503514061479,5, 3, 3, 4, 0, 3, 0, 20, 1
1503514061500,-2, -4, -2, -1, -1, 0, 2, 15, 1
1503514061524,-16, -6, -3, -3, -3, -3, 2, -8, 1
1503514061538,-24, -4, -6, -5, -4, -4, -8, -33, 1
1503514061560,-2, 1, 1, 0, 1, 2, 0, -11, 1
1503514061583,14, 2, 0, -1, -1, -1, -4, -8, 1
1503514061598,28, 11, 0, -3, -3, -4, -4, 4, 1
1503514061620,-26, -8, 6, 4, 2, 0, -1, -42, 1
1503514061643,2, -3, -5, -1, 0, 1, 4, 15, 0
1503514061658,14, 4, -4, -1, -1, -2, -1, 24, 0
1503514061681,9, 3, -1, -1, -3, 0, -1, 18, 0
1503514061703,-14, -8, -3, -3, -2, 2, 6, 43, 0
1503514061718,-6, -4, -5, -7, -12, -6, -5, -11, 0
1503514061740,-1, -10, -8, -3, -1, -1, -4, -48, 0
1503514061762,-1, 5, 3, -2, -3, -2, 2, 30, 0
1503514061771,4, 9, 5, 0, -2, -4, 2, 35, 0
1503514061793,4, -5, -8, -5, -4, -2, -4, 3, 0
1503514061816,8, -5, -5, -3, -2, -3, -3, -4, 0
1503514061831,-12, -13, -9, -3, -3, -1, 1, -9, 0
1503514061853,-1, 5, 2, 1, -1, -2, -1, -13, 0
1503514061877,-7, -4, -5, -2, -1, -1, -4, -24, 0
1503514061891,17, -1, -3, 0, -1, 1, 0, 31, 0
1503514061913,-4, 6, 6, 1, 1, 1, 5, 16, 0
1503514061936,-4, -3, 7, 5, 4, 2, 4, -15, 0
1503514061951,5, 20, 0, -1, -1, 0, -6, -18, 0
1503514061973,-7, -12, -3, 1, 0, 0, -1, -16, 0
1503514061995,-4, -4, -1, 0, 0, -3, -6, 4, 0
1503514062013,13, 4, 2, 0, 0, -2, 1, 3, 0
1503514062034,3, -3, 2, -1, 5, 2, -2, -7, 0
1503514062055,-9, 1, 1, -3, -5, -2, 0, -3, 0
1503514062062,-5, 7, 5, 0, -1, 0, -7, -22, 0
1503514062085,-6, -5, -3, -1, -1, -1, -1, -3, 0
1503514062100,9, 2, -4, 0, 1, 2, -7, -35, 0
1503514062123,3, 7, 8, 4, 2, 1, 1, 32, 0
1503514062146,1, -5, 2, 3, 1, -3, 3, 0, 0
1503514062154,2, 15, 12, 0, 0, 1, 4, 14, 0
1503514062176,-5, -9, -4, 4, 3, 4, 3, 9, 0
1503514062191,3, -4, -6, 0, 3, 0, -1, 8, 0
1503514062214,-6, 2, 1, -3, -7, -5, -3, -5, 0
1503514062221,0, -4, -7, -4, -1, -4, 2, 1, 0
1503514062242,8, -10, -8, 5, 4, 0, 12, 84, 0
1503514062251,3, -9, -5, -3, -5, -3, 2, 12, 0
1503514062266,18, 2, -4, -3, -3, 0, 4, 21, 0
1503514062282,-10, -6, -1, 3, 9, 0, -1, -4, 0
1503514062303,5, 1, 1, -1, -6, -3, -1, 13, 0
1503514062325,-5, -7, -6, -4, -3, 1, 1, -1, 0
1503514062340,-7, -5, 2, -1, -5, -2, -2, -4, 0
1503514062366,-7, -5, -4, -1, -2, 0, 2, -15, 0
1503514062386,2, 1, -4, -3, -1, 1, 1, 18, 0
1503514062400,4, 1, -2, -2, -1, 0, -3, -9, 0
1503514062424,8, 3, 2, 0, -1, -3, -4, 1, 0
1503514062452,5, 24, 11, 5, 3, 1, -2, 0, 0
1503514062460,2, -8, -5, 4, 8, 3, 1, 1, 0
1503514062483,17, 5, 1, 0, -1, -3, -3, -3, 0
1503514062491,-8, -5, -3, -2, 1, 0, -1, -11, 0
1503514062517,7, 1, -1, 3, 2, 1, -3, 2, 0
1503514062535,-1, 1, 1, 2, 2, 1, -2, 4, 0
1503514062551,-3, -4, -9, -13, -8, -2, 1, -3, 0
1503514062573,-9, 8, 13, 0, 1, 1, -3, -3, 0
1503514062595,1, -8, -2, 0, -2, -4, -3, -7, 0
1503514062603,-3, 0, 2, -1, -1, -1, -1, 13, 0
1503514062625,-6, -15, -14, -12, -9, -3, -4, -5, 0
1503514062640,-12, -1, 0, -8, -4, -2, -3, -24, 0
1503514062663,-2, 10, 9, 3, -2, -2, -1, -7, 0
1503514062686,-9, -4, -6, 0, 2, 1, 0, -8, 0
1503514062700,-7, -6, -5, 6, 7, 1, -2, -7, 0
1503514062723,-2, -5, -4, -3, -1, -1, 0, 7, 0
1503514062747,3, -5, -8, 3, 2, -1, 1, 3, 0
1503514062768,-4, -7, -11, -8, -7, -3, -2, -1, 0
1503514062785,5, 6, 1, -4, -3, -2, 0, 9, 0
1503514062805,5, 1, 5, 14, 11, 3, 0, 3, 0
1503514062828,0, -4, 3, -3, -4, 0, 0, 3, 0
1503514062843,-5, 6, 7, 0, -2, 0, -1, -5, 0
1503514062865,-1, -6, -2, -5, -6, -2, 0, 2, 0
1503514062888,-5, -1, -2, -5, -4, -2, -2, -3, 0
1503514062902,0, 15, 11, 5, -1, -2, 0, -7, 0
1503514062925,-6, -16, -4, 3, 3, 0, 0, -1, 0
1503514062948,4, 2, 2, 3, 3, 1, -4, -6, 0
1503514062963,4, 7, 4, 1, 0, -4, -3, 24, 0
1503514062986,6, 10, 4, -6, -6, -1, -1, 20, 0
1503514063008,-4, -12, -13, -7, -5, -1, 0, -9, 0
1503514063017,-3, -6, -8, -9, -9, -2, -3, -24, 0
1503514063037,-1, 4, -2, 1, 0, -1, -4, 1, 0
1503514063045,-3, -12, -5, 1, 1, 1, 2, -8, 0
1503514063068,1, -4, -4, -1, 10, 5, 3, 1, 0
1503514063083,-2, 15, 2, -1, -6, -2, 1, -6, 0
1503514063105,-6, -13, -6, 0, -1, -2, -2, -3, 0
1503514063129,-7, 3, 2, -1, -1, 0, -2, -10, 0
1503514063143,-1, -9, -10, -11, -9, -3, -4, -6, 0
1503514063165,-2, -7, -5, -5, -8, -2, -1, 3, 0
1503514063193,-1, 2, 0, 0, 1, -1, 0, -4, 0
1503514063203,3, -2, -1, -1, 0, 1, 3, 11, 0
1503514063227,4, 1, -4, -2, -1, 1, -4, -10, 0
1503514063248,1, 3, -4, -9, -5, -2, 0, -4, 0
1503514063263,3, 25, 24, 9, 2, 0, 1, -26, 0
1503514063289,9, 39, 12, 10, 7, 0, -6, 7, 0
1503514063307,-4, -14, -9, 2, 1, -1, 0, 6, 0
1503514063323,-3, -7, 0, 1, -2, 0, 1, 8, 0
1503514063345,0, -7, -4, -3, -3, -1, 2, 5, 0
1503514063368,-1, -10, -3, 1, 4, 0, 0, 2, 0
1503514063382,10, 6, 7, 2, -1, -1, -1, 20, 0
1503514063405,-5, -15, -15, -10, -6, -2, 0, -11, 0
1503514063428,-1, -4, -4, -1, -2, -3, -5, -5, 0
1503514063442,-4, -6, 3, 6, 14, 5, -2, -9, 0
1503514063465,2, 9, 1, -3, -2, 0, 6, 5, 0
1503514063489,-4, -8, -4, -9, -9, -5, -7, -5, 0
1503514063504,4, 3, 2, 1, -2, 2, 3, 28, 0
1503514063525,-6, -3, -4, 4, 2, -4, -3, -10, 0
1503514063534,1, 0, -2, 8, 23, 7, 1, 2, 0
1503514063548,2, -2, -2, -4, -9, -5, -2, 1, 0
1503514063563,-2, -11, -2, 5, 5, 0, -3, 1, 0
1503514063585,-8, -3, 2, 2, 0, -2, -7, -14, 0
1503514063608,-6, -3, -6, -3, -3, 0, -2, -7, 0
1503514063624,0, 0, -2, -2, -2, -3, -1, -7, 0
1503514063645,2, 1, 3, -2, -5, -1, 0, 4, 0
1503514063669,-3, 10, 6, -2, -2, -3, -2, -4, 0
1503514063683,8, 13, 8, 0, -1, 0, 5, 33, 0
1503514063705,0, 13, 2, -3, -2, -3, -5, -15, 0
1503514063728,1, -6, -6, 1, 2, 0, 2, 2, 0
1503514063750,1, -6, -8, -4, -1, 0, -1, -8, 0
1503514063766,-5, -15, -13, -4, -1, -1, -1, -14, 0
1503514063788,-4, -6, 2, 3, 2, 1, -2, -9, 0
1503514063796,-1, 0, 1, -2, 0, -3, -1, 2, 0
1503514063818,3, 2, -1, -3, -4, 0, -2, -3, 0
1503514063840,3, 4, 1, -1, -1, -1, -2, -7, 0
1503514063858,-4, 9, 5, -1, -3, -2, -4, -7, 0
1503514063870,-3, 1, 0, -2, 0, -1, 0, -1, 0
1503514063885,2, 1, -3, 0, -1, -2, -1, 0, 0
1503514063914,0, -9, -6, -2, -1, 1, 2, 3, 0
1503514063930,-1, 6, 0, -2, 0, -1, -1, -3, 0
1503514063945,-1, 0, -1, -2, -2, 1, -1, -3, 0
1503514063962,1, -5, -6, -9, -3, -2, 1, 4, 0
1503514063976,-1, -1, -2, -1, 1, 1, -1, -1, 0
1503514063998,0, -4, -5, 0, 1, -1, -1, -3, 0
1503514064020,1, -2, -2, 1, 2, -1, -2, 0, 0
1503514064035,3, -2, 3, 1, -1, 0, -2, -1, 0
1503514064060,-2, 9, 8, 3, -1, -2, -1, 2, 0
1503514064087,-3, -2, -1, -4, -4, -1, 1, -4, 0
1503514064096,-2, -3, -1, -2, -1, 0, 1, 2, 0
1503514064118,-2, -15, -7, -2, -3, -1, 0, 16, 0
1503514064140,-4, -4, -6, -1, -1, -2, -1, -9, 0
1503514064155,0, 6, 4, -1, -1, 0, -1, -4, 0
1503514064177,1, 8, 4, -1, -3, -2, -3, -6, 0
1503514064203,-4, -5, -8, -4, -1, -3, 0, 0, 0
1503514064216,-3, 2, 6, 8, 10, 4, -2, -6, 0
1503514064238,-1, 1, 0, -4, -6, -2, -3, -1, 0
1503514064262,-15, 3, 5, 5, 3, 1, 0, -2, 0
1503514064275,-12, -4, 0, 7, 7, 2, 0, -5, 0
1503514064289,8, 1, 1, 22, 22, 8, 3, 3, 0
1503514064305,7, 2, -2, -9, -4, -2, -3, -3, 0
1503514064328,17, 2, -2, -5, -5, -5, -1, 2, 0
1503514064350,3, 21, 13, 6, 0, 1, 1, 0, 0
1503514064366,-7, -5, -3, 1, 2, -2, -3, -2, 0
1503514064387,-15, -18, -5, -14, -9, -3, 1, 6, 0
1503514064410,7, 9, 9, 1, -1, -1, 0, 1, 0
1503514064425,-28, -7, 3, 2, 1, 2, 1, -5, 0
1503514064447,-3, -10, -5, -3, -8, -1, 0, -6, 0
1503514064470,-1, -6, -7, -5, -6, -6, -2, -1, 0
1503514064485,-21, -11, -7, -3, -9, -4, -3, 1, 0
1503514064501,0, 39, 28, 6, 4, 2, 0, 2, 0
1503514064508,7, -9, -18, -6, -1, 1, 0, 3, 0
1503514064531,-8, -5, -4, -3, -3, -1, -1, -3, 0
1503514064545,-14, -10, -7, 0, -1, -2, -2, -14, 0
1503514064568,1, -1, 4, 8, 8, 2, 2, 3, 0
1503514064589,-6, 5, 9, 4, 2, 0, -1, 1, 0
1503514064598,-4, -9, -10, -8, -4, -1, -2, 0, 0
1503514064620,-41, -11, -3, 1, 0, -1, -2, -13, 0
1503514064643,4, -1, -1, -1, 0, -1, -2, -5, 0
1503514064657,10, 8, 3, 10, 16, 4, 1, 3, 0
1503514064680,8, 5, -1, -4, -2, -3, -2, 2, 0
1503514064703,21, 2, -5, 0, -1, 1, -1, -2, 0
1503514064717,-12, -13, -2, -2, -2, 0, 1, 3, 0
1503514064741,5, 16, 3, -2, -1, -1, -1, -2, 0
1503514064764,0, 1, 14, 3, -1, -2, -1, -2, 0
1503514064777,3, -4, -7, -3, -1, -3, -4, -15, 0
1503514064801,5, -3, 0, -2, -1, 1, 6, 28, 0
1503514064822,-5, -1, 0, 1, -6, -1, -1, -4, 0
1503514064838,-16, -9, -4, -1, -4, -2, 1, -1, 0
1503514064861,9, -10, -6, 1, 1, -1, -4, -4, 0
1503514064882,1, -9, -19, -9, -4, 0, 0, 11, 0
1503514064901,-9, -2, -4, 0, 2, -2, 1, -16, 0
1503514064920,7, 6, 2, -4, -2, -2, 0, 4, 0
1503514064943,0, -2, 0, 3, 11, 4, -3, 4, 0
1503514064966,4, -1, 1, -3, -5, -2, 7, 25, 0
1503514064980,20, 12, 7, 9, 13, 6, -2, -4, 0
1503514065003,-12, -5, -4, -5, -4, -1, 0, 9, 0
1503514065017,-1, -3, -12, -3, -2, 1, -2, -8, 0
1503514065042,3, 24, 4, -1, -7, -4, -3, -12, 0
1503514065062,-7, -8, -5, -2, -3, -4, -2, 9, 0
1503514065078,-3, -4, 6, 3, 2, -5, -4, -5, 0
1503514065106,-4, -1, 6, 2, 2, 1, -4, -5, 0
1503514065123,3, -15, -8, -3, -1, 0, 3, -4, 0
1503514065138,4, -10, -4, -1, 1, -1, -2, -8, 0
1503514065160,-1, 3, 6, 4, 4, 4, -2, -4, 0
1503514065182,-19, -1, -11, 1, 2, 0, 3, -15, 0
1503514065197,0, -1, 5, 0, 1, -1, 3, 5, 0
1503514065220,-6, 4, 7, 1, -4, -1, -2, -1, 0
1503514065243,-13, -13, -4, -6, -12, -2, -1, 2, 0
1503514065250,1, 5, -1, -8, -13, -3, -3, 1, 0
1503514065272,-6, -3, 0, 3, 5, 1, -3, -10, 0
1503514065287,-8, 3, 0, -2, -3, -2, -1, 2, 0
1503514065310,18, 5, 0, -2, 1, -2, -3, 2, 0
1503514065332,21, -3, -6, -5, -2, -1, 2, 3, 0
1503514065348,-25, -14, -5, 4, -2, 3, 0, -5, 0
1503514065370,8, 4, 2, -4, -6, 0, 1, 5, 0
1503514065392,-1, -14, -5, -1, 4, -1, 5, 5, 0
1503514065408,25, 19, -3, 5, 14, 5, 2, 4, 0
1503514065429,-2, 5, 2, 1, -6, -4, -3, -10, 0
1503514065452,3, 2, -3, -1, -1, -3, -3, 2, 0
1503514065469,-15, -3, 15, 5, 4, 2, 5, -2, 0
1503514065483,-3, -12, -14, -4, 2, 4, 0, 0, 0
1503514065497,-5, 9, 18, 12, 6, 6, 2, 9, 0
1503514065521,-5, 0, -3, 22, 32, 12, 5, 3, 0
1503514065542,4, 5, 4, 1, -4, -4, -5, -12, 0
1503514065550,31, 16, -5, -8, -3, -4, -1, 20, 0
1503514065572,-5, -5, -3, -6, -8, -3, -3, -8, 0
1503514065594,10, 6, -4, -4, 2, 1, 0, 10, 0
1503514065609,-16, -9, 3, 13, 27, 1, -2, -8, 0
1503514065632,-17, -12, -9, -8, -10, 1, -3, -10, 0
1503514065654,-12, -15, -22, -13, -13, -6, -3, -12, 0
1503514065673,16, 5, -1, -4, -6, -1, 1, 5, 0
1503514065692,13, 15, 4, 1, -2, 0, -1, -17, 0
1503514065714,0, 3, 14, 4, -1, 1, -1, -8, 0
1503514065730,-4, -8, -10, -6, -3, 0, 1, -2, 0
1503514065752,-13, 7, -12, -2, 1, 1, 1, 1, 0
1503514065782,-17, -10, 1, -3, -3, -2, -3, -25, 0
1503514065790,1, 17, 12, 6, 3, -1, -3, -20, 0
1503514065812,4, -8, -5, -7, -7, -3, -4, -18, 0
1503514065834,-2, 2, -1, 2, 3, 1, 3, 13, 0
1503514065865,9, 4, 1, -15, -35, -8, -4, 8, 0
1503514065881,-5, 0, 4, 2, 4, 3, -1, -19, 0
1503514065902,4, 4, 6, 10, 11, 0, 0, -5, 0
1503514065925,25, -7, -9, -7, 2, -3, 0, 18, 0
1503514065940,-8, -2, 13, 7, 10, 2, -2, 4, 0
1503514065962,-6, -6, -9, -6, -5, -4, -4, -10, 0
1503514065985,-6, -7, -3, 5, 17, 2, -2, -13, 0
1503514066000,10, 4, -3, 5, 5, 0, -5, -20, 0
1503514066022,-16, -4, 1, 1, -6, -3, 1, 2, 0
1503514066045,9, 2, 3, 15, 23, 9, 2, 1, 0
1503514066060,-18, -26, -11, -17, -23, -9, -1, -3, 0
1503514066083,-2, -12, -6, -4, -6, -2, 1, -3, 0
1503514066108,-18, 7, 4, -2, 1, 1, 0, -22, 0
1503514066120,-14, 17, 6, -4, -12, -9, -7, -2, 0
1503514066143,10, 6, 0, -5, -8, -4, -1, -4, 0
1503514066165,-8, 6, 9, 5, 6, 5, 2, 2, 0
1503514066180,-6, -15, -11, 0, 3, 4, -1, 8, 0
1503514066202,10, -7, -9, -1, 6, -1, -2, 0, 0
1503514066225,-24, -5, 9, 5, 2, 1, -1, -2, 0
1503514066242,-5, -10, -14, -5, 2, -1, -3, 0, 0
1503514066262,17, -10, -20, -7, -3, 0, 1, 21, 1
1503514066285,-4, -11, -8, -10, -26, -11, -1, -11, 1
1503514066300,2, -1, -7, -5, -4, 1, 4, 10, 1
1503514066322,22, 46, 50, 23, 13, 2, -1, -15, 1
1503514066345,17, -3, 3, 1, 10, 2, -1, 7, 1
1503514066360,8, 2, -9, -20, -24, -8, -2, 6, 1
1503514066382,0, 5, 2, -8, -9, 2, 0, 6, 1
1503514066398,-27, -17, -12, -1, -4, -4, -5, -25, 1
1503514066413,8, -3, -7, -7, -9, -4, 1, -4, 1
1503514066435,11, 16, 15, 0, -1, -2, -2, -3, 1
1503514066458,18, 9, 8, 17, 25, 10, 2, 34, 1
1503514066473,-6, 3, -4, -11, -11, 0, 6, 6, 1
1503514066495,0, -7, -2, 4, 3, 1, 6, -8, 1
1503514066521,-1, -12, 1, -6, -7, -5, -4, -4, 1
1503514066533,-1, -3, -7, -1, 5, 4, -3, -2, 1
1503514066555,6, 17, 3, 0, -12, -3, -1, -9, 1
1503514066579,2, -1, -1, -7, -13, -9, -8, 0, 1
1503514066593,-1, -5, -7, -4, 0, 2, 6, 10, 1
1503514066616,-2, 0, -9, -3, 2, -7, -4, -1, 1
1503514066638,8, -1, -6, -6, -9, -5, 1, 4, 1
1503514066646,-13, -26, -14, 3, 11, 1, -4, -15, 1
1503514066667,3, -7, -2, -9, -15, -6, 1, 20, 1
1503514066683,-3, 10, 13, 17, 19, 3, -1, -15, 1
1503514066705,14, 24, 9, 2, -4, -2, -3, 4, 1
1503514066735,-21, 0, -15, -11, -11, -7, 3, 6, 1
1503514066743,-1, 1, 1, -5, -2, 0, -1, -4, 1
1503514066765,1, -3, -6, -13, -20, -7, -1, -12, 1
1503514066788,2, -5, 16, 9, -2, 0, 6, 14, 1
1503514066802,8, -4, -11, 7, 12, 7, 3, -8, 1
1503514066825,23, 14, -1, -12, -3, -6, -4, 1, 1
1503514066848,-6, 3, 10, 16, 15, 3, -11, -14, 1
1503514066862,13, 5, 3, 7, 13, 3, -4, 10, 1
1503514066885,-3, -9, -4, -10, -17, -8, 6, 0, 1
1503514066907,-19, -4, 3, 5, 6, 9, -9, -36, 1
1503514066922,-12, 10, -1, -2, -6, -6, -10, -27, 1
1503514066946,14, 7, -9, -7, -10, -4, 2, 20, 1
1503514066967,19, 12, 3, -3, -8, -2, 2, 18, 1
1503514066976,6, 2, -1, 2, -3, -5, 1, 20, 1
1503514066998,7, -1, -1, -1, -3, -4, 0, 28, 1
1503514067014,10, 9, 6, 5, 3, -1, 1, -7, 1
1503514067035,18, 2, -2, -9, -16, -11, -2, 0, 1
1503514067058,-3, 4, 8, 7, 10, -15, -4, 5, 1
1503514067073,-3, -5, -8, 1, -5, 2, -1, 4, 1
1503514067095,1, 14, -1, 0, -4, -8, -4, -16, 1
1503514067119,0, 1, 1, -3, 18, 11, -1, 2, 0
1503514067133,-18, -4, -7, -14, -22, -10, -4, 0, 0
1503514067156,-17, -11, -11, -1, -3, 0, -6, -16, 0
1503514067178,12, 0, -8, 2, 3, 5, 5, 60, 0
1503514067201,1, 6, 4, 4, 7, 5, 3, 9, 0
1503514067217,-3, -5, -3, -2, 6, 1, -1, -5, 0
1503514067239,25, 14, 20, 7, -1, -3, -3, 13, 0
1503514067253,-11, -12, -4, -3, -4, 1, -1, -28, 0
1503514067276,-9, -5, -5, 1, 2, 0, 3, 7, 0
1503514067298,-4, 0, 2, 5, 3, 0, -2, -8, 0
1503514067313,10, 0, -1, -4, -9, -5, -1, 14, 0
1503514067336,-7, 0, -5, -2, 8, 6, 1, -6, 0
1503514067359,1, 4, -1, -8, -12, -5, -4, -9, 0
1503514067373,-6, -2, -1, -4, -12, -5, 3, -5, 0
1503514067395,-2, -8, -1, 1, 8, -2, -3, -9, 0
1503514067418,6, 3, 1, 1, -5, -4, -2, -2, 0
1503514067440,-9, -6, -7, -2, 1, 2, -2, 11, 0
1503514067463,8, 3, 0, 1, 4, 3, 5, 22, 0
1503514067478,33, 6, 4, 3, 1, -1, -7, -6, 0
1503514067500,-19, -2, 2, -1, -8, -9, 5, 15, 0
1503514067522,-7, 5, -1, -3, -1, -1, -9, -19, 0
1503514067540,-12, -2, -6, -2, 0, 2, -6, -20, 0
1503514067561,-3, 3, -3, -3, -1, -3, -3, -47, 0
1503514067576,-10, -2, -1, -1, -9, -12, 0, -7, 0
1503514067598,-5, -1, 6, 6, 7, 4, 2, 2, 0
1503514067624,-9, -5, 0, 5, 5, 6, 3, -14, 0
1503514067636,2, 2, 8, 0, -3, 4, 3, 18, 0
1503514067659,8, -2, -5, -6, -2, 1, 0, 9, 0
1503514067680,4, -2, 2, -1, 14, 15, 0, 24, 0
1503514067696,1, 0, 4, 1, -6, -3, 1, 1, 0
1503514067720,0, 0, -3, -4, -4, 0, 0, -13, 0
1503514067740,-22, -6, -3, -1, -3, -5, 1, -20, 0
1503514067755,15, 1, 0, -2, 2, -3, 6, 52, 0
1503514067778,12, -1, -4, -3, 3, -1, -4, 10, 0
1503514067800,-11, 7, 1, 2, -2, 3, -3, -38, 0
1503514067816,-3, -28, -20, 0, -2, -5, -5, -21, 0
1503514067838,-27, -17, -11, -1, 3, 4, -5, -61, 0
1503514067845,-6, -4, -2, -5, 0, 8, 3, 6, 0
1503514067868,11, -4, -6, -4, 0, 10, 0, -13, 0
1503514067876,17, 7, 3, -1, -7, -5, -5, 10, 0
1503514067898,-12, 1, 9, 3, -1, -1, -4, -9, 0
1503514067923,-18, -2, 2, -1, -2, 0, -6, -3, 0
1503514067936,-9, -5, 3, 1, -1, 2, 6, 10, 0
1503514067962,7, 7, 1, 6, 16, 6, 1, -5, 0
1503514067980,-9, -9, -12, -7, -8, -2, 0, -7, 0
1503514067997,-7, -3, -1, -2, -4, -1, 0, 23, 0
1503514068011,-8, -7, -6, -2, -3, -8, -3, -33, 0
1503514068025,-19, 2, 10, 5, 3, 0, 0, -6, 0
1503514068048,10, -3, -18, -8, -2, -1, 2, 9, 0
1503514068070,4, 4, 6, 2, 0, 4, 4, 0, 0
1503514068088,2, -7, -7, 1, 6, 2, -2, 0, 0
1503514068108,-10, -5, -8, -1, 5, 14, 4, -44, 0
1503514068130,6, 12, 14, 8, 5, 1, -2, -10, 0
1503514068139,-4, -1, -6, 0, 9, 2, -3, -11, 0
1503514068160,7, 1, 8, 1, -6, -7, -3, 31, 0
1503514068176,3, 4, 0, 1, -1, -2, 0, -8, 0
1503514068198,11, -4, -7, 0, -2, 0, 3, -14, 0
1503514068221,-7, -6, 2, 0, -2, -6, -4, -18, 0
1503514068236,2, -5, -1, 0, -4, -12, 4, 28, 0
1503514068258,3, 7, 4, 6, 9, 5, -5, -20, 0
1503514068280,5, 2, -3, 1, 0, 1, 2, 19, 0
1503514068296,-54, -10, 3, 11, 10, 6, 1, -18, 0
1503514068318,8, -2, 2, -4, -4, 0, 1, 0, 0
1503514068340,4, -6, -4, -2, -3, 0, -3, -10, 0
1503514068366,-9, -3, 2, -1, -1, 0, -3, -1, 0
1503514068378,-10, -2, 1, 18, 18, 2, -5, -13, 0
1503514068401,4, -1, -3, -10, -13, -4, -6, -6, 0
1503514068423,10, -4, -7, -8, -7, 0, 1, 8, 0
1503514068432,-6, -16, -5, -1, 1, 0, -2, -11, 0
1503514068452,3, 3, 6, 3, 1, 1, -3, -1, 0
1503514068467,-5, -2, -6, -3, 2, 1, 0, 2, 0
1503514068491,22, 7, -2, 0, -2, -2, 0, 13, 0
1503514068513,-18, -10, -4, -5, -3, -2, 5, -6, 0
1503514068528,3, 2, 6, 0, -4, -1, 5, 3, 0
1503514068550,-6, -5, -3, 0, 3, 3, 0, 0, 0
1503514068572,-1, -1, -4, -7, -5, -1, -1, 1, 0
1503514068587,1, 8, 6, 7, 7, 0, -4, -9, 0
1503514068610,-7, 1, 4, 7, 3, -1, -3, 15, 0
1503514068633,2, 34, 12, -1, -7, -2, -7, -15, 0
1503514068648,3, -12, -10, -6, -3, -3, -3, 10, 0
1503514068670,-3, -17, -10, -4, -3, -1, 2, 8, 0
1503514068695,-2, -7, -6, -4, 6, 3, 3, -6, 0
1503514068707,0, 1, 4, -1, -2, -1, -1, 7, 0
1503514068730,-6, 5, 6, 3, 4, -1, -2, -7, 0
1503514068752,-1, 0, -1, 5, -2, -1, 1, -2, 0
1503514068768,1, 1, 3, 0, 1, -1, 1, -1, 0
1503514068792,-4, -4, 1, 6, 6, 1, 4, -6, 0
1503514068812,-5, -6, -5, -3, -4, -1, 1, 10, 0
1503514068827,-6, -4, 1, 2, 3, -1, -1, -3, 0
1503514068842,7, 34, 6, -1, 0, -3, -2, 22, 0
1503514068860,-2, -8, -6, -6, 2, 8, -1, -10, 0
1503514068880,-2, -10, -3, -1, -2, -2, -1, 14, 0
1503514068902,-13, -11, -7, -3, -1, -1, 3, -9, 0
1503514068918,-2, -12, -2, 4, 1, -2, 0, 2, 0
1503514068940,3, -2, 4, 3, 1, 0, 2, 3, 0
1503514068962,0, -8, -5, 0, 4, 1, 2, 15, 0
1503514068978,-1, 7, 0, -5, -3, -2, -1, -15, 0
1503514069000,-3, -4, -4, -6, -6, -2, -8, -15, 0
1503514069022,-2, 1, -1, 2, -1, -2, -4, -2, 0
1503514069038,3, 0, 8, 19, 21, 5, 6, 2, 0
1503514069061,0, -1, -5, -6, -7, -4, 0, -9, 0
1503514069082,8, 32, 20, -2, -3, -3, 1, 0, 0
1503514069098,4, -7, -8, -5, -4, 0, 3, 3, 0
1503514069120,-4, -1, 0, -2, 2, 0, -2, 0, 0
1503514069142,-2, -6, -8, -8, 4, -1, -7, -4, 0
1503514069158,-6, -5, -1, -2, -6, -3, -4, -11, 0
1503514069180,2, 2, -2, 0, -4, 0, 0, 14, 0
1503514069202,2, -6, 4, 5, 2, 1, -1, 6, 0
1503514069218,-3, -3, -3, -3, -6, -2, -10, -9, 0
1503514069233,-4, -12, -6, -5, -5, -2, -1, -16, 0
1503514069247,-1, 0, 2, -2, 6, 7, -2, -1, 0
1503514069271,2, -15, -11, -8, -6, -2, 4, 15, 0
1503514069292,0, 1, 1, -1, -5, -4, 1, 4, 0
1503514069314,0, 0, -4, -7, -6, -3, -1, 6, 0
1503514069331,-5, -3, 2, 13, 10, -1, -5, -4, 0
1503514069354,-2, 0, 2, -3, -4, -7, -1, 11, 0
1503514069374,9, 7, 0, -5, -1, 1, -2, 16, 0
1503514069390,-6, -1, 2, 3, -1, 2, -1, -26, 0
1503514069412,-4, -7, 0, 7, 4, 0, 3, -4, 0
1503514069436,-11, -5, -3, 4, 1, 1, -1, -6, 0
1503514069450,7, 1, -1, -3, -3, -3, -1, 0, 0
1503514069473,-1, -2, 0, -6, -1, 4, 3, -2, 0
1503514069494,6, -2, -2, 4, 3, 5, 4, -2, 0
1503514069515,11, 4, 0, -2, 0, 4, -1, 1, 0
1503514069534,-7, 2, 5, 4, 4, 2, -2, -1, 0
1503514069554,-1, -2, -5, -9, 0, -3, -2, 1, 0
1503514069570,-9, -3, -1, -2, -5, -7, -6, -8, 0
1503514069592,0, -6, -7, -9, -9, -8, -5, 1, 0
1503514069614,0, 3, 10, 13, 10, 2, 5, 7, 0
1503514069632,8, -3, -9, -10, -9, -5, -1, 0, 0
1503514069652,-7, 0, 0, 0, 1, -2, 2, -1, 0
1503514069674,1, 2, -3, -5, -8, 1, 0, -1, 0
1503514069690,0, 16, 12, 3, -1, -2, 0, 4, 0
1503514069713,-3, -9, -7, -7, -4, -3, 0, 0, 0
1503514069736,-3, -6, 0, 9, 10, 2, -3, -3, 0
1503514069750,-4, -5, -6, -8, -12, -6, -1, -1, 0
1503514069771,11, 3, 5, 9, 9, 0, 1, 6, 0
1503514069782,-7, -6, -2, -1, -2, -2, -5, -4, 0
1503514069803,4, -2, -4, -2, 8, -1, -5, 2, 0
1503514069825,5, -2, -5, -9, -3, -2, -5, 0, 0
1503514069842,-5, -1, 0, -3, -8, -4, -7, -9, 0
1503514069862,-6, -5, -5, 5, -4, -4, -4, -5, 0
1503514069885,6, 11, 15, 6, -1, -1, -2, -2, 0
1503514069903,0, -7, -6, 3, 6, 5, 5, 8, 0
1503514069922,-8, -5, -3, -3, -6, 3, 3, -3, 0
1503514069945,9, 11, 5, 3, 3, 1, 1, 3, 0
1503514069960,8, 0, 1, 10, 11, 1, 1, 5, 0
1503514069982,6, 10, 8, -9, -10, -4, 1, 0, 0
1503514070006,-4, -3, -7, -14, -6, -1, -1, -2, 0
1503514070021,4, -10, -14, -14, -14, -6, -4, -4, 0
1503514070044,1, -1, 0, 13, 21, 6, 3, 3, 0
1503514070066,-8, -2, 0, -5, -5, 1, 2, -4, 0
1503514070073,8, 3, -4, -2, 18, 5, 4, 4, 0
1503514070094,-16, -9, -7, -6, -16, -9, -1, -7, 0
1503514070110,-3, 5, 13, 9, 2, 2, 3, 3, 0
1503514070134,3, 5, 2, -9, -30, -2, -1, 0, 0
1503514070154,-11, -8, -6, -8, -11, -6, -6, -6, 0
1503514070171,21, 15, 5, 4, 8, 0, -3, 3, 0
1503514070192,-20, 4, 12, 10, 7, 1, -1, -4, 0
1503514070214,-11, -9, -10, -14, -14, -5, 0, -5, 0
1503514070237,-8, -7, -8, -18, -21, -12, -4, -6, 0
1503514070252,5, -6, -5, 1, 2, -2, 2, 11, 0
1503514070274,3, 0, -5, 6, 5, 4, 4, 3, 0
1503514070296,21, 18, 3, 6, 4, 3, 1, 5, 0
1503514070312,4, 0, 1, 14, 21, 5, 3, -1, 0
1503514070327,-10, -2, -5, -7, 2, -2, -4, -5, 0
1503514070342,17, 9, 3, -6, -7, -5, -6, 2, 0
1503514070365,13, 13, 11, 6, 6, 3, 5, 9, 0
1503514070387,-15, -12, -8, 0, 5, 4, 2, 13, 0
1503514070404,-5, -1, 3, 3, -2, -24, -7, -7, 0
1503514070425,-18, -10, -5, -7, -2, 5, 5, -8, 0
1503514070447,-9, -16, -8, 5, 1, 6, 0, -4, 0
1503514070462,-13, -9, -4, -4, -4, -2, 2, 3, 0
1503514070485,0, 4, 1, 1, 1, 1, 0, -2, 0
1503514070513,-9, -3, 0, -3, -1, 1, -1, -10, 0
1503514070522,8, 5, 8, 26, 21, 2, -3, -2, 0
1503514070545,-7, -12, -10, -17, -17, -6, -3, -10, 0
1503514070567,5, 20, 14, 5, 2, 4, 4, 0, 0
1503514070582,-7, -21, -11, 1, 6, 5, -2, -6, 0
1503514070607,10, 10, -1, -4, -2, 1, -1, 0, 0
1503514070627,1, 5, -2, -3, 3, -2, -9, -14, 0
1503514070643,3, 0, -5, -8, -6, 0, 5, 3, 0
1503514070665,-6, -4, -9, -5, 1, 3, -1, 0, 0
1503514070687,1, -6, -6, 2, -5, -1, -4, -8, 0
1503514070710,-1, -11, -6, -8, -10, -5, -1, 7, 0
1503514070725,-2, -5, 0, 1, 1, 1, 1, 3, 0
1503514070748,4, 1, 7, 8, 8, 3, 0, -6, 0
1503514070762,-3, 2, 2, -2, -5, -3, 2, 7, 0
1503514070785,3, 13, 7, 6, 13, 3, -2, 1, 0
1503514070808,-14, -12, -12, -15, -17, -5, 1, -6, 0
1503514070822,-5, -8, -5, 0, -3, -2, 2, -4, 0
1503514070845,-3, 8, 0, 1, 0, -1, -7, -18, 1
1503514070867,3, -7, -2, -5, -4, -3, -2, 4, 1
1503514070882,-15, -5, 2, 0, 2, -1, -5, 1, 1
1503514070905,-1, -8, 0, -7, -10, -3, 4, 17, 1
1503514070927,16, -3, -3, 2, -1, -1, 1, 23, 1
1503514070942,-5, -1, 0, 2, 2, 0, 1, -10, 1
1503514070957,-23, -9, 1, 4, -3, 0, -2, -1, 1
1503514070974,-9, -2, 4, 0, -3, -3, -7, -10, 1
1503514070994,-8, -12, -6, -5, 0, 2, 3, 8, 1
1503514071017,4, 6, 3, 5, 3, 2, 2, -4, 1
1503514071025,-8, -9, -1, 4, 14, 5, 2, -10, 1
1503514071050,-3, -1, -4, -11, -13, 0, -3, -5, 1
1503514071062,-12, -2, -7, -19, -23, -10, -5, -7, 1
1503514071085,-18, -9, -4, -7, -6, 1, 1, -4, 1
1503514071109,-1, 8, 8, 3, 5, 3, 2, -2, 1
1503514071123,-16, -4, 3, 0, -3, -6, -5, -6, 1
1503514071145,9, 8, 4, 8, 5, 16, 7, -3, 1
1503514071167,16, -2, -4, -3, -6, -6, -1, 13, 1
1503514071190,-1, -1, 2, 3, 2, -4, -9, 3, 1
1503514071205,16, 8, -5, 5, 5, -1, 1, 4, 1
1503514071228,2, -7, 2, 8, 8, 8, 4, 6, 1
1503514071251,-5, -3, -4, -5, -4, -5, -6, -15, 1
1503514071265,12, 6, -2, 0, 5, 3, -5, -15, 1
1503514071287,-1, 4, 7, 4, 2, -1, 0, -9, 1
1503514071310,-10, -11, -12, -7, -10, -29, -3, -2, 1
1503514071325,-7, 1, 0, -2, -4, -11, 0, 12, 1
1503514071347,-28, -13, 1, 0, 4, 2, 0, -9, 1
1503514071370,-12, -7, -3, 1, 2, 9, 1, -6, 1
1503514071385,7, -1, -6, -1, 2, 10, 1, 1, 1
1503514071407,-4, -10, -8, -6, 1, -1, 0, 0, 1
1503514071416,13, 4, 3, 3, 2, -4, -1, -7, 1
1503514071438,-5, -3, 1, -2, 1, 14, -4, -20, 1
1503514071460,0, 1, -3, -4, -4, -12, 0, -15, 1
1503514071490,-8, 0, -6, 1, 1, 5, 1, -5, 1
1503514071498,-4, -2, 0, -5, -2, -4, -3, -7, 1
1503514071521,10, -4, -2, 0, -3, -7, -9, 12, 1
1503514071545,-10, -4, 2, 8, 6, 0, 0, -11, 1
1503514071558,-5, -1, 0, 2, -5, 0, 2, 4, 1
1503514071580,-4, -3, -3, -3, -4, 2, 0, -6, 1
1503514071604,3, 0, 0, 0, 2, 2, 7, 9, 1
1503514071618,-18, -11, -14, -5, 0, 0, -5, -26, 1
1503514071640,5, -2, 0, -2, 0, 3, 5, 13, 1
1503514071663,1, 4, 2, -5, -3, 8, 0, 1, 1
1503514071679,-5, -2, 2, -2, -4, -8, 1, 20, 1
1503514071700,13, 5, 4, 5, 3, -3, 2, 22, 1
1503514071723,1, 8, -5, -7, -6, -4, 3, 2, 1
1503514071738,7, -5, -2, 3, 5, 7, 4, 21, 1
1503514071760,2, -1, -4, -5, -11, -24, -7, -24, 1
1503514071783,5, -3, -2, 4, 4, 6, -3, -30, 1
1503514071798,-3, 6, 5, -3, -4, 0, -1, 0, 1
1503514071820,-1, -5, -1, 2, 1, -2, -2, 12, 1
1503514071843,0, 28, 25, 9, 3, 2, 1, -3, 1
1503514071858,0, -4, -4, -3, -4, -7, 0, 19, 1
1503514071882,-3, -5, -3, -2, 1, 3, -5, -11, 1
1503514071895,5, 2, 1, 9, 8, 2, -2, 3, 1
1503514071918,2, -10, -12, -5, -4, 0, -3, -5, 1
1503514071940,-5, 3, 7, 0, 0, 1, 0, 2, 1
1503514071958,-6, -8, -6, 7, 8, 1, 8, 2, 1
1503514071978,-2, -5, -5, -7, -3, 5, 1, 0, 1
1503514072001,-1, -4, -3, -3, -3, 0, 2, 8, 1
1503514072016,-7, -4, -3, -3, 4, 1, -2, -22, 1
1503514072038,2, -3, -2, -5, -9, -10, -3, 27, 1
1503514072045,6, -1, 5, 4, 4, 0, -4, 3, 1
1503514072067,-1, 0, 4, -3, -2, -5, 1, 6, 1
1503514072091,-5, -8, -5, -1, 0, 3, -3, -9, 1
1503514072112,1, 3, -1, -1, -5, -1, 2, 8, 1
1503514072127,30, 6, 2, 4, 2, 2, 2, 32, 1
1503514072150,-3, 9, 14, 7, -3, -5, -5, -5, 1
1503514072172,-4, -4, -5, -7, -9, -4, -2, -1, 1
1503514072188,-10, -6, -3, 3, 3, 2, 4, -12, 1
1503514072210,-16, -5, -6, -4, -2, -1, 0, -23, 1
1503514072232,7, -2, -4, -5, -13, -29, -4, -12, 1
1503514072247,0, -7, -6, -2, 2, 7, 1, 0, 1
1503514072269,5, 0, -2, -1, 6, 3, 0, 14, 1
1503514072292,-11, -6, -2, 1, 11, -5, 2, 0, 1
1503514072307,-7, -9, -9, -5, 1, 2, 6, 37, 1
1503514072323,14, 1, -6, -1, -6, -4, 0, 16, 1
1503514072338,-5, -4, -5, 0, 0, 6, -1, -12, 1
1503514072362,-14, -5, 2, 2, -6, -22, -7, -14, 1
1503514072384,-9, 4, 4, -3, -11, 2, 0, -4, 1
1503514072398,3, -1, -5, -4, 3, 7, 0, -4, 1
1503514072422,7, 9, 7, 0, 0, -5, 3, 2, 1
1503514072443,-7, -12, -9, 0, 4, 5, -2, -14, 1
1503514072458,0, -1, -1, 3, 6, 3, 5, 4, 1
1503514072481,4, 0, 3, 4, 8, 5, 4, 7, 1
1503514072502,9, 1, -5, -7, -7, -3, -3, 7, 1
1503514072519,-9, -2, 2, 1, 0, 3, -1, 19, 1
1503514072540,1, -2, 2, 5, 13, 1, -4, 15, 1
1503514072562,0, -1, -7, -14, -16, -8, -7, -26, 1
1503514072578,-10, -5, -3, -6, -5, -4, -8, -12, 1
1503514072600,3, 3, 3, 4, 4, 3, 5, 4, 1
1503514072623,-8, -4, 2, 8, 2, 4, 2, -9, 1
1503514072638,-5, 1, 0, -7, -7, -3, 1, -12, 1
1503514072662,-3, -1, -1, 7, 5, -5, 3, 4, 1
1503514072683,2, -4, -2, -1, 0, 2, 3, 14, 1
1503514072691,9, 3, 1, -1, 2, 3, -6, -24, 1
1503514072712,-7, -5, -3, 0, -3, -3, -3, -13, 1
1503514072729,-4, -3, -8, -10, -10, -3, 0, -4, 0
1503514072750,-7, -1, 0, -3, -8, -4, -2, -6, 0
1503514072772,-7, 1, 4, 3, 5, -2, 2, -4, 0
1503514072795,4, 8, 11, 1, -3, -3, 2, 11, 0
1503514072810,-2, -7, -5, 1, 2, 0, 1, 8, 0
1503514072832,10, 1, 1, 3, 9, -2, -8, -5, 0
1503514072847,-10, -3, -2, -3, -6, -3, 1, -12, 0
1503514072870,11, 5, 0, 3, 0, 0, 0, 6, 0
1503514072893,-6, -11, -7, -3, -2, -2, 1, 3, 0
1503514072907,5, 2, -5, -3, -2, -2, -4, 2, 0
1503514072930,-2, 2, 0, -3, -4, -2, -7, -3, 0
1503514072952,-6, -5, -4, -4, -4, -1, 5, 9, 0
1503514072967,5, 5, 3, 1, 0, 1, 6, 11, 0
1503514072990,16, 11, 2, 1, -1, 1, 2, 12, 0
1503514072998,1, 2, 0, -3, 1, -2, -1, 2, 0
1503514073022,-1, -4, -3, 3, 1, 1, -1, -3, 0
1503514073043,2, -1, -3, -5, -6, -3, 1, 2, 0
1503514073065,0, 3, 7, 3, 1, 1, -1, -8, 0
1503514073080,11, 5, 0, -4, 1, 0, -1, -4, 0
1503514073103,-7, 0, 0, 0, -4, -3, -2, -1, 0
1503514073126,-9, -6, 0, 2, 1, -3, -2, 1, 0
1503514073140,0, 1, 2, -5, -8, -6, -3, -3, 0
1503514073163,0, 1, -4, -2, 3, 2, 1, -6, 0
1503514073185,5, 5, 7, 7, 13, 31, 8, 5, 0
1503514073200,-3, -3, -4, 0, 0, -9, -6, -1, 0
1503514073224,-6, 0, 4, -3, -4, -8, -3, 2, 0
1503514073244,-4, -3, -5, -1, -3, -4, 0, -2, 0
1503514073262,-3, -3, -3, -3, 3, -1, 0, -6, 0
1503514073283,23, 3, -7, -6, -8, -8, 0, 28, 0
1503514073305,4, 10, 6, 5, 2, 0, -3, -8, 0
1503514073320,-11, -9, -6, -5, -5, -4, -1, -5, 0
1503514073343,0, -3, 4, 2, -1, 0, 1, 18, 0
1503514073365,9, 0, -6, 0, -2, 0, -1, -2, 0
1503514073380,-14, -3, 2, 5, 5, -2, -4, -17, 0
1503514073403,-1, -4, -5, 0, -1, 1, 1, -9, 0
1503514073425,14, 7, 3, 2, 3, -3, -3, 2, 0
1503514073440,5, -4, -2, -6, -4, -3, -4, -3, 0
1503514073464,-2, -9, -5, -3, -3, -2, 0, -5, 0
1503514073485,-15, -9, -6, -7, -5, -2, -4, -6, 0
1503514073501,-3, 2, -1, -6, -6, -3, -5, -4, 0
1503514073523,-3, 18, 12, -1, -3, -2, 1, 14, 0
1503514073545,-13, -7, -7, -3, -1, 0, -1, -21, 0
1503514073561,1, -3, -2, -4, -4, -3, 0, -3, 0
1503514073582,4, 6, 4, -3, -6, -2, -1, -3, 0
1503514073589,-1, -4, -4, -5, -6, -4, -4, -2, 0
1503514073612,0, -8, -5, 4, 0, 1, 1, 1, 0
1503514073635,-9, -2, -4, -7, -4, -5, -6, -21, 0
1503514073650,-14, -5, -4, -3, -3, 1, 2, 13, 0
1503514073672,-1, -1, -4, -7, -9, -2, -2, 1, 0
1503514073696,-5, 2, 4, -5, -4, 1, 2, 6, 0
1503514073710,1, 4, 1, 3, -1, -4, -6, 4, 0
1503514073732,2, -6, -4, -9, -7, -1, 3, -7, 0
1503514073755,5, -2, -7, -4, 0, -1, -2, -4, 0
1503514073770,-2, 0, 1, 3, 3, 2, 0, -4, 0
1503514073785,-3, -6, -4, -8, -4, 2, 1, 0, 0
1503514073800,2, -3, 0, -6, -4, -2, 1, 7, 0
1503514073822,4, -3, -7, -3, 0, -1, 1, 19, 0
1503514073830,-5, -8, -5, -8, -8, -4, 1, 8, 0
1503514073852,-5, 2, 0, 0, 0, 1, 0, 1, 0
1503514073875,-3, -9, -3, -1, -1, -4, -1, 0, 0
1503514073890,6, 2, 0, -3, -3, 0, 0, 6, 0
1503514073912,4, -4, -7, -4, -1, -3, -1, -1, 0
1503514073941,1, 0, 2, -5, -5, -3, -1, -5, 0
1503514073943,-3, -8, -5, -4, -8, -1, 1, -2, 0
1503514073966,0, -4, -1, -2, -4, -3, 0, -3, 0
1503514073987,4, 4, 5, 3, 4, 1, 1, 7, 0
1503514074003,6, 5, 1, -4, -2, 1, -1, -2, 0
1503514074025,-8, -1, 5, 3, 1, 0, 0, -22, 0
1503514074047,8, 7, 4, 9, 8, 0, -4, -1, 0
1503514074064,0, -5, -9, -8, -6, -3, 2, 9, 0
1503514074085,-4, -3, -6, -4, -4, -2, -1, -1, 0
1503514074107,-4, 1, -5, -4, -4, 2, 1, 8, 0
1503514074123,4, 16, 11, -2, -2, -3, 0, 17, 0
1503514074145,-3, -9, -4, -4, -4, 0, -1, 1, 0
1503514074167,-6, -10, -7, -5, -3, 1, 1, -9, 0
1503514074182,7, -1, -2, -4, -5, -2, -3, -5, 0
1503514074206,-2, 4, 3, -1, -2, -2, -1, 2, 0
1503514074227,-8, 1, 2, 0, 0, 0, -4, -25, 0
1503514074243,-5, -5, -2, 3, 6, -1, -2, 4, 0
1503514074266,-3, -2, 0, 1, -2, 0, 2, 7, 0
1503514074287,2, 4, 1, 2, 1, 0, -1, -2, 0
1503514074295,-5, 0, 3, 5, 5, 0, -4, -1, 0
1503514074316,0, 3, -5, -7, -5, -2, 0, -11, 0
1503514074332,-5, -22, -10, 0, 3, 0, 3, 6, 0
1503514074354,-1, -5, -8, -4, 1, 3, 0, -3, 0
1503514074376,1, 6, 5, 3, 0, -1, -1, -3, 0
1503514074392,3, 7, 4, 3, 4, -1, -3, -6, 0
1503514074415,-5, -6, -5, -6, -4, 1, 0, 0, 0
1503514074442,6, 7, 5, 2, 1, 1, 5, 14, 0
1503514074452,-3, 2, 6, -1, 3, 1, -3, -3, 0
1503514074475,-1, 1, -2, -7, -1, -1, -1, -9, 0
1503514074497,0, 8, 5, 1, -4, -2, -2, 9, 0
1503514074519,-2, -3, -1, 4, 0, -2, 1, 27, 0
1503514074535,-1, -4, 0, -5, -5, -3, -3, -10, 0
1503514074556,-8, -22, -14, -7, -8, 0, 1, -6, 0
1503514074572,3, -3, -5, -1, -4, -2, -4, -7, 0
1503514074595,2, 5, 4, -2, -2, -2, 1, 5, 0
1503514074616,-3, 2, -4, -5, -8, -3, 0, -6, 0
1503514074634,0, 8, 4, 0, 0, 3, 2, 3, 0
1503514074654,0, 3, 2, -1, 0, -2, -3, -6, 0
1503514074676,4, 1, -2, 0, 0, -2, -3, -32, 0
1503514074685,-6, -14, -11, -3, -4, -2, 0, -3, 0
1503514074707,4, 7, -1, -7, -6, -4, -3, -6, 0
1503514074723,-2, -7, -7, -4, -5, -2, 0, 16, 0
1503514074745,-6, -3, -2, 1, -1, -1, -2, -5, 0
1503514074769,1, 2, 4, 1, 1, -1, -2, -2, 0
1503514074782,1, -4, -2, -2, -2, -1, -1, 6, 0
1503514074796,2, 18, 9, 4, 4, 0, -1, 6, 0
1503514074812,-1, -5, -1, 17, 22, 7, 5, 2, 0
1503514074836,-4, -9, -2, -7, -7, -4, -1, 1, 0
1503514074856,-2, -7, -1, -4, -6, -3, -8, -4, 0
1503514074879,3, 8, 5, 1, 0, 2, 3, 9, 0
1503514074888,-2, -17, -7, -3, -3, -2, -3, -14, 0
1503514074895,-2, -6, 1, 0, 2, 0, -1, -4, 0
1503514074916,-2, -5, -8, 3, -1, -1, -2, 2, 0
1503514074925,2, -3, -3, 0, 2, 1, 3, 3, 0
1503514074947,4, 36, 19, 4, 0, -2, 0, -7, 0
1503514074971,-1, -13, -8, 0, -1, 0, 0, 6, 0
1503514074978,-2, -9, -8, -7, -6, -4, 0, 16, 0
1503514074999,1, -3, 0, 9, 12, 3, 3, 1, 0
1503514075015,-1, -1, -6, -7, -6, -1, -1, -13, 0
1503514075037,3, 6, 5, 6, 3, 2, 0, 1, 0
1503514075059,1, 1, 0, -3, -5, -3, 1, 15, 0
1503514075075,-2, -8, -6, -2, 0, 0, -1, 6, 0
1503514075097,-1, 8, 3, -8, -7, -4, -4, -2, 0
1503514075119,-2, -5, 4, 5, 2, -1, -3, -7, 0
1503514075140,-1, -13, -10, -9, 0, 2, 1, 4, 0
1503514075157,1, 4, 1, -2, 5, 1, 1, -5, 0
1503514075180,3, 10, 5, 2, -2, 1, 5, 18, 0
1503514075194,-1, -1, -3, 0, -3, -1, -2, -4, 0
1503514075217,2, 12, 1, 3, -1, -3, -5, -14, 0
1503514075240,-7, -12, -4, -4, -5, -4, -4, -2, 0
1503514075254,4, 14, 11, 1, -2, 1, 6, -8, 0
1503514075278,-3, -5, -2, -5, -4, -1, -2, -5, 0
1503514075299,-4, -4, -6, 1, 0, 1, -1, 5, 0
1503514075315,-4, -9, -5, -5, -3, -3, -1, 0, 0
1503514075339,1, 0, 9, 13, 10, 1, -5, -7, 0
1503514075359,0, -2, -4, -9, -7, -4, -5, 1, 0
1503514075376,-2, -8, -5, -3, -1, 0, 2, 0, 0
1503514075390,-6, -6, -4, -2, -4, -2, -1, -5, 0
1503514075406,5, 4, 2, 3, 3, -4, -3, -4, 0
1503514075427,1, 1, -3, -7, -3, 0, 0, 1, 0
1503514075435,-1, -2, -1, 0, 1, -1, -1, -3, 0
1503514075457,14, 3, -2, 1, -1, -1, -2, -4, 0
1503514075481,-16, -2, 3, -5, -2, -1, -2, -4, 0
1503514075494,-5, -7, -3, -5, -10, -4, -3, -7, 0
1503514075517,19, 11, 6, -4, -6, -2, 2, 10, 0
1503514075541,37, 13, 3, 11, 9, 1, 4, 10, 0
1503514075554,-3, -4, 0, 4, 9, 3, 0, -1, 0
1503514075570,1, 3, 2, 8, 1, 1, -1, -2, 0
1503514075585,-4, 1, 3, 2, 10, -1, -3, -5, 0
1503514075607,3, 3, 8, 8, 11, 6, 3, 3, 0
1503514075616,-25, -10, -7, -16, -30, -41, -10, -14, 0
1503514075637,-16, -6, -3, -9, -6, 1, 0, -2, 0
1503514075659,6, 1, -1, 7, 7, 3, 2, 2, 0
1503514075675,0, 2, 4, 8, 8, 14, -1, -1, 0
1503514075697,24, 16, -2, -1, 7, 9, 1, -1, 0
1503514075719,-8, -5, -9, 0, 5, 14, 1, -2, 0
1503514075734,-3, -4, 1, 2, 5, -9, -13, -1, 0
1503514075757,1, 1, 0, -13, -7, -2, -2, -13, 0
1503514075779,1, 4, -2, -6, -5, 3, 4, 4, 0
1503514075795,-18, -7, -3, -7, -11, -2, 2, 3, 0
1503514075818,-10, -6, 3, 10, -1, 0, 1, 0, 0
1503514075841,17, 7, 4, -1, -1, -3, -1, -3, 0
1503514075861,11, 13, 3, 2, -2, -3, -2, -3, 0
1503514075877,2, -6, -1, 0, -1, -2, 1, 4, 1
1503514075900,-7, -12, -15, -5, -1, 1, 2, 2, 1
1503514075921,-14, -11, -3, -6, -4, -5, -1, -3, 1
1503514075937,-3, -2, 0, -6, -7, -4, -3, -4, 1
1503514075959,-9, -9, -2, 4, 0, 2, 1, -4, 1
1503514075982,10, 11, 11, 2, 4, -2, 0, 3, 1
1503514075997,-4, 0, -1, 0, 11, 14, -2, -2, 1
1503514076019,5, 2, -2, -8, -8, 0, -2, 6, 1
1503514076043,-1, -10, -7, -2, -2, -7, 0, -2, 1
1503514076057,5, 0, -2, -1, -1, -2, 0, 2, 1
1503514076079,-5, 5, 4, 1, -6, -1, 0, -1, 1
1503514076104,-4, -5, -3, -1, 2, -3, -2, -13, 1
1503514076117,-4, 2, 4, 0, -2, 1, 2, 0, 1
1503514076139,-8, -5, -4, 5, 8, -1, -2, -1, 1
1503514076161,3, -2, -5, -4, -6, -1, -1, 1, 1
1503514076180,0, -4, -2, -7, -4, -6, -7, -12, 1
1503514076199,-1, 15, 19, 3, -4, 0, 3, 8, 1
1503514076221,-5, -12, -16, -12, -6, -1, -3, -7, 1
1503514076229,-13, -4, -1, -5, -5, -3, -1, 3, 1
1503514076253,0, -3, -3, 0, -1, -1, -1, 1, 1
1503514076267,-4, -2, 0, 6, 3, 2, 0, -1, 1
1503514076290,-2, 1, 7, -2, -7, -3, 0, 2, 1
1503514076312,3, 7, 2, 3, 4, 3, 0, 4, 1
1503514076327,-4, -5, -7, -5, -6, -2, -1, -7, 1
1503514076351,0, -4, -4, -4, -6, -4, -1, 3, 1
1503514076372,-7, -1, -2, -6, -5, -1, -2, -14, 1
1503514076387,1, -14, -10, -3, 0, -1, 1, 9, 1
1503514076411,2, 6, 5, 2, -2, 0, 1, -4, 1
1503514076432,-2, 3, 5, 12, 4, -16, -2, -2, 1
1503514076455,3, 2, -3, -3, -1, 2, -3, -3, 1
1503514076469,-2, -4, -4, -2, 0, 2, 0, 1, 1
1503514076492,-1, -5, -5, -10, -5, -1, -2, -3, 1
1503514076507,5, 8, 1, -3, -3, -1, -1, 0, 1
1503514076530,-4, -4, -4, -3, -2, 2, 0, 1, 1
1503514076552,7, 3, 8, 2, 3, 3, 1, 0, 1
1503514076567,-10, 4, 11, 3, 3, 2, -3, -10, 1
1503514076590,-4, -5, -8, -4, -1, 2, -1, 1, 1
1503514076615,-5, -6, -4, -1, 7, 0, 0, 0, 1
1503514076627,4, 5, 7, 9, 6, 0, -1, 1, 1
1503514076652,-2, -1, -6, -2, -6, -2, 0, -1, 1
1503514076672,-43, -23, -12, -4, -3, -1, -1, -7, 1
1503514076687,5, 0, -2, -1, -6, 1, -1, 0, 1
1503514076709,14, 3, 1, 2, 9, 5, 1, 3, 1
1503514076732,1, 2, -5, -4, -6, -4, -1, -4, 1
1503514076762,-9, -1, -1, 1, -1, -1, -3, 1, 1
1503514076769,15, 4, 5, 4, 18, 7, 1, 0, 1
1503514076792,5, 1, -3, -8, -11, -7, -4, 1, 1
1503514076816,-3, -9, -4, -4, -4, 0, 0, -7, 1
1503514076830,-19, -6, -4, -5, -2, -3, -3, -10, 1
1503514076853,17, 11, 4, 3, -2, -2, -1, 0, 1
1503514076874,8, 10, 6, 7, 0, 1, -2, 4, 1
1503514076891,0, -6, -8, -8, -8, -6, -2, 1, 1
1503514076912,-6, -13, -8, -5, -4, -1, 0, -7, 1
1503514076934,5, 4, 7, 4, 3, 1, 2, 6, 1
1503514076950,5, 6, 2, -3, -4, -2, 0, 5, 1
1503514076972,-3, -26, -18, -2, 2, 0, -2, -3, 1
1503514076995,-9, -2, 0, -1, -3, -1, 2, 1, 1
1503514077009,-24, -6, -8, -6, -1, 10, 1, -8, 1
1503514077033,2, 5, 6, 2, 1, 1, 0, -2, 1
1503514077055,9, 9, 8, 3, 0, -5, -3, 3, 1
1503514077077,22, 11, 5, 4, 0, -2, -1, 16, 1
1503514077093,-1, 3, 3, 1, 0, -2, -3, -9, 1
1503514077114,-11, -2, 3, -1, 0, 0, 0, 1, 1
1503514077123,3, -6, -4, -7, -14, -1, -1, -3, 1
1503514077145,-15, -11, -6, -5, -6, -6, -2, -7, 1
1503514077160,-2, -1, -2, 0, 4, 10, -4, -55, 1
1503514077184,-2, -2, -4, -5, -6, -3, -6, 1, 1
1503514077190,-5, -9, -7, -7, -7, -4, -4, -7, 0
1503514077212,-10, 2, 6, 1, 1, -2, 0, -1, 0
1503514077235,-11, -4, -1, 1, -5, -15, 0, -1, 0
1503514077252,-2, 3, 4, 2, 1, 2, 1, -3, 0
1503514077272,8, 3, 0, -2, -4, -4, -3, 6, 0
1503514077295,6, 2, 0, -6, 1, 6, 1, -6, 0
1503514077309,11, 0, -2, -2, 1, -2, 1, 8, 0
1503514077332,-18, -6, -4, -1, -1, -1, -9, -6, 0
1503514077356,22, 11, 5, 4, 1, 0, -1, 6, 0
1503514077377,-9, -10, -8, -8, -4, 1, 2, -3, 0
1503514077392,-1, -2, -6, -2, -2, -1, 4, 9, 0
1503514077415,-3, 1, 1, -2, -1, -1, -3, -20, 0
1503514077437,-3, -2, 1, 2, -1, -11, -3, -15, 0
1503514077454,-3, -6, 3, 7, 8, 5, -2, 0, 0
1503514077474,-15, -10, 0, 1, -1, -1, 2, 0, 0
1503514077490,-2, -3, -3, -7, 0, 11, -4, -4, 0
1503514077512,6, 0, -1, 1, 0, 1, 3, 16, 0
1503514077534,0, -1, 0, -3, -6, 0, -4, -4, 0
1503514077549,4, 3, 2, 7, 4, -3, -1, 5, 0
1503514077572,11, 10, -3, 2, 5, 2, 2, -8, 0
1503514077595,-1, -2, 1, 2, -2, 0, 2, 7, 0
1503514077610,2, 2, 2, 1, 0, 2, 0, 15, 0
1503514077632,-4, -4, 0, -1, 3, 2, 4, 12, 0
1503514077655,0, -1, -1, -4, -5, -7, -2, 2, 0
1503514077670,-18, -8, -2, 1, -1, 3, -1, -9, 0
1503514077692,13, -2, -4, -5, -7, -9, -5, 5, 0
1503514077714,5, 1, -2, -3, -2, -2, 0, -13, 0
1503514077737,-7, -3, 0, -1, -1, -4, 1, 0, 0
1503514077752,-18, -9, -7, -4, 1, 6, 4, -8, 0
1503514077774,24, 16, 12, 8, 5, 4, 2, -5, 0
1503514077797,7, 11, 2, 0, 0, 0, -6, -13, 0
1503514077812,-6, -1, 2, 0, -1, -3, -2, -3, 0
1503514077835,-7, -4, -4, -4, 0, 2, -2, 2, 0
1503514077857,13, 7, 4, -1, -4, -3, 1, 22, 0
1503514077872,-4, 4, -5, -1, 2, 1, -1, -19, 0
1503514077895,-6, -9, -3, -3, -4, -8, -7, -4, 0
1503514077917,-4, -2, 0, 2, 0, 3, -3, -12, 0
1503514077932,12, 9, 10, 3, 4, 1, 3, 33, 0
1503514077957,-1, -8, -9, -6, -5, 0, 1, -10, 0
1503514077977,-20, -16, -1, -1, -3, -1, -1, -3, 0
1503514077992,11, 1, -2, 2, -1, -2, -3, 3, 0
1503514078014,2, 2, -1, 2, 4, 2, 1, 3, 0
1503514078037,11, 8, 5, 5, 3, 0, -3, -7, 0
1503514078052,-2, 13, 7, -1, -3, -2, -5, 1, 0
1503514078074,-2, -3, -5, -4, -4, -1, 2, 1, 0
1503514078097,-5, -3, 1, -3, -1, -2, -1, -21, 0
1503514078112,2, -8, -10, 2, 2, -1, 0, 8, 0
1503514078134,4, -6, -4, -5, -3, 0, 0, 2, 0
1503514078158,-2, 0, 0, -4, -5, 1, 2, -7, 0
1503514078172,-8, -4, -3, -7, -11, -4, -1, -1, 0
1503514078196,-6, -3, -3, 0, 6, 0, -3, 4, 0
1503514078226,0, 0, -1, -1, 0, -2, -2, 4, 0
1503514078248,6, 1, 1, 0, -8, -3, -1, 8, 0
1503514078263,2, 1, 3, -2, -3, 5, -2, -13, 0
1503514078285,1, -2, -2, -4, 1, -4, -1, 10, 0
1503514078307,16, 0, -5, -3, -1, 0, 0, 1, 0
1503514078323,0, -1, -10, -2, -1, 0, -1, 3, 0
1503514078345,-2, -4, -6, -2, -1, 2, 0, 2, 0
1503514078368,-4, -1, 1, -1, -5, -10, -4, -11, 0
1503514078392,-8, -4, 2, -1, 2, 2, 3, 2, 0
1503514078405,-2, -5, -4, -1, -1, -3, 3, 26, 0
1503514078427,-14, -2, 1, 0, -5, -10, -1, -14, 0
1503514078442,-9, -1, -2, -4, 4, 21, -7, -46, 0
1503514078465,19, 6, 6, 5, 2, -4, -2, 13, 0
1503514078487,-15, -7, 2, 0, -1, -2, -2, 9, 0
1503514078503,-7, -3, -3, -4, -2, 0, -3, -26, 0
1503514078527,1, -2, -2, -2, -1, -3, -2, 1, 0
1503514078547,6, 2, -1, 4, 2, -1, 2, 9, 0
1503514078562,6, 5, 4, -5, -5, -8, -1, 4, 0
1503514078585,-2, -3, 1, 1, 4, 6, 0, -2, 0
1503514078608,14, 4, -4, -5, -5, -4, 1, 28, 0
1503514078629,-5, -4, -1, -5, -3, -1, -2, 1, 0
1503514078637,-8, -5, -3, -1, 1, 2, -2, -6, 0
1503514078663,0, -3, -3, -4, -2, 0, -1, -5, 0
1503514078674,-6, -5, -3, 3, 6, 7, 4, 6, 0
1503514078697,13, -1, 0, -1, 1, 3, 1, 5, 0
1503514078719,1, 2, -1, 0, 2, -3, 0, 12, 0
1503514078734,3, 14, 10, -4, -4, 0, -2, 2, 0
1503514078749,-7, -7, -5, -1, -4, -2, -3, -1, 0
1503514078765,-10, 1, 5, 9, 0, -1, -5, -5, 0
1503514078787,3, 6, -1, -11, -10, -3, -3, -9, 0
1503514078796,5, 10, 6, 3, 0, 1, -2, -37, 0
1503514078817,5, -2, -5, 1, 1, -1, 1, 5, 0
1503514078840,0, -6, -5, 2, -2, -2, 0, 4, 0
1503514078854,-3, 1, 4, 1, 0, -3, -1, -2, 0
1503514078877,-1, 2, -2, -2, -4, -4, -2, 8, 0
1503514078900,4, 0, 0, -4, -3, -3, 0, 11, 0
1503514078914,-2, 3, 5, -4, -11, -4, -1, 0, 0
1503514078931,-12, 0, 7, 11, 2, 2, -1, -4, 0
1503514078945,5, 3, -1, -3, -3, -3, -8, -15, 0
1503514078967,-4, -8, -12, -4, -2, 0, 2, -26, 0
1503514078989,3, 7, 9, 2, 0, 0, 2, 8, 0
1503514079006,6, 1, -2, 0, 1, -2, 0, 12, 0
1503514079027,6, 3, -1, -8, -13, -6, -2, 16, 0
1503514079049,7, 2, 2, -5, -5, -2, -5, -5, 0
1503514079066,-3, 1, 5, 5, 4, -3, -1, 4, 0
1503514079087,1, 2, 3, -1, -1, -1, 0, -5, 0
1503514079110,-1, 15, 7, 1, -1, -2, 2, 2, 0
1503514079125,12, 2, 4, 3, 2, -4, -10, -15, 0
1503514079148,-8, -2, 0, 1, 4, -1, 0, 1, 0
1503514079170,2, 4, 1, -2, -2, -3, -1, -8, 0
1503514079177,-2, -5, 2, 2, 4, -1, -1, -5, 0
1503514079200,-4, -10, -5, -7, -6, -3, 1, -32, 0
1503514079214,5, 17, 4, 4, 2, 1, -1, 4, 0
1503514079237,-2, -5, -4, -6, -1, 0, 0, 3, 0
1503514079259,-4, -4, -7, 2, 4, 1, -2, -6, 0
1503514079268,0, -3, 0, -3, 1, 1, 1, 20, 0
1503514079289,-1, -6, -2, 2, -2, 0, -7, -23, 0
1503514079299,4, 7, 8, 7, 4, 0, 1, 1, 0
1503514079320,0, -1, -1, 3, -3, -5, -7, -8, 0
1503514079335,7, 6, 4, 0, 0, 0, -2, 21, 0
1503514079357,2, 3, 1, -4, -6, -2, 0, 6, 0
1503514079380,-4, -23, -4, 1, 2, 0, -2, -4, 0
1503514079394,-4, -8, 4, 17, 13, -1, -3, 0, 0
1503514079417,-2, 4, -5, -11, -7, -1, 1, 16, 0
1503514079441,-17, -10, -10, -9, -7, -1, 0, -18, 0
1503514079454,-2, -6, -6, -8, -5, -3, -5, -13, 0
1503514079477,2, -1, -3, 0, 3, 1, 0, -6, 0
1503514079501,-2, -13, -9, -7, -4, 0, 3, 4, 0
1503514079517,1, 5, 2, 4, 8, 3, -1, -12, 0
1503514079537,5, 15, 7, -3, -10, -4, 0, 11, 0
1503514079560,-3, -7, -2, -2, -5, -2, -1, -26, 0
1503514079582,-6, 2, -2, -1, -3, 0, 1, 7, 0
1503514079597,2, 5, 3, 1, 0, -3, -3, 2, 0
1503514079619,0, -6, -4, -5, -6, -2, -2, 0, 0
1503514079644,-3, -1, 2, 0, 0, -1, -1, 4, 0
1503514079657,-1, 3, -2, 0, 4, 0, -7, -8, 0
1503514079679,4, 7, 4, 6, 5, 0, 3, 7, 0
1503514079688,1, -2, 2, 4, 5, 1, 0, -3, 0
1503514079710,0, 2, 1, -2, 0, 0, 4, 7, 0
1503514079732,-3, -5, -3, 1, 4, -1, -3, -4, 0
1503514079747,-2, 1, 0, -2, -1, 1, -4, -1, 0
1503514079771,2, -2, -4, -3, -1, -2, -1, 2, 0
1503514079799,2, 0, 3, 0, 0, -1, 0, 0, 0
1503514079809,-1, 5, 1, 4, 5, 3, 1, 3, 0
1503514079829,1, -6, -5, -8, -5, -1, 1, -1, 0
1503514079852,-2, -2, -3, -1, 1, -2, 1, -5, 0
1503514079871,-1, 0, -1, -2, -3, -2, -4, 2, 0
1503514079889,-2, -1, -1, -4, -2, -2, -1, -2, 0
1503514079912,-2, -1, -1, -1, -2, -1, -2, -7, 0
1503514079927,2, 12, 4, 5, 1, 1, -2, 0, 0
1503514079950,1, -10, -6, -3, 0, -1, 1, 5, 0
1503514079957,-2, -1, -1, 0, -1, -3, -2, 0, 0
1503514079980,1, -4, -1, -3, -2, -1, 1, 3, 0
1503514080003,-4, -4, -7, -5, -2, 1, -1, 1, 0
1503514080017,1, 1, -1, -1, -1, 0, -1, 3, 0
1503514080040,-5, -3, 2, -2, 0, -1, -1, -8, 0
1503514080049,0, 2, 6, 3, 1, -2, 1, -6, 0
1503514080072,-2, 3, 0, -1, -1, -2, -2, -5, 0
1503514080092,-2, 7, -1, -4, -1, 0, -1, -8, 0
1503514080100,0, 3, 3, 4, 1, 1, 0, 3, 0
1503514080121,0, 2, -1, 3, -2, 0, 1, 0, 0
1503514080138,1, 1, 5, 6, 3, -1, -2, -3, 0
1503514080160,-1, -3, -3, 2, 6, 3, 0, 0, 0
1503514080182,0, -1, 0, -3, -3, 0, 0, 0, 0
1503514080197,-3, -5, -6, -7, -4, -3, 1, -1, 0
1503514080219,-1, -2, -3, 1, 0, 0, 0, -2, 0
1503514080241,0, 1, 2, 0, -2, -2, -2, -1, 0
1503514080257,1, 3, 4, 0, 0, -1, -3, -3, 0
1503514080280,-3, 1, -2, -3, -3, -2, -2, -1, 0
1503514080301,-1, -2, -2, -3, -3, -1, 0, -1, 0
1503514080317,0, 1, 3, 5, 3, -1, -1, 0, 0
1503514080340,-1, -2, -6, 0, -2, 0, -1, -2, 0
1503514080361,-2, -5, -2, -3, -2, 0, -1, 0, 0
1503514080377,0, -4, -2, -2, -2, -3, -1, 1, 0
1503514080400,-1, 2, 1, -2, -2, 2, 1, -2, 0
1503514080421,2, 0, -1, 0, 0, 0, -2, -2, 0
1503514080437,-1, -5, -7, -4, -2, -1, 2, -1, 0
